,2009,2010,2011,2012,2013,2014,2015,2016,2017,2018,2019,2020,ups,downs,end_day_sum,avg
01-02,-6.301204681396484,2.4717884063720703,-0.41120147705077414,0.6286239624023438,4.331840515136719,-1.228607177734368,-0.4481163024902344,1.8217239379882812,3.193916320800767,2.63299560546875,11.297157287597656,-10.827728271484375,7.0,5.0,03-02,0.5967656771341959
01-03,-7.077081680297852,2.725473403930664,-0.4369659423828125,0.6286239624023438,4.643695831298828,-0.3802528381347656,2.00799560546875,2.560974121093736,3.193916320800767,2.4598617553710938,12.673385620117188,-12.501029968261719,8.0,4.0,03-03,0.8748830159505184
01-04,-7.29312705993652,3.0045032501220703,-0.1803131103515696,0.532989501953125,3.6334075927734375,-0.8242263793945312,1.4470710754394531,2.4767532348632812,2.0481033325195312,3.1894302368164062,9.841934204101577,-10.024093627929688,8.0,4.0,03-04,0.6543693542480478
01-05,-6.8776493072509695,3.0381908416748047,-0.24874496459960938,1.0552024841308594,3.9426956176757812,-0.44472503662108664,1.1987953186035156,2.858726501464858,2.5300140380859375,2.9802093505859375,9.766639709472656,-10.836517333984375,8.0,4.0,03-05,0.7469031016031925
01-06,-6.001176834106438,2.5750808715820312,1.1410484313964773,1.369171142578132,4.298179626464844,-0.2820701599121094,1.8304862976074219,3.3152313232422017,2.7203598022460938,3.3963775634765625,9.629631042480469,-6.1997528076171875,9.0,3.0,03-06,1.4827138582865416
01-07,-5.058565139770504,2.5750808715820312,0.6340980529785156,1.5522842407226562,4.8136329650878835,-0.5610809326171875,1.4917488098144531,5.37738037109375,2.1789932250976562,3.7535629272460938,8.670532226562486,-5.073768615722656,9.0,3.0,03-07,1.6961582501729315
01-08,-6.401403427124023,3.150178909301765,0.43675994873047586,0.5133209228515696,2.5848350524902273,-1.8212089538574219,-0.7261390686035156,6.014198303222656,2.0077896118164062,3.1453628540039062,7.139350891113267,-5.3799514770507955,8.0,4.0,03-08,0.8885911305745431
01-09,-5.674837112426761,3.2179298400878906,2.1199073791503906,0.5395050048828196,3.0624427795410085,-1.5698089599609304,-0.8390846252441335,5.80810546875,2.454803466796875,3.9244766235351562,7.178344726562472,-10.230278015136719,8.0,4.0,03-09,0.832625548044839
01-10,-5.75028038024902,2.9811668395996094,1.7420730590820312,0.40039443969727273,3.4610633850097585,-1.8579025268554688,-0.8302879333496094,5.87359619140625,3.269172668457017,4.617027282714844,5.5085372924804545,-8.05703735351564,8.0,4.0,03-10,0.9464602470397917
01-11,-4.911008834838864,3.0741920471191406,1.4169731140136648,0.5308074951171946,3.959430694580078,-1.1834220886230469,-1.2256889343261719,5.929756164550781,3.0608596801757955,3.8757095336914062,5.939659118652344,-14.25795745849608,8.0,4.0,03-11,0.5174425443013536
01-12,-5.0522766113281214,3.0573291778564453,1.0918922424316406,1.7606315612792969,3.880260467529297,-1.6352195739746094,-1.5843009948730469,5.911125183105469,2.7006378173828125,4.4657135009765625,8.20758056640625,-11.74142456054689,8.0,4.0,03-12,0.9218290646870922
01-13,-5.077085494995117,3.0068283081054688,0.02696990966796875,1.9876861572265696,3.889141082763672,-1.6533012390136719,-1.4011917114257884,6.777519226074219,3.4336929321289062,4.686607360839844,8.442474365234375,-16.606056213378906,8.0,4.0,03-13,0.6261070569356283
01-14,-3.5474071502685547,3.1586437225341797,-0.12667465209960938,1.8661880493164134,3.86248779296875,-2.661396026611321,-0.8793563842773438,6.4774322509765625,3.547149658203125,4.416313171386719,8.462051391601577,-16.53691864013672,7.0,5.0,03-14,0.6698760986328148
01-15,-3.3208751678466832,3.6471385955810547,-0.4167137145996094,2.5733795166015625,3.579448699951172,-2.436382293701172,0.055255889892592336,7.494609832763679,3.3378982543945312,4.001182556152344,7.6330642700195455,-17.109779357910156,8.0,4.0,03-15,0.7531855901082384
01-16,-2.3845558166503906,2.7616004943847727,-1.035003662109375,2.617046356201172,3.5617713928222585,-3.240550994873047,-0.999420166015625,6.942684173583984,4.0131988525390625,4.001182556152344,7.730583190917983,-23.237991333007812,7.0,5.0,03-16,0.06087875366211056
01-17,-1.318124771118164,3.049102783203132,-1.344146728515625,2.617046356201172,3.279388427734375,-2.2312049865722656,-0.12691879272460938,7.803600311279297,4.0131988525390625,3.4240493774414062,7.137741088867202,-20.377449035644517,7.0,5.0,03-17,0.4938569068908721
01-18,-0.8278636932373047,3.184394836425774,-1.344146728515625,2.2605819702148438,3.2184295654296875,-1.7615814208984446,-0.2924346923828125,8.168506622314453,3.8806228637695312,3.2420425415039062,5.577842712402358,-27.139625549316406,7.0,5.0,03-18,-0.15276924769083658
01-19,0.48504638671875,3.184394836425774,-1.001953125,2.3925857543945384,3.3681869506835938,-1.300762176513679,0.02021026611328125,8.168506622314453,4.343536376953125,1.7987594604492188,7.442848205566406,-18.648788452148438,9.0,3.0,03-19,0.8543809254964186
01-20,0.48504638671875,3.5801410675048757,-0.5568122863769531,2.9745254516601562,3.5903587341308594,-1.8519439697265696,0.02021026611328125,8.438678741455085,5.470832824707031,2.72149658203125,7.335197448730469,-18.351554870605455,9.0,3.0,03-20,1.1546813646952316
01-21,-0.565048217773441,3.6465320587158203,0.14664840698242188,2.8174896240234375,4.336875915527344,-1.8519439697265696,-0.09879302978515625,10.155838012695312,5.426643371582031,2.5477294921875,7.677726745605469,-18.351554870605455,8.0,4.0,03-21,1.3240119616190593
01-22,0.172943115234375,3.299814224243171,0.4578285217285156,2.651599884033203,4.336875915527344,-1.6899528503417969,-0.72259521484375,8.365570068359375,4.408966064453125,2.3643035888671875,7.677726745605469,-18.391052246093736,9.0,3.0,03-22,1.0776689847310401
01-23,-0.30893135070801137,3.198331832885742,0.389129638671875,2.5468215942382884,4.522594451904297,-1.249603271484382,-0.22988128662109375,9.844047546386712,4.485076904296875,2.2296371459960938,6.760963439941406,-17.95983886718753,8.0,4.0,03-23,1.1856956481933558
01-24,0.49026679992675426,3.4181957244873047,0.4492340087890625,2.6685447692871094,3.919517517089851,0.46985626220703125,-0.34942626953125,10.48973083496093,3.4528961181640625,1.652496337890625,8.56089019775392,-24.02405548095703,10.0,2.0,03-24,0.9331789016723645
01-25,0.1828079223632777,2.7417354583740305,0.526233673095696,2.390331268310554,3.9636611938476562,0.7138404846191477,-0.2482757568359304,10.48973083496093,3.557044982910142,-1.1042327880859375,6.6337661743164205,-31.90253448486328,9.0,3.0,03-25,-0.1713242530822745
01-26,0.5733623504638636,2.7922458648681676,0.2781410217285156,1.8067893981933665,4.408016204833984,0.6867294311523438,-0.7264404296875,7.0929718017578125,3.9560317993164062,-1.97412109375,6.8213958740234375,-27.810684204101562,9.0,3.0,03-26,-0.17463016510009707
01-27,0.14126014709473012,2.6154384613037145,0.535266876220696,1.946960449218757,4.985675811767578,0.15361785888671875,0.08275604248046875,7.317543029785142,3.3288116455078125,0.7723007202148438,7.7315673828125,-25.71027374267578,11.0,1.0,03-27,0.325077056884765
01-28,-0.8060264587402344,2.5974769592285156,1.1507301330566406,2.435901641845696,4.985675811767578,-0.0903472900390696,0.818389892578125,6.990028381347656,3.6902313232421875,0.6468124389648438,7.809860229492173,-25.55176544189453,9.0,3.0,03-28,0.3897473017374651
01-29,0.8641929626464879,3.204713821411133,0.7213592529296875,2.3223953247070312,4.203601837158203,0.18975067138671875,-0.018390655517578125,4.201492309570298,4.118217468261719,0.6468124389648438,7.4183883666992045,-25.522048950195312,10.0,2.0,03-29,0.195873737335203
01-30,1.0636272430419922,3.3907394409179688,0.65264892578125,2.4533615112304688,4.256935119628906,-0.4698753356933594,0.06437301635742898,5.614471435546875,4.089691162109375,0.37650299072265625,7.398811340332017,-20.152107238769517,10.0,2.0,03-30,0.7282649676005052
01-31,0.7977180480957031,3.5344924926757812,1.3396453857421875,2.200164794921868,4.719047546386726,0.4246826171875,0.14712905883789062,5.801612854003906,3.870941162109375,0.6371612548828125,6.9192733764648295,-21.311294555664062,11.0,1.0,03-31,0.7567145029703765
02-01,0.9556007385253942,3.5344924926757812,0.7986259460449219,1.2223014831542898,4.5502166748046875,4.228759765624986,-0.01839065551758523,6.007484436035156,2.9483871459960938,1.4674224853515625,6.694168090820327,-16.60516357421875,10.0,2.0,04-01,1.3153254191080717
02-02,0.9140510559082031,3.0947990417480575,0.87591552734375,1.842193603515625,4.230289459228516,5.087181091308587,-0.01839065551758523,6.933868408203125,3.35736083984375,3.8905792236328125,7.692405700683594,-17.536483764648438,10.0,2.0,04-02,1.6969807942708333
02-03,0.8725070953369141,3.162445068359375,1.4856376647949219,1.1088218688964844,4.461349487304695,5.16846847534179,0.045978546142578125,5.221466064453125,3.0529937744140625,4.3925933837890625,7.212867736816392,-20.835716247558594,11.0,1.0,04-03,1.2791177431742338
02-04,1.1384143829345703,3.5936965942382812,1.8720741271972656,1.3096122741699219,3.937000274658203,4.52691650390625,0.27585983276366477,5.7735595703125,2.948387145996108,5.9662017822265625,7.457534790039077,-20.548400878906236,11.0,1.0,04-04,1.5209046999613474
02-05,2.22695159912109,3.779708862304691,1.4598846435546875,1.5366249084472727,3.6348304748535085,4.373310089111328,-0.14713287353515625,7.4579010009765625,3.224205017089858,6.111000061035156,6.2635574340820455,-21.459899902343764,10.0,2.0,04-05,1.5384117762247733
02-06,1.6536006927490199,3.813541412353519,1.8205451965332031,1.5366249084472727,3.3149032592773438,3.776958465576172,-1.0850639343261719,5.502212524414048,2.5964813232422017,5.715187072753906,5.754638671875,-21.182487487792983,10.0,2.0,04-06,1.1014285087585443
02-07,2.135549545288086,3.8811759948730575,1.803375244140625,1.5890083312988352,3.377105712890632,2.304119110107422,-0.2482757568359304,4.4073715209960795,3.1861572265625,5.6572723388671875,6.018882751464844,-22.302047729492173,10.0,2.0,04-07,0.9841411908467634
02-08,1.1799545288085938,4.016468048095714,1.47705078125,1.8072776794433594,3.181610107421875,1.816192626953118,-0.4965476989746094,4.631942749023423,2.4062652587890625,8.70794677734375,7.193290710449219,-14.901054382324219,10.0,2.0,04-08,1.7516997655232736
02-09,1.1799545288085938,3.788175582885742,1.7604331970214773,0.899261474609375,3.519306182861328,2.204742431640618,-0.21149063110351562,3.340614318847642,2.8152313232422017,6.120674133300781,7.134590148925781,-14.544387817382812,10.0,2.0,04-09,1.5005920728047677
02-10,2.1854171752929688,4.0756530761718714,1.1249542236328125,1.1350173950195312,3.5637359619140696,2.5571327209472585,-0.28506088256835227,3.5464553833007812,1.3030014038085938,7.0474700927734375,6.322288513183608,-14.544387817382812,10.0,2.0,04-10,1.5026397705078136
02-11,1.9693660736083984,1.9363479614257812,0.7556915283203125,1.5104331970214773,4.283596038818359,2.177623748779297,-0.2390899658203125,2.8353347778320455,2.339691162109375,9.769905090332031,7.1835098266601705,-14.79209136962892,10.0,2.0,04-11,1.6441931724548347
02-12,2.3765373229980504,2.4352302551269602,0.6955833435058594,0.8032341003417898,4.034763336181641,2.0782394409179688,-0.680469512939446,1.927642822265625,2.3682327270507812,9.316162109375,6.576713562011733,-13.464462280273438,10.0,2.0,04-12,1.5389506022135437
02-13,3.5897388458252024,2.739643096923821,0.12021636962890625,1.2921562194824148,3.6259613037109446,1.1655960083007812,-0.9838981628417969,3.1908798217773438,2.3682327270507812,2.442474365234375,6.106948852539091,-11.97830963134767,10.0,2.0,04-13,1.1399699846903495
02-14,4.0301399230957,2.8580284118652344,0.3263092041015625,1.3707427978515554,3.919231414794922,-0.04515457153321023,-1.6735610961914134,3.4061050415039062,2.9388809204101562,1.5349960327148438,7.721794128417983,-9.313163757324247,9.0,3.0,04-14,1.422862370808916
02-15,3.32382774353027,3.3907546997070312,0.3606681823730469,1.3008880615234375,3.3682289123535156,0.18975067138672586,-1.793102264404304,3.9675521850585938,3.5380706787109375,1.47705078125,8.191551208496094,-12.790748596191406,10.0,2.0,04-15,1.2103743553161619
02-16,3.6229686737060547,3.3907546997070312,0.3692626953125,1.52789306640625,1.4574813842773438,0.9487686157226562,-2.0689659118652415,3.9675521850585938,1.9307098388671875,0.8881759643554688,8.162178039550781,-11.136184692382798,10.0,2.0,04-16,1.0883828798929855
02-17,3.6229686737060547,3.6528892517089844,0.13740921020507812,1.1000709533691406,1.8751678466796875,0.9487686157226562,-2.0689659118652415,4.510292053222656,1.8070831298828125,3.1375656127929688,7.8979339599609375,-14.197624206542969,10.0,2.0,04-17,1.0352965990702305
02-18,3.789154052734375,3.762786865234375,0.6354827880859304,1.5453529357910227,1.1197662353515625,0.9487686157226562,-2.602313995361328,4.819091796875,2.5489425659179688,4.8945770263671875,7.8979339599609375,-14.197624206542969,10.0,2.0,04-18,1.2634932200113933
02-19,2.301748275756836,3.9995460510253977,0.9446182250976562,1.7461662292480469,1.1197662353515625,1.364410400390625,-2.602294921875,5.9607086181640625,2.8342742919921875,4.392585754394517,7.8979339599609375,-13.94992065429689,10.0,2.0,04-19,1.334128538767495
02-20,1.952749252319336,3.9741973876953125,1.4426994323730398,1.7287025451660227,2.4350624084472656,1.4005622863769531,-3.0620689392089915,6.391113281249986,2.81524658203125,4.392585754394517,7.2030792236328125,-12.959175109863281,10.0,2.0,04-20,1.4762295087178519
02-21,2.1189346313476527,3.855815887451172,1.4426994323730398,1.7287025451660227,2.0795783996582102,1.7439002990722656,-3.1815834045410156,6.222702026367173,2.81524658203125,5.261451721191392,4.482360839843764,-8.956489562988281,10.0,2.0,04-21,1.6344432830810538
02-22,2.7670822143554723,3.957286834716797,1.4426994323730398,1.7723541259765696,2.0084800720214773,2.448692321777351,-3.264354705810547,6.522140502929673,3.1290817260742188,4.045051574707031,6.028656005859361,-2.2490310668945312,10.0,2.0,04-22,2.3840115865071594
02-23,2.584270477294922,4.092575073242195,2.0352401733398366,1.2048606872558736,2.986076354980476,2.9366340637207102,-3.1172218322753906,6.4566497802734375,3.5190658569335938,3.330657958984375,7.2128753662109375,-3.0614471435546733,10.0,2.0,04-23,2.5150197347005245
02-24,1.7699356079101562,3.762798309326172,3.0485572814941406,1.4493255615234446,3.6081771850585938,2.5571212768554688,-3.1448326110839844,5.48345947265625,3.4524459838867188,3.446502685546861,8.318771362304688,-2.88311767578125,10.0,2.0,04-24,2.572428703308105
02-25,1.4707927703857528,4.008003234863274,2.8596267700195312,0.8992767333984446,4.134857177734375,2.34930419921875,-2.7310333251953196,3.9675979614257812,3.6331863403320312,2.3169784545898438,8.201347351074219,-0.6340866088867188,10.0,2.0,04-25,2.5396542549133305
02-26,1.8364124298095703,3.982654571533203,2.6876678466796804,0.8905105590820312,3.814922332763672,2.0420799255371094,-3.0528907775878835,5.941993713378906,4.0421600341796875,2.2880325317382812,8.44601440429686,1.6050338745117188,11.0,1.0,04-26,2.8770492871602364
02-27,1.8447303771972656,3.5852622985839844,3.3081398010253835,1.7583808898925852,2.979522705078125,1.6716079711913991,-2.372406005859375,5.248268127441392,4.622291564941406,3.52374267578125,8.348136901855469,2.595794677734375,11.0,1.0,04-27,3.092789332071938
02-28,3.3242378234863317,3.245868682861328,3.5580558776855398,2.1774559020996165,2.2050247192382812,0.87646484375,-3.154914855957024,6.103027343749986,4.5937652587890625,3.600982666015625,7.555389404296875,3.0218353271484375,11.0,1.0,04-28,3.092266082763672
02-29,0.0,0.0,0.0,2.1512641906738352,0.0,0.0,0.0,6.131195068359361,0.0,0.0,0.0,8.9168701171875,3.0,0.0,04-29,1.4332774480183914
03-01,3.13216590881348,3.4579925537109375,4.16777038574218,1.5557327270507812,1.9264640808105469,1.6717796325683594,-3.164154052734375,5.391944885253906,3.11956787109375,4.131927490234375,10.383796691894517,7.8831634521484375,11.0,1.0,04-30,3.638179302215575
03-02,3.7918910980224645,3.2043075561523438,4.193534851074219,1.5829200744628906,1.9529342651367259,1.8714027404785156,-3.3765907287597656,5.476165771484361,2.834259033203125,3.64923095703125,9.502975463867188,6.789833068847656,11.0,1.0,05-01,3.4560720125834146
03-03,4.007936477661133,2.9252777099609375,3.3698196411132955,1.2065162658691406,2.6224517822265625,2.1435928344726562,-2.8156661987304688,4.1076202392578125,4.051673889160156,2.9927597045898438,9.777908325195312,7.602256774902344,11.0,1.0,05-02,3.499345620473227
03-04,3.5924587249755824,3.5786361694335938,4.031333923339844,1.3467826843261719,2.06005859375,1.7640914916992116,-2.5673904418945312,0.26876068115234375,4.183860778808594,3.0313720703125,11.319412231445312,2.9654922485351562,11.0,1.0,05-03,2.964572429656981
03-05,4.465961456298825,2.401294708251946,4.504791259765618,1.2240524291992188,1.7045745849609375,1.6014366149902344,-2.468219757080078,1.32916259765625,4.6326446533203125,2.0852737426757812,11.4564208984375,3.4117050170898295,11.0,1.0,05-04,3.0290915171305315
03-06,4.398078918457035,2.8428421020507812,4.116992950439446,2.2630157470703054,1.1891212463378977,1.5554122924804688,0.059436798095703125,0.295928955078125,4.871360778808594,1.72808837890625,12.415519714355483,-0.8119354248046733,11.0,1.0,05-05,2.9103218714396184
03-07,5.1402740478515625,2.7155532836914062,3.694732666015618,2.2368316650390554,1.1718711853027415,1.1107139587402415,0.059051513671882105,0.11749267578125,5.042564392089844,2.3362884521484375,13.199073791503906,5.649963378906236,12.0,0.0,05-06,3.5395342508951817
03-08,5.131925582885742,1.8500785827636719,2.011585235595703,1.556896209716804,0.8801422119140625,1.318756103515625,-0.8276176452636719,0.052001953125,4.595550537109375,1.1295242309570312,13.456237792968736,4.407539367675753,11.0,1.0,05-07,2.963551680246986
03-09,5.340700149536133,2.086841583251953,2.3894195556640625,0.3480873107910085,0.8626861572265625,0.9830436706542969,-0.7352485656738281,-0.00415802001953125,5.5787506103515625,1.3419113159179688,13.088050842285156,3.7117843627929545,10.0,2.0,05-08,2.915989081064858
03-10,4.501428604125977,1.9938163757324219,3.0060958862304688,0.18175125122069602,0.9251861572265625,1.0828437805175781,-0.3398475646972656,0.9146499633789062,5.181297302246094,1.9501266479492188,12.057113647460938,1.1952514648437642,11.0,1.0,05-09,2.7208094596862797
03-11,4.642696380615234,0.9673271179199219,2.834075927734368,0.357074737548821,1.2108383178710938,1.5346412658691406,0.018764495849609375,0.7376327514648438,5.792289733886719,1.2526321411132812,12.076744079589844,6.059883117675781,12.0,0.0,05-10,3.123716672261555
03-12,3.618841171264652,0.0680084228515625,3.4639511108398438,0.29571151733397727,1.2019577026367188,1.5527229309082031,-0.25751113891602273,1.4965362548828125,5.763633728027344,2.415130615234375,11.841850280761719,11.302963256835938,11.0,1.0,05-11,3.5636496543884264
03-13,3.4037036895751953,1.950550079345696,3.5932235717773438,-0.4114799499511719,1.2286109924316406,2.5565223693847656,0.3132591247558594,1.9943618774414062,6.136024475097656,2.6854248046875,11.822273254394517,11.378860473632798,11.0,1.0,05-12,3.887611230214434
03-14,3.2197685241699183,1.9759941101074148,2.9124374389648438,-0.45514678955078125,0.6489601135253906,2.1314239501953196,-0.41358184814453125,1.7595672607421875,6.34527587890625,3.100555419921875,10.253257751464844,18.59764099121095,10.0,2.0,05-13,4.1730127334594735
03-15,3.2782249450683594,2.3917770385742116,3.5307273864746094,-0.9620742797851634,0.9265594482421946,2.5505142211914062,0.0020446777343821054,0.898651123046875,5.669975280761719,3.701873779296875,10.685768127441406,16.25193786621095,11.0,1.0,05-14,4.077164967854819
03-16,2.4514846801757812,2.1042747497558523,3.8398704528808594,-0.9888992309570312,0.5957145690917969,2.0877532958984446,0.7594223022460938,0.5337448120117188,5.5926361083984375,4.311752319335952,9.254364013671875,14.731216430664062,11.0,1.0,05-15,3.7727778752644867
03-17,1.9612236022949219,1.9689826965332102,4.503707885742195,-1.787181854248054,0.8813705444335938,1.8972206115722656,0.9249382019042969,0.6207427978515625,5.402008056640625,3.60394287109375,9.431106567382812,6.240379333496094,11.0,1.0,05-16,2.9707034428914394
03-18,0.6483135223388672,1.8493919372558594,3.8591651916503906,-2.30438232421875,1.211669921875,1.4364013671875,0.6122932434082031,0.3470611572265625,4.87017822265625,2.373626708984375,9.686370849609375,5.943145751953111,11.0,1.0,05-17,2.5444362958272286
03-19,0.6838188171386719,0.9656906127929616,3.5346832275390554,-2.7076454162597656,0.9894981384277344,1.9875831604003906,1.7101402282714844,0.292449951171875,5.02294921875,3.7686309814453267,9.794021606445312,3.872589111328139,11.0,1.0,05-18,2.492867469787599
03-20,1.0907039642333984,1.4235610961914062,2.741851806640625,-2.5417556762695312,0.24298095703125,1.4423980712890625,2.077911376953125,-1.5860977172851562,4.535942077636719,3.9423980712890767,9.451492309570312,9.22955322265625,10.0,2.0,05-19,2.6709116299947113
03-21,0.2861289978027344,0.6514015197753906,3.801830291748047,-2.4369773864746165,0.5003166198730398,1.5062599182128835,2.3556594848632812,-1.7270126342773438,5.553619384765625,4.125823974609389,8.749618530273423,20.364242553710923,10.0,2.0,05-20,3.6442426045735647
03-22,0.5032520294189453,0.6004867553710938,3.8705291748046875,-3.1918983459472656,0.9644126892089844,2.4568748474121023,2.7528114318847656,-2.3726959228515625,5.477508544921875,5.457221984863281,10.09914398193358,19.946792602539062,10.0,2.0,05-21,3.8803699811299626
03-23,0.3195228576660156,0.38062286376953125,3.8104248046875,-3.8307876586914134,1.1687812805175781,1.7128257751464773,2.1709251403808594,-2.4381942749023438,5.048988342285156,6.867637634277344,8.707069396972656,20.62267303466797,10.0,2.0,05-22,3.7117074330647775
03-24,0.6269817352294922,1.0570831298828054,3.47479248046875,-3.6269264221191406,1.1062965393066406,1.903369903564446,2.0697746276855398,-2.1120986938476562,5.772674560546875,5.913414001464844,9.139083862304702,16.53082275390625,10.0,2.0,05-23,3.487939039866129
03-25,0.23642730712890625,0.1652374267578125,3.207141876220703,-3.6006278991699148,0.7670745849609375,1.93048095703125,2.5479393005371094,-2.5221176147460938,6.23101806640625,5.864959716796861,8.815071105957017,14.430412292480469,10.0,2.0,05-24,3.1727514266967756
03-26,-1.0681724548339844,-0.23272705078125,2.439960479736328,-3.1973800659179616,0.18941497802734375,2.463592529296875,2.5479393005371094,-3.0293350219726562,6.565238952636719,5.990882873535142,7.9048995971679545,8.466018676757798,8.0,4.0,05-25,2.420027732849118
03-27,-1.002933502197262,-0.7320404052734446,2.362396240234368,-3.083873748779297,0.02057266235350852,2.3551788330078054,1.8652763366699148,-1.5358657836914062,6.7562255859375,6.116371154785142,7.826606750488281,11.321563720703125,8.0,4.0,05-26,2.68912315368652
03-28,-0.09743881225585938,-1.0205345153808665,2.8708419799804688,-3.2148399353027344,-0.4326972961425781,1.7403526306152415,0.999195098876946,-1.5640716552734375,6.328239440917969,5.846046447753892,7.170883178710923,4.9113616943359375,7.0,5.0,05-27,1.9614448547363252
03-29,0.6958923339843714,-0.7320404052734446,2.9395523071289062,-3.188640594482422,-0.023571014404296875,0.15033340454102273,0.5096778869628835,-1.7512130737304688,6.3567657470703125,4.4269027709960795,6.788604736328125,9.334403991699219,8.0,4.0,05-28,2.125555674235024
03-30,-0.08073806762694957,-0.8757934570312571,2.2525558471679688,-3.057647705078125,-0.4431304931640625,0.11401748657227273,0.9807167053222585,-1.9570846557617188,6.527961730957031,6.20306396484375,5.467292785644517,12.316230773925781,7.0,5.0,05-29,2.2872870763142887
03-31,-0.23862075805664062,-0.5460243225097727,1.8145904541015625,-3.6529197692871094,-0.21995925903320312,0.12310791015626421,1.1462364196777344,-1.6576461791992188,7.130043029785156,6.2515106201171875,5.437843322753906,13.247550964355469,7.0,5.0,05-30,2.402976036071778
04-01,-0.19707107543944957,-0.6728553771972727,1.1874504089355469,-3.5652542114257812,-0.3984947204589844,-0.7353134155273366,1.0266990661621094,-2.2187957763671875,7.85369873046875,5.5055694580078125,5.2414703369140625,16.546783447265625,6.0,6.0,05-31,2.464490572611491
04-02,-1.7935371398925781,0.36280059814453836,1.0937232971191406,-4.3016357421875,-0.6295547485351634,-0.8166007995605398,1.4957084655761719,-1.3834991455078125,8.016021728515625,6.135253906249986,5.721008300781264,15.661979675292983,7.0,5.0,06-01,2.4634723663330096
04-03,-1.400674819946289,0.2864227294921946,2.102001190185547,-4.528648376464851,-0.10520553588867188,-0.028949737548828125,0.6192016601562358,-1.2707595825195312,8.464828491210938,4.561645507812486,5.4763412475585795,17.395149230957017,7.0,5.0,06-02,2.630946000417069
04-04,-0.43196678161621094,-0.39237594604491477,0.9989471435546875,-4.1183013916015625,0.7340354919433594,0.7489509582519602,0.739276885986321,-1.3177337646484375,8.189010620117188,4.416847229003892,5.655067443847656,10.915641784667969,8.0,4.0,06-03,2.1781166394551588
04-05,0.1442413330078125,0.27794265747071734,0.6382865905761719,-3.0241241455078125,0.7852821350097656,1.2275161743164062,0.7854576110839773,-0.22289276123046875,8.816734313964844,2.1619644165039062,4.7930755615234375,11.561706542968764,10.0,2.0,06-04,2.3287658691406268
04-06,0.09413909912109375,0.21030807495117898,0.65545654296875,-3.2176513671875,0.6347122192382812,0.9734573364257812,0.9609451293945312,-0.4474639892578125,9.5823974609375,4.432167053222656,5.294609069824219,12.764373779296875,10.0,2.0,06-05,2.6614542007446294
04-07,1.049734115600586,0.07501602172852273,1.0414581298828125,-3.252696990966797,0.3936882019042969,0.9280815124511719,1.2092170715332102,0.2735443115234375,10.001091003417969,4.13653564453125,6.953948974609389,12.407707214355469,11.0,1.0,06-06,2.934777100880943
04-08,0.418207168579098,-0.22109603881835938,0.8328704833984375,-3.0949172973632812,-0.3204536437988281,0.5395317077636719,0.9241600036621165,0.123291015625,8.848464965820312,4.194656372070327,8.338356018066406,9.445327758789077,9.0,3.0,06-07,2.5023665428161648
04-09,-0.4042320251464808,-1.9668846130371094,0.5820198059082031,-2.06048583984375,-0.3648834228515696,0.18714141845703125,0.8037109375,0.0199737548828125,8.495155334472656,4.184974670410156,9.15065765380858,5.181434631347685,8.0,4.0,06-08,1.9840485254923512
04-10,-0.2064952850341797,-2.416351318359361,0.8577728271484375,-1.3532867431640625,-1.0847434997558594,0.9927024841308594,0.9890937805175781,0.39569091796875,8.695693969726562,1.4625396728515625,8.289436340332017,11.308349609375,8.0,4.0,06-09,2.327533562978109
04-11,0.05238533020019531,-2.4333152770996094,0.625091552734375,-1.8422088623046875,-0.8428192138671804,2.4135017395019602,0.5547447204589844,0.611724853515625,8.667152404785156,1.9162826538085938,10.72640991210936,11.487258911132812,9.0,3.0,06-10,2.661350727081299
04-12,0.27786254882812855,-2.755754470825199,1.2004585266113281,-2.0504722595214844,0.3153839111328125,2.09771728515625,0.924205780029304,0.3964996337890625,9.323417663574219,0.832794189453125,11.749588012695312,10.383987426757812,10.0,2.0,06-11,2.7246406873067226
04-13,0.5367431640625,-2.874139785766612,0.9943656921386719,-1.280517578125,1.8269538879394531,2.0069694519042898,1.0073204040527344,-0.164947509765625,9.312217712402344,1.1913986206054688,13.437057495117188,9.559013366699219,9.0,3.0,06-12,2.9627029101053863
04-14,1.2430553436279297,-3.406866073608409,1.3737030029296875,-1.9986953735351634,1.5234298706054688,1.5260696411132741,1.126861572265625,-0.3424835205078125,8.296073913574219,-0.1596527099609233,12.808670043945298,7.904449462890611,8.0,4.0,06-13,2.4912179311116502
04-15,0.9439144134521449,-3.057270050048828,0.2981719970703196,-1.47271728515625,0.8092765808105469,0.7670516967773438,1.4027252197265625,-0.70599365234375,8.095550537109375,0.16004180908203125,11.866081237792969,10.965888977050781,9.0,3.0,06-14,2.506060123443604
04-16,3.2984123229980575,-3.0303382873535156,1.7526397705078125,-1.8233680725097727,0.3915901184082031,0.4327278137207031,1.8922958374023509,-2.3953094482421875,8.802177429199219,0.32471466064453125,12.130325317382812,2.7091751098632812,9.0,3.0,06-15,2.0404202143351244
04-17,3.755401611328125,-3.2083282470703125,1.8819122314453125,-2.024181365966797,1.1469917297363281,-0.17453384399414062,1.8638877868652415,-2.71466064453125,8.8690185546875,-1.4322967529296875,14.009384155273423,2.732513427734375,7.0,5.0,06-16,2.0587590535481763
04-18,3.8437786102294993,-2.215557098388672,1.0115165710449219,-2.0067176818847727,2.6449623107910085,-0.35410308837891336,1.605133056640625,-2.8274002075195312,8.583686828613281,-0.930305480957017,12.626602172851562,-1.1808319091796875,6.0,6.0,06-17,1.7333970069885254
04-19,3.584905624389652,-1.7997779846191406,0.5134353637695384,-1.6996994018554688,1.9685401916503906,-1.0527725219726634,2.1870269775390625,-2.6589889526367188,8.602714538574219,0.37480926513671875,11.30337524414061,0.7871627807617188,8.0,4.0,06-18,1.84256092707316
04-20,3.7185173034668004,-1.681396484375,-0.19933319091796875,-2.1016845703125,1.7201080322265554,-0.4266815185546946,2.103893280029304,-2.9584274291992188,8.326820373535156,0.7804641723632812,11.381919860839858,0.3100738525390625,7.0,5.0,06-19,1.7478561401367196
04-21,3.070369720458981,-1.782867431640625,-0.4481201171875,-1.2448272705078196,1.8986434936523366,-0.66259765625,2.1866645812988352,-1.6758270263671875,7.8977813720703125,0.7898635864257955,10.714256286621094,1.1224899291992045,7.0,5.0,06-20,1.8221524556477855
04-22,3.2531814575195312,-2.087749481201172,-0.5515365600585938,-1.4113807678222727,1.2380409240722585,-1.1505393981933594,2.039531707763679,-2.8460540771484375,8.366828918457031,0.2183074951172017,10.63571929931642,0.9441604614257812,7.0,5.0,06-21,1.5540424982706724
04-23,2.7373695373535156,-2.1806869506835866,-0.4050254821777344,-1.5779304504394602,0.6159400939941406,-0.7710266113281179,2.4092369079589773,-1.3149948120117188,8.500518798828125,0.5961227416992472,9.52982330322267,2.2918548583984375,7.0,5.0,06-22,1.7026001612345414
04-24,2.321546554565426,-2.545551300048828,0.15511322021484375,-1.5691642761230469,0.08926010131835938,-0.3621063232421804,2.105876922607422,-1.2586288452148438,8.605545043945312,1.7256469726562642,9.64724731445314,3.7898406982421733,8.0,4.0,06-23,1.8920521736145035
04-25,1.4948196411132812,-3.4789237976074148,-0.02584075927734375,-2.437034606933601,-0.7587623596191406,-0.2086639404296875,2.5030174255371094,-0.6668853759765625,8.196571350097656,1.7545928955078267,10.519554138183608,-4.641708374023452,5.0,7.0,06-24,1.0208946863810233
04-26,1.6534862518310547,-3.826801300048828,-0.6463127136230469,-2.9542617797851562,-0.3213691711425781,-0.4627647399902344,2.207466125488274,-1.5216445922851562,7.6164398193359375,0.1372222900390625,8.169349670410156,-4.751045227050781,5.0,7.0,06-25,0.44164705276489197
04-27,1.678537368774414,-3.487407684326172,-0.8962287902832031,-2.691257476806655,-0.4641876220703196,-0.8166427612304688,1.5332183837890554,-1.5498123168945312,7.967628479003906,-0.49185943603515625,7.678108215332031,-6.241950988769531,4.0,8.0,06-26,0.18484544754028084
04-28,1.8706092834472656,-3.6995315551757812,-1.3271141052246165,-3.3312034606933594,-0.4374237060546946,-0.4627647399902344,1.5424575805664062,0.7983779907226562,6.5123748779296875,-0.9664154052734375,9.916725158691406,-5.208244323730469,5.0,7.0,06-27,0.4339872996012358
04-29,1.2108840942382812,-4.531082153320305,-1.5856590270996094,-3.4451560974121094,-0.34814834594727273,-0.6623878479003906,1.7548942565917969,0.7044677734375,7.075775146484375,-0.45299530029296875,8.129768371582031,-4.1149139404296875,5.0,7.0,06-28,0.31128724416097003
04-30,1.611730575561527,-3.6486282348632812,-1.5425491333007812,-3.313671112060547,-1.0176658630371094,-0.9345779418945312,2.0412254333496094,-2.1133880615234375,6.340507507324219,-1.0439224243164062,7.854835510253906,0.516845703125,5.0,7.0,06-29,0.39589516321818063
05-01,2.2297039031982457,-3.7589263916015625,-1.0427398681640625,-3.453937530517578,-0.4552726745605469,-0.7984924316406321,0.3971519470214844,-1.0895538330078125,6.875251770019531,-1.0825347900390625,6.313331604003906,1.5704193115234375,5.0,7.0,06-30,0.47536675135294565
05-02,2.0543365478515625,-4.632904052734368,-0.6807861328125,-3.331207275390625,-0.16960906982422586,0.29943084716796164,-0.20318603515625,-0.12210845947265625,6.4264678955078125,-0.13643646240234375,8.394859313964844,2.4252166748046733,5.0,7.0,07-01,0.8603394826253238
05-03,2.0376281738281286,-4.963825225830078,-0.2929878234863281,-3.7695274353027415,-0.6962890625,0.24499130249023438,-0.17548370361329546,0.9111251831054688,6.187751770019531,1.8446807861328125,10.299636840820327,5.138679504394517,7.0,5.0,07-02,1.397198359171548
05-04,2.0376281738281286,-4.836536407470703,0.1292724609375,-2.340625762939453,-0.10711669921875,0.6986923217773438,-0.17548370361329546,1.0895614624023438,4.8699798583984375,1.3931808471679545,9.082168579101562,5.138679504394517,8.0,4.0,07-03,1.4149500528971322
05-05,2.045976638793949,-3.9710617065429688,0.5946235656738281,-2.226665496826172,-0.10711669921875,0.6986923217773438,0.7111854553222585,0.6199264526367188,4.373405456542969,0.871864318847642,9.082168579101562,6.381103515625,9.0,3.0,07-04,1.5895085334777816
05-06,1.8372020721435582,-3.0037612915039062,0.9307136535644602,-1.5867156982421875,-0.24102020263671875,1.0344047546386719,0.6188163757324148,2.6769332885742188,4.153785705566406,1.0753173828125,8.36541748046875,7.076858520507798,9.0,3.0,07-05,1.9114960034688304
05-07,2.480232238769535,-2.3079662322998153,0.8531570434570312,-0.9292411804199219,-0.30352020263671875,0.9346046447753906,0.7850875854492188,2.4609298706054688,4.363868713378906,1.4628143310546875,9.396354675292969,6.967521667480469,9.0,3.0,07-06,2.180320262908935
05-08,1.9123554229736364,-3.5043869018554688,0.7842292785644531,-1.1045646667480469,-0.58917236328125,0.036281585693359375,0.5818748474121094,2.0382614135742188,4.564384460449219,2.160308837890625,9.376724243164062,7.394920349121108,9.0,3.0,07-07,1.9709347089131688
05-09,1.7202873229980504,-4.089851379394531,1.65460205078125,-1.0432014465332031,-0.07140731811523438,0.34481048583983664,0.720428466796875,2.0570449829101562,4.593040466308594,0.9978103637695312,12.685554504394531,8.89577484130858,9.0,3.0,07-08,2.372074445088703
05-10,1.2275829315185618,-3.0970840454101562,1.52532958984375,-0.9379844665527415,0.1160583496093679,-0.9799423217773438,1.145294189453132,1.5592193603515625,4.220649719238281,0.7265396118164062,10.810226440429673,8.786437988281236,9.0,3.0,07-09,2.0918606122334773
05-11,1.0939731597900426,-3.122528076171875,2.20611572265625,-1.6919097900390554,0.8212623596191335,-1.1432762145996023,0.3509712219238281,1.7940139770507812,4.56439208984375,-0.2034454345703267,10.98696136474608,6.5798873901367045,8.0,4.0,07-10,1.853034814198809
05-12,1.0355167388916016,-3.538311004638672,1.61151123046875,-2.2880096435546804,1.6246833801269531,-1.0706901550292969,-0.06465530395508523,0.8077850341796875,5.404716491699219,1.6759262084960938,11.065505981445327,8.925590515136705,8.0,4.0,07-11,2.0991307894388833
05-13,1.8622570037841797,-2.7407188415527344,1.637359619140625,-2.507171630859368,1.8835678100585938,-0.6079292297363352,-0.8220329284667969,2.6487808227539062,5.414253234863281,2.6543655395507812,10.584396362304688,10.446311950683594,8.0,4.0,07-12,2.5377866427103677
05-14,1.4196624755859268,-1.3406448364257812,0.47397613525391336,-2.717559814453118,1.5979118347167969,-0.41739654541015625,-1.66253662109375,2.6299972534179688,5.290107727050781,2.23779296875,10.40765380859375,11.231529235839844,8.0,4.0,07-13,2.429207801818848
05-15,1.720296859741211,-1.8158340454101491,0.40503311157227273,-2.200359344482422,1.2676124572753906,0.254077911376946,-1.4039115905761719,2.8272247314453125,6.063591003417969,3.468109130859375,10.152389526367188,13.368492126464858,9.0,3.0,07-14,2.8422268231709817
05-16,1.9373970031738317,-0.4072914123535085,0.284374237060554,-1.7970962524414062,2.4548721313476562,0.19056320190429688,-1.2930831909179616,2.658172607421875,5.910820007324219,2.0731048583984233,9.730178833007812,9.223762512207045,9.0,3.0,07-15,2.580481211344403
05-17,1.9457645416259766,-0.4666938781738281,1.0772056579589844,-0.9555206298828125,2.303142547607422,-0.0816650390625,-1.5886459350585938,4.536720275878906,6.3978271484375,2.3734283447265625,9.455261230468764,12.086311340332045,8.0,4.0,07-16,3.090261300404869
05-18,3.340364456176758,0.3054656982421875,0.0172271728515625,0.12273788452148438,2.4102516174316406,0.172393798828125,-1.5886459350585938,4.677635192871094,6.197303771972656,1.2690582275390625,9.700721740722656,13.666679382324247,11.0,1.0,07-17,3.3575994173685735
05-19,3.123241424560547,0.3563804626464844,-0.4050407409667969,-0.8065185546875,2.115673065185547,-0.2540626525878906,-1.9857978820800781,5.015785217285156,6.751136779785156,-0.6975250244140625,9.93637084960936,14.084129333496108,7.0,5.0,07-18,3.1028143564860025
05-20,3.3069705963134766,1.4933967590332031,0.12066650390625,-0.6487083435058452,2.071044921875,0.4899864196777344,-1.4039115905761719,4.3112945556640625,6.6365509033203125,0.6103057861328267,10.29965209960936,13.408248901367202,10.0,2.0,07-19,3.391291459401451
05-21,4.175468444824215,0.9503479003906179,0.060321807861328125,-0.21915435791014914,2.1335296630859375,0.2994422912597656,-0.5726470947265554,4.809135437011719,6.5887908935546875,0.5909347534179688,9.867637634277315,12.076377868652358,10.0,2.0,07-20,3.3966821034749337
05-22,3.7245140075683594,0.9757919311523509,1.7063102722167898,-0.245452880859375,2.4727516174316406,-0.8075408935546946,-0.526458740234375,4.5367431640625,6.923011779785156,0.6393890380859517,10.191650390625,14.21335601806642,9.0,3.0,07-21,3.650338808695477
05-23,3.4990444183349645,1.433990478515632,1.3012542724609446,-0.6487007141113281,2.80303955078125,0.05444717407227273,-0.00925064086913352,5.1754608154296875,6.5887908935546875,0.5134658813476705,11.193153381347656,9.680976867675781,10.0,2.0,07-22,3.4654726982116735
05-24,3.3153076171875036,1.4170265197753977,1.3788185119629048,-0.30681610107421875,2.999420166015618,-0.4990425109863281,-0.8220405578613281,3.6819915771484375,6.397804260253906,2.228118896484375,10.280021667480483,8.577705383300781,9.0,3.0,07-23,3.2206929524739607
05-25,3.423894882202152,1.7055206298828196,0.870372772216804,-0.4383277893066406,2.829814910888672,-2.0143394470214773,-0.8959197998046875,3.7101974487304688,5.299644470214844,1.6468658447265625,10.073829650878892,8.895759582519531,9.0,3.0,07-24,2.9256094296773285
05-26,3.423894882202152,1.4170265197753977,1.0168991088867188,-0.8152732849121094,2.767333984375,-2.0687904357910227,-0.8959197998046875,3.2968673706054688,4.908172607421875,1.772796630859375,11.399330139160156,8.895759582519531,9.0,3.0,07-25,2.926508108774821
05-27,4.200525283813473,1.7733917236328125,0.6980514526367188,-1.7182121276855469,1.9906883239746094,-2.0687904357910227,-1.3669586181640625,3.1184158325195312,5.004600524902344,1.3950042724609375,10.201469421386719,5.913932800292969,9.0,3.0,07-26,2.4285098711649566
05-28,4.709922790527344,2.4098052978515625,-0.5773696899414062,-1.192230224609382,1.9906883239746094,-2.077880859375014,-1.874969482421882,2.8077011108398438,4.266685485839844,1.3756332397460938,10.201469421386719,6.798553466796861,8.0,4.0,07-27,2.4031674067179325
05-29,4.217218399047852,3.741943359375,-0.723876953125,-1.192230224609382,2.1692237854003906,-2.3409996032714773,-1.8657264709472585,3.1376953125,3.662933349609375,1.3756332397460938,10.397842407226562,7.414794921875,8.0,4.0,07-28,2.499537626902263
05-30,2.6950435638427734,3.614665985107422,-1.6632041931152415,-0.45584869384766336,0.9819564819335938,-2.8037452697753906,-2.0692939758300852,2.5908432006835938,3.662933349609375,0.7459487915039205,9.2392578125,8.378921508789077,8.0,4.0,07-29,2.0764565467834477
05-31,2.460254669189464,3.546783447265625,-1.6632041931152415,-0.753894805908196,1.0890617370605398,-3.0046234130859375,-1.2156944274902344,2.5908432006835938,3.2141265869140625,3.6327896118164062,11.01641845703125,6.9433441162109375,8.0,4.0,07-30,2.321350415547689
06-01,2.1667423248291016,3.546783447265625,-0.5601501464843821,0.34189605712890625,1.6902809143066406,-3.259815216064453,2.5420303344726562,2.6378173828125,1.9630050659179688,9.813385009765625,10.7120361328125,7.7010116577148295,10.0,2.0,07-31,3.274585247039793
06-02,1.5905342102050781,2.876464843749993,-0.6291046142578125,0.22790908813476562,1.6006278991699219,-3.7337379455566335,2.495849609375,2.1857757568359375,-3.556671142578125,8.369964599609375,9.95382690429689,7.054946899414034,9.0,3.0,08-01,2.3696988423665353
06-03,1.6406364440917969,2.7152481079101562,0.10351943969727273,-0.18410873413085938,1.6006278991699219,-3.4796791076660085,2.320362091064446,1.195343017578125,-4.420806884765625,8.632392883300795,7.206535339355469,5.852279663085923,9.0,3.0,08-02,1.9318625132242844
06-04,1.9007740020751953,4.065319061279283,0.5773086547851634,-0.8766441345214844,1.8416519165039062,-3.434303283691399,3.590576171875,0.5066986083984375,-2.906646728515625,8.632392883300795,5.547195434570298,6.0881271362304545,9.0,3.0,08-03,2.1277041435241686
06-05,2.1928443908691406,4.8306312561035085,-0.35742950439453125,-1.034423828125,2.5557937622070312,-4.6814422607421875,3.527141571044922,-0.1815338134765625,-3.15582275390625,8.574272155761719,4.162788391113281,2.134063720703125,7.0,5.0,08-04,1.547240257263183
06-06,2.571283340454105,4.753948211669915,-0.6343765258789062,-2.0688552856445312,3.4722328186035085,-5.180381774902351,3.5434722900390696,-0.172119140625,-2.8025131225585938,8.58395385742189,-2.2880096435546875,5.404556274414077,6.0,6.0,08-05,1.2652659416198746
06-07,2.747365951538086,4.890285491943352,-0.9101295471191406,-2.9542579650878906,3.34051513671875,-5.061424255371101,4.146568298339844,-0.5478363037109375,-3.0030517578125,9.767593383789062,-3.4943695068359233,5.364677429199219,6.0,6.0,08-06,1.190494696299235
06-08,2.4538745880126953,4.907249450683601,-0.6774482727050781,-2.0513381958007812,2.713653564453125,-5.435096740722663,4.96302795410157,-0.7638702392578125,-2.5829010009765625,10.449333190917969,-5.696403503417969,5.105476379394531,6.0,6.0,08-07,1.1154630978902187
06-09,2.228397369384762,5.22968864440919,-2.96917724609375,-1.5691795349121094,2.265380859375,-4.933818817138679,4.59356689453125,-0.67877197265625,-2.8594436645507812,10.401245117187472,-3.0968093872070312,6.208747863769531,6.0,6.0,08-08,1.234985510508217
06-10,1.9695167541503906,4.440742492675781,-2.1149063110351634,-1.3138313293457031,2.2922744750976562,-4.843070983886719,4.51045227050782,-1.2429962158203125,-2.2947540283203125,9.759757995605455,-1.1865158081054688,7.033721923828125,6.0,6.0,08-09,1.4175326029459623
06-11,1.00760269165038,4.093265533447273,-5.166168212890625,-1.4282875061035156,2.5957984924316406,-4.362171173095703,3.6034698486328054,-0.3052215576171875,-2.2947540283203125,9.186286926269517,-0.5581283569335795,13.68109130859375,6.0,6.0,08-10,1.6710653305053702
06-12,1.2088203430175781,4.2120628356933665,-3.23614501953125,-1.954265594482429,3.3099517822265625,-3.8538322448730398,4.177879333496087,-0.48433685302734375,-2.5439071655273438,8.866592407226562,0.38446044921875,14.16293334960939,7.0,5.0,08-11,2.0208511352539076
06-13,1.5500984191894496,3.709331512451172,-5.036338806152344,-1.6036148071289062,2.956127166748047,-3.4242172241210866,5.512641906738281,-0.25807952880859375,-3.2505340576171875,8.701919555664062,2.4596176147460938,11.870132446289062,7.0,5.0,08-12,1.9322570164998376
06-14,1.9861621856689382,2.5931129455566406,-5.165611267089844,-2.0422706604003977,2.9820480346679688,-2.9078216552734375,4.826072692871094,0.06127166748046875,-3.3173751831054688,9.092422485351562,1.315574645996108,11.610923767089844,8.0,4.0,08-13,1.752875804901123
06-15,2.145492553710934,1.600341796875,-4.295215606689453,-1.8930397033691477,2.9824295043945312,-2.7346534729003906,4.454925537109375,0.17401123046875,-4.227867126464844,7.556922912597656,0.2129516601562358,12.956787109375,8.0,4.0,08-14,1.577757199605304
06-16,2.4043655395507812,1.1845626831054688,-2.6851272583007812,-2.1206092834472656,3.0989837646484446,-2.0419998168945312,3.8730316162109375,-0.10820770263671875,-3.3567657470703125,6.681892395019531,1.3748931884765625,10.988792419433594,7.0,5.0,08-15,1.6078176498413093
06-17,2.270753860473633,1.4140625,-2.1319122314453125,-2.1293983459472656,3.063121795654304,-2.6680908203125,3.956165313720696,-0.4575347900390625,-3.3827590942382812,7.245635986328125,-0.7225112915039205,11.46588134765625,6.0,6.0,08-16,1.4936178525288888
06-18,2.6140480041503906,1.2778358459472585,-1.7418212890625,-1.7860183715820312,2.8845863342285227,-2.4321746826171946,3.7632598876953125,-1.7258834838867188,-3.5360794067382812,6.623558044433594,-0.05484771728515625,11.815048217773423,6.0,6.0,08-17,1.4751259485880517
06-19,2.244792938232429,1.6512680053710938,-2.1226348876953054,-1.6194648742675781,3.545188903808601,-2.958332061767578,4.5241470336914205,-2.0464248657226562,-2.7694244384765625,7.1951141357421875,0.02368927001951704,11.178833007812528,7.0,5.0,08-18,1.5705626805623414
06-20,2.3842411041259766,2.3073616027832102,-2.30438232421875,-1.4529151916503906,3.692626953125,-2.7671585083007812,4.534324645996087,-1.45245361328125,-2.9031143188476562,6.817298889160142,-1.1174087524414205,10.989273071289091,6.0,6.0,08-19,1.5606411298116047
06-21,2.5184230804443395,2.2306671142578196,-2.864521026611328,-0.21567535400390625,4.0322113037109375,-2.2030487060546804,4.29309844970701,-1.508819580078125,-3.0081405639648438,8.629928588867202,1.1954040527343608,10.62039947509767,7.0,5.0,08-20,1.9766605695088713
06-22,2.7951545715331996,3.1640396118164062,-2.6835670471191406,-0.7681083679199148,4.165912628173828,-1.7929229736328125,3.6250457763671804,-2.1005630493164062,-4.19708251953125,10.144699096679702,1.754974365234375,10.430992126464844,7.0,5.0,08-21,2.0448811848958344
06-23,2.636487960815426,3.5119171142578196,-3.878936767578125,0.07326889038085938,4.255561828613274,-2.139251708984375,3.9205970764160156,-2.83892822265625,-4.158821105957031,10.677825927734375,0.43548583984375,10.540328979492173,8.0,4.0,08-22,1.919627984364826
06-24,2.6114368438720668,3.1362724304199148,-3.230579376220696,-0.10284042358397727,3.861072540283203,-1.7853736877441406,4.594844818115234,0.2980804443359375,-5.1159820556640625,11.095771789550781,0.87860107421875,12.031234741210923,8.0,4.0,08-23,2.3560449282328277
06-25,2.0688667297363317,2.9671401977539062,-3.5751953125,0.3110046386718679,3.834308624267578,-2.139251708984375,3.786914825439446,2.6192169189453125,-4.512245178222656,10.988861083984375,-1.360015869140625,10.241722106933608,8.0,4.0,08-24,2.102610588073731
06-26,2.0199375152587855,2.2105560302734375,-2.5885467529296875,0.4249572753906179,3.7450332641601562,-1.9026031494140696,3.175384521484375,2.8455047607421875,-5.000984191894531,10.475440979003906,0.42694091796875,10.371688842773438,9.0,3.0,08-25,2.1836091677347804
06-27,1.5518379211425781,1.6311378479003906,-2.207744598388672,0.2934722900390554,3.9619522094726562,-2.8202896118164062,2.5042533874511648,3.0717697143554688,-4.265716552734375,11.066368103027344,-0.6496734619140625,10.156936645507827,8.0,4.0,08-26,2.0245253245035806
06-28,1.5434608459472656,1.6993064880371094,-2.7075538635253906,0.187042236328125,4.364616394042969,-2.7291450500488352,1.938262939453118,2.0479354858398438,-4.8004608154296875,10.212997436523438,-3.6647415161132812,9.179939270019545,8.0,4.0,08-27,1.4393049875895183
06-29,1.2751102447509766,2.5732841491699148,-3.069507598876953,-0.004657745361328125,3.9102401733398366,-2.5104293823242188,3.0238189697265554,1.0804901123046875,-4.8881988525390625,10.429008483886719,-2.8772048950195312,9.648498535156264,7.0,5.0,08-28,1.5492043495178216
06-30,1.2918186187744105,2.904205322265625,-4.1156158447265625,-0.9175567626953125,2.726795196533203,-2.4739608764648438,2.996116638183601,-0.72119140625,-3.9861221313476562,10.944801330566406,-2.3750152587890767,6.9350357055664205,6.0,6.0,08-29,1.1007758776346845
07-01,1.0078792572021449,2.9716587066650497,-3.904552459716797,-0.5037193298339844,2.7805938720703125,-2.927661895751953,2.9222145080566406,-0.38166046142578125,-4.704139709472656,10.31301116943358,-2.0205307006835938,6.4380645751953125,6.0,6.0,08-30,0.9992631276448561
07-02,1.3249416351318324,3.5269927978515625,-2.44219970703125,-0.5565528869628906,2.9144973754882812,-2.2289695739746094,3.8591041564941406,0.33329010009765625,-4.5699462890625,11.100303649902344,-1.3037796020507812,5.408721923828139,7.0,5.0,08-31,1.447200298309327
07-03,1.4741439819336044,3.2433204650878906,-2.26910400390625,-1.2140274047851562,2.8430824279785156,-2.43768310546875,3.859294891357429,0.24845123291015625,-3.6403884887695312,10.712806701660156,-3.6405792236328125,3.2063522338867188,7.0,5.0,09-01,1.032139142354331
07-05,0.945831298828125,4.751514434814453,-2.1219635009765625,-1.1877403259277273,2.5410995483398438,-1.8019218444824219,2.087139129638679,-0.42095947265625,-3.8409042358398438,10.180023193359375,-2.521743774414034,4.5721588134765625,6.0,6.0,09-03,1.0985444386800165
07-06,0.8116645812988317,4.751514434814453,-2.9923362731933594,-0.672252655029304,1.9325485229492259,-1.4464988708496094,2.7180633544921875,-0.4397430419921875,-3.8600006103515625,10.625625610351562,-1.391120910644517,7.323699951171875,6.0,6.0,09-04,1.446763674418133
07-07,1.3043689727783203,3.758747100830078,-3.1388397216796946,1.0115699768066406,1.5380592346191406,-1.7837028503417969,2.2931976318359304,-0.20491790771484375,-3.991485595703125,9.647224426269517,-3.9217681884765625,7.433036804199219,7.0,5.0,09-05,1.1621241569519019
07-08,1.4379787445068395,3.3090438842773438,-4.134639739990234,1.3197555541992259,1.7621994018554759,-1.6203689575195384,3.0875205993652344,-1.4354095458984375,-3.9332733154296875,11.270423889160156,-1.6668243408202983,9.63958740234375,7.0,5.0,09-06,1.5863327980041524
07-09,1.421277999877944,3.5312576293945312,-4.544178009033203,0.9763565063476562,0.9587783813476562,-1.6929550170898438,3.115234375,-0.6986007690429688,-4.537010192871094,13.019958496093764,-1.7453689575195455,8.814613342285156,7.0,5.0,09-07,1.5516136487325045
07-10,1.313262939453125,4.1953773498535085,-4.916324615478516,1.1955184936523438,0.6998939514160156,-1.119049072265618,3.7009010314941406,-0.415740966796875,-4.920341491699219,12.041519165039077,-1.2642593383789062,4.5512924194335795,7.0,5.0,09-08,1.2551708221435547
07-11,0.9380550384521449,3.965320587158196,-4.094112396240234,1.4059066772460938,-0.5146522521972656,-0.7814598083496023,3.0631446838378906,0.36676025390625,-4.796195983886719,12.458091735839858,-2.4249496459960938,5.613464355468764,7.0,5.0,09-09,1.2666144371032735
07-12,1.4831218719482386,4.212425231933587,-4.025169372558594,1.7310104370117188,-0.7913169860839773,-1.4004364013671875,3.759010314941399,0.16953277587890625,-5.569679260253906,13.148391723632798,-2.141120910644517,2.9616165161132812,7.0,5.0,09-10,1.1281154950459789
07-13,1.6676216125488246,2.803882598876946,-3.904510498046875,1.6460189819336009,-0.3157081604003906,-2.156890869140625,3.5363235473632812,0.33858489990234375,-4.507133483886719,12.970626831054673,-3.4127655029296875,4.7860031127929545,7.0,5.0,09-11,1.1210044225056939
07-14,1.6592540740966797,2.8632850646972656,-2.9811668395996094,1.486766815185554,-0.0108795166015625,-2.466754913330071,3.8318862915039134,-0.642059326171875,-5.0698089599609375,15.142768859863281,-3.402915954589858,1.9234542846679545,6.0,6.0,09-12,1.0278191566467278
07-15,0.26465415954589844,2.973979949951172,-3.7682571411132812,1.5572128295898509,0.007049560546875,-2.720813751220696,3.8318862915039134,-2.0383453369140625,-4.167755126953125,15.1038818359375,-3.875572204589858,0.34308624267575283,7.0,5.0,09-13,0.6259172757466617
07-16,-0.2694683074951172,3.7038002014160227,-3.0537071228027344,1.6364364624023509,0.30162811279296875,-2.2943572998046804,2.692157745361321,-1.0390243530273438,-4.091087341308594,15.949501037597642,-4.1112213134765625,0.30124664306639204,6.0,6.0,09-14,0.8104920387268054
07-17,0.4077033996582067,4.368045806884773,-2.5171127319335938,1.478626251220696,0.3462562561035156,-0.8687858581542969,3.4885406494140625,-1.9535369873046875,-4.761909484863281,14.641670227050753,-4.4745025634765625,-0.6792602539062642,6.0,6.0,09-15,0.7896445592244433
07-18,0.19203948974609375,4.606639862060554,-1.8853111267089844,1.049072265625,-0.378204345703125,-2.7877235412597727,2.8299179077148366,-2.1137924194335938,-4.714149475097656,14.66104125976561,-5.860565185546861,0.14786529541015625,6.0,6.0,09-16,0.47890249888102154
07-19,0.9467563629150355,5.254219055175781,-3.531299591064446,1.4556617736816406,-0.28054428100585227,-2.143238067626953,4.39796066284179,-1.841400146484375,-5.048370361328125,14.3944091796875,-4.573333740234375,-0.5998306274414062,5.0,7.0,09-17,0.7025825182596845
07-20,1.2067222595214844,4.7960205078125,-3.126243591308601,2.263416290283203,0.840362548828125,-2.2981643676757812,4.982471466064446,-2.4801177978515625,-4.321357727050781,16.04499053955078,-6.228302001953111,-1.1581192016601705,6.0,6.0,09-18,0.876806577046711
07-21,1.3904590606689453,4.812984466552734,-2.8403053283691406,2.499866485595703,0.114166259765625,-3.3006820678710938,5.795261383056641,-1.6422882080078125,-4.2932891845703125,16.013778686523438,-5.706420898437486,-0.05484771728517046,6.0,6.0,09-19,1.0657235781351726
07-22,1.2818717956542969,3.2260208129882812,-3.10040283203125,2.2357215881347727,0.7507171630859375,-1.7853851318359446,5.869140625,-2.4135589599609375,-3.8524551391601562,16.29564666748047,-4.436164855957017,-0.37290191650392046,6.0,6.0,09-20,1.1415208180745442
07-23,0.8386993408203018,2.3421859741210938,-3.4477577209472656,2.5086822509765625,0.8131980895996094,-1.7309341430663991,5.792667388916023,-1.2633438110351562,-3.7374649047851562,15.84853363037108,-5.761665344238281,-2.1177215576171875,6.0,6.0,09-21,0.8404232660929353
07-24,0.6624965667724574,1.7058868408203125,-3.7852745056152344,3.41162109375,1.58984375,-1.739574432373054,5.270103454589844,-1.1596450805664062,-3.2007980346679688,16.226325988769517,-4.563804626464844,-3.442420959472642,6.0,6.0,09-22,0.9145633379618318
07-25,1.4255905151367188,1.1946334838867188,-5.0402374267578125,2.8856391906738352,1.8125877380371094,-1.8774642944336009,5.7989463806152415,-1.4424819946289062,-2.4628829956054688,16.24569702148436,-4.6436309814453125,-6.021484375,6.0,6.0,09-23,0.6562426884969069
07-26,1.5513744354248082,0.9901466369628906,-4.893730163574219,2.7201156616210866,2.2862319946289134,-1.5584640502929688,4.9731712341308665,-1.7724761962890625,-1.859130859375,14.325531005859375,-5.988197326660142,-5.144180297851577,6.0,6.0,09-24,0.46919933954874765
07-27,1.7694206237792969,1.1174240112304688,-3.9544029235839773,1.9749298095703125,1.7124061584472656,-1.7954330444335866,4.917499542236335,-1.2256240844726562,-1.7729034423828125,7.543769836425781,-6.38079833984375,-7.327468872070327,6.0,6.0,09-25,-0.28509839375813745
07-28,2.0042095184326065,1.1853065490722656,-4.517841339111328,2.106353759765632,1.7213783264160156,-1.740753173828118,4.063899993896484,0.07543182373046875,3.2678756713867188,7.989570617675781,-5.977081298828139,-5.8918914794921875,8.0,4.0,09-26,0.3572049140930167
07-29,2.2977218627929688,1.1332778930664062,-4.240879058837898,1.5252151489257812,1.5868949890136648,-1.4855613708496023,0.30617523193359375,0.5750808715820312,5.587013244628906,6.415000915527344,-5.376411437988281,-6.6495590209960795,8.0,4.0,09-27,0.1394974390665696
07-30,1.5345897674560547,1.4996719360351634,-3.453289031982429,1.3667449951171875,1.6765480041503835,-1.0116386413574219,-1.76287841796875,0.6788101196289062,5.577430725097656,6.259468078613281,-4.6182022094726705,-5.632682800292969,7.0,5.0,09-28,0.17621437708536605
07-31,1.2243289947509766,0.9117393493652344,-2.9253501892089915,1.7787628173828125,1.6765480041503835,-0.236968994140625,-2.096912384033203,0.3771209716796875,5.376197814941406,5.997039794921861,-1.87091064453125,-3.0904998779296875,7.0,5.0,09-29,0.5934246381123837
08-01,1.400436401367184,1.61895751953125,-4.630332946777351,2.4712982177734375,0.5917129516601562,0.22784423828125,-2.9041099548339915,1.197357177734375,3.8620376586914062,5.997039794921861,1.3391799926757812,-6.280693054199247,9.0,3.0,09-30,0.407560666402176
08-02,1.4255962371826136,1.729736328125,-3.6955947875976562,2.873802185058601,-0.7441444396972656,0.33721160888671875,-2.1711387634277415,1.885589599609375,4.111213684082031,5.209739685058594,0.640052795410142,-6.0214920043945455,8.0,4.0,10-01,0.46504767735798885
08-03,1.408828735351559,1.8064193725585938,-3.4186477661132812,1.6468620300292969,0.14344406127929688,-0.6197357177734304,-1.2247314453125,1.8761749267578125,4.6287078857421875,3.5379562377929688,1.3490142822265625,-5.4432754516601705,8.0,4.0,10-02,0.474251429239908
08-04,1.2327461242675781,1.6700820922851562,-0.8395233154296875,1.7434196472167969,1.0041465759277415,-1.9321365356445312,-1.8278274536132741,0.40540313720703125,3.7853775024414062,3.4602127075195455,0.580963134765625,-5.4033966064453125,8.0,4.0,10-03,0.3232889175415063
08-05,1.5262374877929688,1.7211837768554688,-2.6570472717285156,1.8578872680663991,0.27793121337890625,-1.5584640502929688,-2.644287109375,0.7730865478515625,4.925788879394531,3.829559326171889,-1.7035140991210938,-5.144195556640625,7.0,5.0,10-04,0.10034720102946022
08-06,1.1153125762939453,1.2866439819335866,-2.137737274169922,1.9987602233886719,0.7262039184570312,-2.059741973876953,-1.0484657287597656,1.1219406127929688,5.452850341796875,3.683769226074247,-4.303108215332031,-3.9478683471679688,7.0,5.0,10-05,0.1573799451192238
08-07,0.6708621978759766,1.3803787231445241,-0.5279312133789062,1.7434120178222656,0.699310302734375,-2.050609588623054,-0.7515411376953125,-0.06600189208984375,5.1749420166015625,4.325256347656264,-6.213401794433594,-6.380386352539077,6.0,6.0,10-06,-0.1663091977437349
08-08,1.4339790344238281,2.275066375732422,0.34619903564453125,1.8578681945800781,-0.5469093322753906,-2.0506057739257955,-1.4010086059570312,-0.05657196044921875,5.1749420166015625,4.898727416992202,-7.7593841552734375,-2.4424896240234375,6.0,6.0,10-07,0.14415105183919272
08-09,1.5346107482910156,2.2495155334472585,-1.5838241577148438,2.183654785156257,0.00896453857421875,-1.75897216796875,-2.0783233642578125,0.1225433349609375,5.424095153808594,3.1005783081054545,-3.692596435546861,-2.432525634765625,7.0,5.0,10-08,0.2564767201741536
08-10,1.7358665466308594,2.752246856689453,0.21636962890625,2.3597679138183594,0.035858154296867895,-2.925537109375,-1.1505088806152344,-0.1037139892578125,6.3536834716796875,4.655738830566406,-3.426727294921875,-2.0138092041015625,7.0,5.0,10-09,0.7074362436930333
08-11,1.2998027801513707,3.8684654235839844,-0.7529716491699219,2.1396522521972656,-0.1075897216796875,-2.041492462158203,-0.4639396667480469,0.5091018676757812,6.171607971191406,6.094245910644531,-5.179481506347656,-1.7546005249023438,6.0,6.0,10-10,0.81523338953654
08-12,1.140472412109375,3.561717987060547,-1.6011428833007741,1.4968757629394531,-0.4034461975097656,-2.21466064453125,-0.09279251098632812,0.0565643310546875,5.318687438964844,4.19891357421875,-3.5055007934570312,-3.1004638671875,6.0,6.0,10-11,0.4046020507812506
08-13,1.1488628387451172,3.9110679626464915,-1.0212745666503906,1.0654373168945312,-0.520000457763679,-2.9073143005371094,0.5567169189453267,0.4242706298828125,5.328277587890625,0.9914016723632812,-4.667442321777358,-1.9938659667968608,7.0,5.0,10-12,0.1930114428202323
08-14,2.1216144561767543,4.149646759033203,-0.6404533386230469,1.0742263793945312,-0.48413848876953836,-4.174118041992195,0.36185455322264204,-0.4053802490234375,5.222877502441406,0.4276580810546875,-2.570037841796875,-1.6748504638672017,6.0,6.0,10-13,0.28407494227091085
08-15,2.7002353668212926,4.107048034667969,0.250988006591804,0.7308464050292969,1.5510444641113281,-5.286014556884766,0.44536590576171875,0.1508636474609375,5.376197814941406,1.0497360229492188,-1.9890747070312642,-0.20935821533204546,9.0,3.0,10-14,0.739823182423908
08-16,2.775707244873047,4.430824279785156,0.6318016052246094,0.5371131896972656,1.936553955078125,-6.835365295410163,0.06497192382813921,0.471405029296875,4.6095428466796875,-0.09719085693360796,-3.859992980957017,-0.687889099121108,8.0,4.0,10-15,0.33145682017008404
08-17,3.488494873046868,3.7747306823730398,0.813549041748054,0.5371055603027344,2.402759552001946,-6.643985748291023,-0.38968658447265625,-0.12256622314453125,6.094947814941406,-1.0788879394531392,-4.3031158447265625,-1.8044509887695455,6.0,6.0,10-16,0.23074118296304924
08-18,3.354312896728505,3.8514251708984304,1.8348197937011719,0.7748565673828125,1.7931098937988281,-6.4161338806152415,-0.14846038818357954,-1.1690902709960938,6.41119384765625,-0.6901016235351562,-4.9628448486328125,-1.435577392578125,6.0,6.0,10-17,0.2664591471354158
08-19,3.077581405639645,4.337116241455078,1.713642120361321,1.3559799194335938,2.1606941223144602,-6.826259613037109,0.51959228515625,-0.7071075439453125,7.1395111083984375,2.6632003784179688,-4.677284240722656,-1.2461700439452983,8.0,4.0,10-18,0.7925413449605315
08-20,2.0209827423095703,4.004791259765625,0.7010421752929688,2.1396255493164134,2.071044921875014,-6.479930877685547,1.5031204223632741,-0.8485107421875,7.177848815917969,2.099456787109361,-3.3577957153320312,-1.206298828125,8.0,4.0,10-19,0.8187813758850098
08-21,1.5597801208496094,4.396770477294922,1.6270980834960938,2.31573486328125,2.4655342102050852,-5.723487854003899,2.0690765380859375,-0.6693649291992188,6.813690185546875,1.6815109252929545,-3.8009109497070312,-1.445564270019517,8.0,4.0,10-20,0.9408222834269218
08-22,1.7023086547851562,4.013324737548835,0.7096862792968821,1.9018898010254048,2.8331108093261648,-4.4840087890625,3.5628585815429545,-0.5845184326171875,6.209953308105469,1.7884216308593608,-3.9289093017578267,-3.9478607177734375,8.0,4.0,10-21,0.814688046773273
08-23,1.3165740966796875,4.873920440673828,-0.2769622802734304,1.9547233581542969,3.003467559814453,-3.3538932800292898,4.02679443359375,-0.8108062744140625,6.698692321777344,1.3218612670898295,-2.442047119140625,-2.1434097290039062,7.0,5.0,10-22,1.180742899576823
08-24,0.9392204284667969,5.453338623046875,-0.657764434814446,1.33837890625,3.120018005371101,-2.251117706298821,3.4515228271484517,-1.0370712280273438,7.2449188232421875,0.5054092407226705,-3.0426864624023438,-1.3657989501952983,7.0,5.0,10-23,1.1415306727091525
08-25,0.9475975036621094,5.385169982910156,0.5106353759765625,1.8226547241210938,3.7386360168457102,-2.852638244628899,4.017513275146499,-1.979888916015625,6.52618408203125,-0.5540390014648438,-4.263710021972656,-0.38880157470701704,7.0,5.0,10-24,1.075776100158695
08-26,1.2159481048583984,3.4509544372558665,-0.008655548095703125,1.0565986633300781,2.940704345703132,-3.0713539123535156,2.931957244873061,-1.2350540161132812,6.8712005615234375,-0.8358993530273438,-3.5645751953125,-0.8573608398437358,6.0,6.0,10-25,0.7412053743998245
08-27,1.7442378997802734,2.590332031250007,-0.4587097167968679,0.80126953125,4.124149322509766,-3.1078224182128906,3.3680191040039062,-1.6781845092773438,6.957450866699219,-4.3349838256835795,-4.0667648315429545,-1.7346725463867188,6.0,6.0,10-26,0.3503600756327347
08-28,1.8364849090576065,3.6298904418945312,-1.5232505798339844,0.3874320983886719,4.070350646972656,-2.0415000915527415,3.4237098693847585,-1.6781845092773438,6.353706359863281,-3.703193664550753,-4.4212493896484375,0.219329833984375,7.0,5.0,10-27,0.5461271603902184
08-29,2.256166458129883,3.5361557006835938,-1.0039482116699219,0.4402656555175781,3.9000167846679688,-2.032390594482429,3.6556625366210938,-2.3664093017578125,6.219512939453125,-4.490486145019517,-4.283416748046889,-0.927154541015625,6.0,6.0,10-28,0.40866454442342065
08-30,1.7088642120361328,3.56170654296875,-1.1770439147949219,0.8364944458007812,4.904151916503906,-3.800464630126953,3.3309173583984375,-2.2815704345703125,5.289955139160156,-3.3143997192382812,-4.273551940917969,-2.3771514892578125,6.0,6.0,10-29,0.20065895716349283
08-31,1.0015811920166051,2.999317169189453,-1.3241844177246094,0.6780128479003906,5.2000083923339915,-2.9984359741210938,4.165977478027344,-1.6121597290039062,5.1078643798828125,-4.228065490722642,-1.4278106689452983,-5.687156677246094,6.0,6.0,10-30,0.15624570846557942
09-01,1.2028427124023473,2.0535125732421875,0.06058883666992898,0.2641639709472585,5.056564331054695,-3.198944091796868,5.613399505615227,-1.59332275390625,3.8812179565429688,-6.045654296875,-0.7660522460937358,-6.793754577636719,7.0,5.0,10-31,-0.022119839986163292
09-02,1.3370094299316406,1.7212257385253906,0.9866561889648438,0.5723342895507741,4.653114318847663,-3.198944091796868,4.982475280761719,-5.7887649536132955,3.0762100219726562,-4.533966064453111,-0.03514862060545454,-9.545295715332031,7.0,5.0,11-01,-0.4810911814371727
09-03,1.4638633728027344,0.8776588439941406,0.3548393249511719,0.2465362548828054,4.653114318847663,-2.8617401123046804,4.602046966552749,-7.264762878417969,3.9707717895507812,-3.9585494995117188,-0.03514862060545454,-5.8647537231445455,7.0,5.0,11-02,-0.31801033020019354
09-04,0.967620849609375,1.2018203735351634,-1.1770744323730469,0.2465362548828054,4.428974151611328,-2.7614784240722656,5.836051940917962,-8.041282653808594,4.297821044921875,-3.9585494995117188,-2.2900924682617188,-4.266143798828139,6.0,6.0,11-03,-0.45964972178141456
09-05,0.10259819030761719,1.2873802185058594,-0.2769622802734375,0.589935302734375,5.083469390869141,-2.697685241699233,7.432025909423828,-7.757209777832031,4.297821044921875,-5.708084106445327,-2.6478805541992188,2.4857101440429545,7.0,5.0,11-04,0.1825931866963669
09-06,0.32994079589844105,1.4156951904296875,-0.2769622802734375,2.051593780517578,4.8234596252441335,-2.461681365966797,6.537654876708999,-7.757209777832031,4.68115234375,-5.266670227050753,-9.60226440429689,3.855705261230483,7.0,5.0,11-05,-0.13913218180338216
09-07,0.17837905883789062,1.4156951904296875,-1.0991744995117188,-1.7610282897949219,4.645694732666016,-1.9306983947753835,5.112255096435547,-8.539710998535156,3.1736831665039062,-3.641426086425753,-9.943435668945312,3.345710754394517,6.0,6.0,11-06,-0.7536713282267234
09-08,0.17837905883789062,1.1685905456542969,0.00865554809571023,-1.0726699829101562,4.375679016113281,-0.71307373046875,5.112255096435547,-7.568840026855469,3.299468994140625,-6.155487060546875,-9.95330810546875,3.345710754394517,7.0,5.0,11-07,-0.664553324381511
09-09,-0.0061206817626953125,2.0672454833984304,0.5885238647461009,-0.6392745971679688,4.906719207763672,0.0433807373046875,5.334941864013665,-5.4075775146484375,1.0052108764648438,-3.9903488159179545,-9.13351440429689,1.5213241577148438,7.0,5.0,11-08,-0.30912415186564185
09-10,0.4489116668701172,2.212810516357422,0.7355461120605469,-1.7359809875488281,4.601890563964844,0.3532447814941335,6.347087860107422,-3.6324310302734375,0.8801651000976562,-3.0053253173828125,-9.143363952636719,6.079170227050781,8.0,4.0,11-09,0.3451437950134271
09-11,0.08755302429198508,1.5734672546386719,0.648590087890625,-1.806427001953125,4.583961486816406,0.2718772888183594,5.715454101562486,-2.2972259521484375,0.8897857666015625,-2.9664382934570312,-8.670707702636719,5.602752685546875,8.0,4.0,11-10,0.30272022883097155
09-12,0.2321338653564453,1.530700683593743,-0.4207649230957031,-1.885650634765625,4.0426597595214915,2.1533203125,5.591762542724609,-2.8938064575195312,0.8131179809570312,-3.8120574951171733,-8.188484191894545,4.454963684082031,7.0,5.0,11-11,0.1348245938618978
09-13,0.16477584838867188,2.0012321472167898,-0.9573593139648438,-3.217792510986328,4.9242401123046875,2.8127403259277344,6.14142227172853,-1.9792938232421875,1.4839401245117188,-5.1824569702148295,-8.928215026855469,8.894966125488281,7.0,5.0,11-12,0.5131832758585629
09-14,0.17319869995117188,1.7626380920410085,-1.5891609191894531,-3.7206573486328125,4.172798156738281,2.547252655029304,6.160045623779297,-1.8190383911132812,0.1963348388671875,-7.119461059570298,-7.452445983886733,8.894966125488281,7.0,5.0,11-13,0.18387254079182944
09-15,-0.5815181732177699,1.1150588989257812,-1.6744842529296875,-3.7828102111816406,3.884777069091804,2.4648475646972727,4.592002868652344,-5.803482055664077,0.49395751953125,-8.925956726074219,-7.808013916015625,9.642662048339844,6.0,6.0,11-14,-0.5319132804870602
09-16,-0.8414840698242188,0.9864654541015625,-0.3546142578125,-4.437309265136719,4.505828857421875,2.619773864746101,4.0074920654296875,-5.1229095458984375,0.44844818115234375,-8.331024169921875,-6.4252243041992045,10.200950622558608,6.0,6.0,11-15,-0.2286338806152314
09-17,-1.0020656585693253,0.7884292602539062,-0.10525894165039062,-5.419029235839844,5.232025146484375,3.6222915649414134,2.477264404296875,-4.5032272338867045,0.46767425537109375,-8.62361907958983,-6.9471054077148295,12.005401611328125,6.0,6.0,11-16,-0.16726827621459459
09-18,-0.46399688720702414,0.7884788513183594,0.2511940002441406,-5.154884338378913,4.5954742431640625,3.3206253051757812,4.326377868652344,-4.6263198852539205,0.34262847900390625,-8.90548706054686,-8.217361450195298,12.922584533691406,7.0,5.0,11-17,-0.06839052836100142
09-19,-0.07581329345703125,0.1553955078125,0.06863021850585938,-5.427845001220703,4.541069030761719,3.6117935180664062,4.4213638305664205,-4.446403503417969,0.22763824462890625,-8.458374023437472,-6.9347076416015625,14.50771331787108,7.0,5.0,11-18,0.18253835042317945
09-20,0.09258842468261719,0.20673370361328836,0.4061470031738281,-5.877845764160156,4.442523956298828,4.170402526855469,4.30023193359375,-4.550102233886719,-0.30902862548828125,-5.193290710449219,-7.6353836059570455,14.50771331787108,7.0,5.0,11-19,0.38005749384562
09-21,-0.1684284210205078,0.7179870605468821,1.6611099243164062,-5.524101257324219,4.155078887939453,3.7218093872070312,5.660453796386719,-4.267265319824219,0.268218994140625,-3.5748977661132812,-7.309295654296861,14.50771331787108,7.0,5.0,11-20,0.8206985791524257
09-22,-0.2942123413085973,0.9224739074707102,1.840240478515625,-4.843158721923828,3.8040428161621094,3.575328826904297,6.486228942871094,-5.2383193969726705,0.23784637451171875,-4.706024169921889,-7.151252746582031,13.630409240722656,7.0,5.0,11-21,0.6886336008707662
09-23,-0.5122585296630859,1.289276123046875,1.8155250549316406,-4.843158721923828,3.35400390625,3.8122978210449148,6.541900634765625,-4.540336608886733,-0.9319381713867188,-4.706024169921889,-6.953712463378906,15.813697814941406,6.0,6.0,11-22,0.8449393908182751
09-24,-0.2110061645507777,0.7954559326171875,0.5669441223144531,-4.816627502441413,3.34503173828125,3.757617950439446,7.776828765869141,-3.293395996093736,-0.9319381713867188,-5.554512023925781,-7.357429504394517,15.694061279296875,6.0,6.0,11-23,0.8142525355021174
09-25,0.09062385559082031,1.3678627014160156,0.5669441223144531,-4.2354888916015625,3.479515075683601,3.8301925659179688,8.410099029541001,-3.293395996093736,0.0972747802734375,-3.9799423217773438,-7.958099365234375,15.85357666015625,8.0,4.0,11-24,1.1857635180155441
09-26,-0.43650817871094816,1.3678627014160156,0.8973159790039062,-4.077018737792969,3.3905982971191406,3.658477783203125,9.280559539794922,-2.1097259521484375,0.1068572998046875,-3.8244094848632812,-7.1685333251953125,15.594367980957045,7.0,5.0,11-25,1.3899869918823244
09-27,-0.43650817871094816,0.8802070617675852,0.36937713623046875,-3.9274177551269602,4.305442810058587,3.5409698486328125,9.280559539794922,-1.8080368041992188,0.3080902099609375,-4.361671447753906,-8.087852478027344,15.594367980957045,7.0,5.0,11-26,1.3047939936319983
09-28,-0.5796604156494141,0.1729888916015696,2.074359893798828,-3.4140663146972656,3.911090850830078,3.5409698486328125,9.681163787841797,-2.6282730102539062,-0.8731155395507812,-3.3883895874023438,-7.051422119140625,15.594367980957045,6.0,6.0,11-27,1.420001188913983
09-29,-0.6048202514648438,0.062210083007819605,0.573516845703125,-3.290130615234375,3.911090850830078,3.4768905639648366,8.948192596435547,-0.7780380249023438,0.24956512451171875,-3.6223678588867188,-7.051422119140625,15.335166931152344,7.0,5.0,11-28,1.4341545104980469
09-30,-0.5880527496337891,0.8411331176757812,1.7749404907226562,-3.71466064453125,4.028106689453125,4.433837890624986,8.001785278320305,-0.9476699829101562,-0.78369140625,-4.977996826171875,-5.461227416992202,14.756950378417969,6.0,6.0,11-29,1.4469545682271292
10-01,0.4612598419189453,1.070770263671875,4.836570739746094,-3.475860595703125,3.1674041748046804,5.746238708496087,7.363861083984375,-0.5217514038085938,-0.6201705932617188,-3.290771484375,-4.693176269531264,14.258476257324219,7.0,5.0,11-30,2.0252375602722146
10-02,-0.053386688232421875,0.5834922790527344,5.236484527587891,-3.5903282165527273,3.8936195373535156,5.700748443603523,6.807670593261733,-1.2698440551757812,0.005035400390625,-3.6601181030273438,-2.4086990356445455,15.105873107910156,7.0,5.0,12-01,2.1958789825439466
10-03,-0.37133026123046875,0.3952674865722656,7.123111724853523,-3.731201171875,4.908763885498047,4.9532432556152415,5.9149398803710795,-3.6372222900390767,-0.5220260620117188,-3.5143280029297017,-1.7875137329101562,13.411079406738281,6.0,6.0,12-02,1.9285653432210264
10-04,-0.21135139465331676,1.3962440490722656,5.513305664062507,-3.809703826904304,4.5231475830078125,4.706573486328125,6.371437072753906,-2.449279785156264,-0.24411773681640625,-2.8053665161132812,-4.792961120605483,13.411079406738281,6.0,6.0,12-03,1.8007505734761535
10-05,-0.07663154602050781,0.5015563964843679,4.63917541503907,-4.1270904541015625,4.4515953063964915,4.935440063476555,5.40252685546875,-2.458709716796889,0.5734939575195312,-2.688079833984375,-4.143394470214844,13.411079406738281,7.0,5.0,12-04,1.7017467816670724
10-06,-0.1772632598876953,0.5271072387695312,3.746917724609375,-4.623020172119141,3.7675437927246236,5.924190521240234,6.079841613769531,-2.1061172485351562,-0.627288818359375,-3.1740646362304688,-3.4520111083984375,13.401115417480469,6.0,6.0,12-05,1.6072459220886242
10-07,-0.37851905822753906,1.3133201599121094,4.527282714843743,-4.508022308349609,3.4075088500976634,7.090755462646484,5.152027130126953,-0.9076690673828125,-0.06982421875,-2.7741928100585938,-4.370574951171889,12.982398986816406,6.0,6.0,12-06,1.7887075742085763
10-08,-0.9501705169677734,1.6821708679199148,3.6716384887695312,-4.35767745971679,3.5509567260742188,6.2067108154296875,3.832710266113267,-2.118469238281264,0.8343582153320312,-4.256622314453139,-2.617820739746108,11.447120666503906,7.0,5.0,12-07,1.4104088147481235
10-09,-1.091115951538086,0.8276786804199219,3.2021522521972656,-3.7149009704589773,3.846813201904297,7.574337005615234,4.077339172363281,-1.7207489013671875,0.035980224609375,-2.361289978027358,-4.291801452636733,11.158012390136719,7.0,5.0,12-08,1.4618713061014794
10-10,-0.9733467102050817,0.6223487854003906,3.158672332763672,-3.2834625244140554,3.0498390197753906,8.256629943847656,3.6685943603515625,-2.0237655639648438,0.02639007568359375,0.8462219238281108,-3.9564971923827983,9.931777954101562,8.0,4.0,12-09,1.6102835337320967
10-11,-0.9396495819091939,0.1261444091796875,2.777851104736328,-2.9735794067382812,3.1326828002929688,9.111740112304688,3.0909652709960938,-1.1941146850585938,0.1317901611328125,0.39478302001953125,-3.847785949707017,9.931777954101562,8.0,4.0,12-10,1.6452171007792156
10-12,-0.9143924713134801,0.16874313354492188,1.8864097595214773,-2.920654296875,2.6212959289550852,9.459651947021484,2.6065216064453125,-1.7503585815429688,0.209228515625,-1.4970016479492188,-2.8318862915039205,9.931777954101562,7.0,5.0,12-11,1.4141112963358546
10-13,-0.9898643493652344,-0.15503311157226562,1.5976600646972656,-3.0436439514160085,2.3422698974609446,8.663154602050781,2.986915588378892,-1.0025634765625142,-0.5878982543945312,-2.6266708374023438,-3.513389587402358,10.410308837890625,5.0,7.0,12-12,1.173437118530271
10-14,-1.7026519775390554,-0.0441131591796875,2.007862091064453,-3.0790061950683594,1.3791847229004048,8.47177505493164,3.4415740966796875,-0.8965682983398438,-1.28009033203125,-3.0558013916015625,-2.8911514282226562,11.526870727539062,5.0,7.0,12-13,1.1564903259277362
10-15,-1.041543960571289,0.4171142578125,2.3076744079589844,-3.2293701171875,1.9888343811035227,8.24392318725586,3.7490921020507955,-1.189422607421875,-2.0976943969726562,-1.8269424438476562,-2.2314224243164062,11.626571655273438,6.0,6.0,12-14,1.3930678367614764
10-16,-0.6381244659423828,0.21199798583984375,2.0642242431640625,-3.8104934692382812,1.6212501525878906,7.588916778564453,3.0789108276367188,-1.4166793823242188,-1.8476028442382812,-5.180244445800781,-2.5169830322265625,11.61660003662108,6.0,6.0,12-15,0.897647698720295
10-17,-0.7053108215332031,0.1007843017578125,1.48175048828125,-4.594139099121101,0.806072235107429,5.679851531982422,2.6509170532226705,-2.666656494140625,-1.8859405517578125,-4.616500854492173,-1.990242004394517,12.812919616699219,6.0,6.0,12-16,0.5894587834676143
10-18,-0.604278564453125,0.01523590087890625,0.555694580078125,-4.692447662353516,0.6816024780273438,3.744487762451172,3.126037597656264,-2.8458023071289062,-1.5217819213867188,-3.5071334838867188,-3.4088211059570312,12.812919616699219,6.0,6.0,12-17,0.36297607421875117
10-19,-0.5284996032714844,0.3986816406249929,1.4731063842773366,-4.587898254394531,0.961883544921875,3.7078781127929616,3.4893646240234517,-2.9306488037109375,-1.8679046630859375,-3.5362548828125,-3.1813125610351562,12.812919616699219,6.0,6.0,12-18,0.5176095962524409
10-20,-0.14276504516601562,-0.4619140625,1.9095077514648438,-4.392379760742195,1.051891326904304,5.026203155517585,3.0254287719726562,-2.5350265502929545,-1.8178253173828125,-4.8540191650390625,-4.139381408691406,11.008468627929688,5.0,7.0,12-19,0.30651569366455256
10-21,0.234588623046875,2.2161788940429545,2.528919219970703,-4.2331695556640625,1.6009407043457031,3.9234275817871165,3.6007003784179545,-3.685394287109375,-2.049285888671875,-5.5367279052734375,-4.406051635742202,10.23085784912108,7.0,5.0,12-20,0.36874866485595287
10-22,-0.6812953948974574,1.9169387817382812,0.5683288574218679,-3.7821197509765625,0.9823226928710938,4.524948120117195,1.174560546875,-2.7106857299804688,-2.0396652221679688,-7.8286285400390625,-3.185028076171889,9.662605285644517,6.0,6.0,12-21,-0.11647653579712121
10-23,-0.740951538085941,1.95184326171875,2.4636459350585866,-3.016063690185547,1.7802543640136719,4.67631912231446,0.0011138916015767109,-2.5402297973632812,-2.2801513671875,-7.5467681884765625,-3.8841629028320455,9.622726440429688,6.0,6.0,12-22,0.04063129425048798
10-24,-0.6146602630615234,2.0202789306640625,2.4897308349609304,-2.7607345581054688,1.32196044921875,5.024780273437514,0.6062850952148438,-3.127349853515625,-2.3664016723632812,-4.047683715820327,-3.6768264770507955,10.510002136230469,6.0,6.0,12-23,0.4482817649841291
10-25,-0.5220451354980433,2.0202789306640625,3.554271697998047,-2.548927307128899,1.1984825134277344,6.400821685791016,1.2118606567382812,-3.127349853515625,-1.7626571655273438,-5.789436340332031,-2.52947998046875,10.510002136230469,6.0,6.0,12-24,0.7179851531982431
10-26,-0.5220451354980433,2.114013671875,3.0349693298339844,-2.8570976257324148,1.2971153259277344,6.400821685791016,1.2118606567382812,-2.4391250610351562,-2.1939010620117188,-4.885490417480469,-2.844573974609375,10.510002136230469,6.0,6.0,12-25,0.7355457941691089
10-27,0.025257110595706678,2.0884628295898438,2.7580223083496023,-2.91162109375,1.7381477355957031,6.721263885498047,1.5366058349609375,-2.44854736328125,-1.7742538452148438,-6.1150054931640625,-2.4396133422851562,11.959999084472656,7.0,5.0,12-26,0.9282264709472653
10-28,0.7325401306152344,2.4907379150390625,2.853107452392578,-2.7081871032714844,2.224193572998047,5.9192352294921875,0.7015457153320312,0.3030242919922159,-0.23082733154296875,-9.869834899902344,-3.071746826171875,15.270004272460938,8.0,4.0,12-27,1.2178160349528018
10-29,0.3620624542236328,2.7119789123535156,4.196140289306641,-3.106189727783196,2.3676376342773438,6.119743347167962,1.318305969238267,2.0548629760742188,-0.7214279174804688,-7.851020812988281,-3.7335052490234375,14.669998168945327,8.0,4.0,12-28,1.5323821703592937
10-30,0.89251708984375,2.7889823913574148,4.14398193359375,-3.106189727783196,2.771087646484375,5.609844207763665,0.03728485107421875,2.58514404296875,-0.5001754760742188,-9.36270904541017,-4.464408874511719,13.520004272460938,8.0,4.0,12-29,1.2429469426472963
10-31,1.2293205261230469,2.874530792236321,3.5962486267089844,-3.106189727783196,2.5931663513183594,5.401462554931655,-1.8725967407226562,2.159027099609375,-1.3947372436523438,-9.938125610351562,-3.2890472412109233,9.419998168945327,7.0,5.0,12-30,0.6394214630126989
11-01,1.2040615081787074,2.7290916442871023,5.128162384033203,-4.531734466552734,2.7722396850585938,6.088081359863281,-1.5651473999023295,2.935546875,-1.7217864990234375,-10.542762756347685,4.177978515625,9.419998168945327,8.0,4.0,12-31,1.341144084930419
11-02,1.2040615081787074,2.6435317993164062,4.228050231933594,-1.3266639709472727,2.376209259033203,6.088081359863281,-1.5651473999023295,2.6514739990234375,-0.9426422119140625,-11.147445678710966,6.271903991699219,9.419998168945327,8.0,4.0,01-01,1.6584509213765453
11-03,0.9767189025878835,2.515216827392578,2.825965881347649,-2.0607376098632812,3.1052627563476562,5.831748962402344,-0.6707763671875,2.6988143920898438,-0.1827545166015625,-8.953056335449219,7.002799987792969,8.050003051757798,8.0,4.0,01-02,1.7616004943847632
11-04,1.128280639648434,1.385936737060554,3.434162139892571,-1.7246513366699219,3.3573036193847656,5.30076599121093,0.7546234130859517,2.1590499877929688,0.41361236572265625,-7.6169281005859375,6.864532470703125,8.559997558593764,10.0,2.0,01-03,2.0013904571533216
11-05,0.5557174682617152,0.9838371276855469,3.182025909423828,-0.8048210144042969,3.6273193359375,4.083141326904297,0.15840911865234375,-0.833320617675767,1.1157989501953125,-11.4107666015625,6.8744049072265625,4.6999969482421875,9.0,3.0,01-04,1.0193119049072275
11-06,0.252599716186527,1.522827148437493,3.2776527404785156,-1.2382164001464844,3.0962791442871094,2.783130645751953,-0.5682830810546733,-1.2404937744140483,1.2889328002929688,-13.57590484619142,6.054611206054702,4.010002136230469,8.0,4.0,01-05,0.4719281196594259
11-07,0.17681884765625,1.26617431640625,3.3732872009277344,-0.141510009765625,3.3482627868652273,1.7211685180664062,-0.3446960449218608,-0.0946807861328125,1.4139785766601562,-14.560928344726562,4.227348327636719,4.44000244140625,8.0,4.0,01-06,0.402102152506511
11-08,0.14313125610351562,1.3346061706542898,3.4602432250976562,0.6014251708984375,2.340198516845703,-0.8697280883789062,-0.7266693115234375,-1.4298858642578125,1.40435791015625,-15.643486022949233,4.978019714355469,4.44000244140625,8.0,4.0,01-07,0.0026845932006818174
11-09,0.6062412261962891,1.3773727416992188,4.529598236083984,1.4151077270507812,1.6021461486816406,-1.5014190673828125,-1.1831741333007812,-0.8333053588867188,1.2023544311523438,-12.893203735351577,5.402740478515639,4.44000244140625,8.0,4.0,01-08,0.34703842798868817
11-10,0.6735992431640625,0.9068412780761719,3.8688735961914062,1.1586189270019531,1.8811569213867188,-1.1626815795898438,-1.7328338623047017,1.9317932128906392,1.92376708984375,-9.577247619628906,4.276756286621108,0.0,8.0,4.0,01-09,0.3457202911376965
11-11,0.6651763916015625,0.7271995544433594,2.825580596923828,3.3874168395996094,3.141284942626953,-0.8971939086914134,-1.7514572143554688,1.5624618530273438,1.5486221313476562,-8.046066284179688,4.582939147949247,0.0,8.0,4.0,01-10,0.6454970041910825
11-12,0.9683036804199219,1.172027587890625,3.1385536193847656,2.909809112548828,3.4293060302734304,-0.8147888183593821,-0.968902587890625,0.1609954833984233,0.7695083618164062,-8.085060119628892,4.938507080078139,0.0,8.0,4.0,01-11,0.6348549524943033
11-13,0.6567420959472621,1.2062873840332031,3.2776641845703125,3.5643081665039062,2.8082542419433594,1.0619888305664062,-1.5278778076171875,-0.6533737182617188,0.07695770263671875,-8.679992675781236,3.5557174682617188,0.0,8.0,3.0,01-12,0.4455563227335621
11-14,0.08419418334960938,1.5313873291015696,3.1472511291503906,4.546028137207031,2.547222137451172,0.5859222412109304,-2.1241302490234517,-0.44506072998049717,0.05773162841796875,-8.387397766113281,4.1384735107421875,0.0,8.0,3.0,01-13,0.4734684626261358
11-15,0.10105705261230469,1.8564682006835938,2.7907981872558594,4.49296951293946,2.7992401123046875,-0.10070037841796875,-2.105499267578139,-0.32196807861328125,0.18277740478515625,-9.95761108398436,5.75830078125,0.0,7.0,4.0,01-14,0.45798603693644263
11-16,0.15155792236328125,2.489551544189453,2.9733619689941406,4.28955078125,2.1151657104492188,-0.28380966186522727,-2.971893310546889,-0.501884460449233,-0.4232177734375,-11.264472961425781,5.787933349609361,0.0,6.0,5.0,01-15,0.1968202590942353
11-17,-0.016843795776367188,2.4382133483886648,3.5558738708496094,3.7942543029785085,3.123260498046868,-0.8056449890136719,-2.8507614135742188,-0.5113525390625,0.5771331787109375,-10.942642211914048,5.718795776367173,0.0,6.0,5.0,01-16,0.3400238355000796
11-18,0.2441730499267578,2.335559844970703,2.9907684326171875,4.077293395996087,2.8982467651367188,-0.3570518493652344,-4.2109832763671875,-0.3030090332031108,1.048431396484375,-10.113655090332017,6.291656494140611,0.0,7.0,4.0,01-17,0.40845251083374084
11-19,0.40415763854980113,2.2243423461914062,3.5037193298339844,4.094970703125,3.2492828369140625,-0.2105712890625,-4.4438629150390625,-0.7007446289062642,0.7406387329101562,-10.211174011230455,6.133613586425781,0.0,7.0,4.0,01-18,0.3986976941426592
11-20,0.3704833984375,2.0960121154785156,3.677593231201172,4.068439483642585,3.699321746826172,-0.1373291015625,-5.161270141601548,-0.8522491455078267,1.3177719116210938,-9.362686157226562,5.936073303222656,0.0,7.0,4.0,01-19,0.4710133870442714
11-21,-0.37048530578612215,2.60931396484375,4.0340576171875,4.086143493652351,3.510303497314453,-1.2084693908691477,-5.384845733642585,-0.7196731567382955,0.2885589599609375,-8.572708129882812,5.34344482421875,0.0,6.0,5.0,01-20,0.30130338668823153
11-22,0.17681503295899503,2.267120361328125,3.703685760498047,3.493560791015632,3.4202919006347727,-0.7964859008789062,-5.338245391845703,-1.9033432006835938,0.9522705078125,-8.962821960449219,8.000373840332031,0.0,7.0,4.0,01-21,0.41776847839355674
11-23,-0.21893119812010653,2.7547760009765554,4.494846343994141,3.9092445373535156,2.700237274169922,-1.0345077514648438,-5.608417510986335,-2.4336624145507812,0.9522552490234375,-7.772994995117202,6.291664123535142,0.0,6.0,5.0,01-22,0.3362091382344537
11-24,-0.07577896118164062,1.8821449279785156,5.094722747802734,4.0153656005859375,2.6372261047363352,-0.9155044555664062,-6.00902175903321,-3.1628036499023438,2.2700424194335938,-5.851676940917983,4.6224517822265625,0.0,6.0,5.0,01-23,0.37559731801350793
11-25,-0.33681488037109375,1.6169357299804688,4.381816864013672,3.741191864013672,2.4752349853515625,-0.8514251708984304,-6.558696746826179,-4.194976806640625,0.6925430297851562,-7.070762634277344,4.661949157714844,0.0,6.0,5.0,01-24,-0.12025038401285808
11-26,0.1347179412841797,1.4201431274414062,2.9733619689941406,3.5554733276367188,2.3582191467285156,-0.8697357177734446,-7.741874694824233,-3.8067474365234375,0.82720947265625,-6.153999328613281,3.0717544555664205,0.0,7.0,4.0,01-25,-0.3526231447855637
11-27,0.1262950897216797,2.352672576904297,2.8516387939453196,3.9800033569335938,1.8361854553222656,-0.4943656921386719,-6.297843933105483,-2.774566650390625,1.4043502807617188,-4.798370361328125,2.8050613403320312,0.0,7.0,4.0,01-26,0.08258835474650006
11-28,-0.05052757263183594,2.2756729125976634,3.129852294921875,3.7412033081054688,1.2421150207519602,-1.3640937805175781,-6.824050903320291,-2.8787155151367045,1.2408294677734375,-6.485595703125,5.1854324340820455,0.0,6.0,5.0,01-27,-0.06565650304157995
11-29,-0.10103797912597301,2.5237655639648438,2.729938507080078,3.829639434814453,-0.39603424072264914,-0.960113525390625,-3.4272918701171733,-2.130622863769517,0.6156234741210938,-6.553878784179673,4.938507080078125,0.0,5.0,6.0,01-28,0.08904123306274858
11-30,0.07576942443848012,2.7119903564453125,0.843311309814446,3.8561782836914062,-1.191009521484375,-1.7693099975585938,-3.651863098144503,0.23675537109377842,0.9811325073242188,-6.495346069335952,4.4248809814453125,0.0,7.0,4.0,01-29,0.0018741289774609389
12-01,-0.08420944213867188,1.7110137939453125,1.3649711608886648,3.835338592529297,-0.9470443725585866,-2.50494384765625,-4.1083602905273295,-0.7196731567382812,1.4813079833984375,-6.4173431396484375,4.2663726806640625,0.0,5.0,6.0,01-30,-0.1768808364868152
12-02,-0.21892929077148082,1.0095100402832102,1.1563034057617188,4.617412567138672,-1.227142333984375,-2.7338104248046804,-3.1394500732421733,-0.8617172241210938,-0.31740570068359375,-6.025871276855469,4.236656188964844,0.0,4.0,7.0,01-31,-0.29203701019286843
12-03,-0.11787223815917969,-0.35076904296875,0.9565925598144531,4.564079284667969,-0.5430908203125071,-3.7225608825683594,-2.30859375,-0.3045959472656108,-0.04709625244140625,-6.006294250488281,3.5452728271484375,0.0,3.0,8.0,02-01,-0.3612440427144363
12-04,-0.8840961456298828,0.6173515319824219,1.209789276123054,4.4490814208984375,-0.18305587768554688,-3.0139312744140625,-1.0510101318359233,-0.08584594726561079,-0.3077545166015625,-4.523864746093736,4.463836669921889,0.0,4.0,7.0,02-02,0.05754168828328984
12-05,-0.7822170257568359,1.1583709716796875,2.187652587890632,4.298736572265618,0.3419647216796946,-2.6290016174316406,-1.48199462890625,0.8367080688476705,-1.2119369506835938,-3.246246337890625,4.890380859375,0.0,6.0,5.0,02-03,0.3635347684224464
12-06,-0.3425235748291122,1.0810813903808594,2.6571388244628977,3.625152587890625,-0.5775680541992188,-1.8856887817382741,-2.4083786010742188,0.43898773193359375,-0.4135589599609375,-2.1109848022460795,3.7414779663085795,0.0,5.0,6.0,02-04,0.3170946439107262
12-07,-0.4101696014404297,1.2864112854003906,2.7006187438964915,4.229549407958984,-2.638080596923821,-1.9500579833984375,-0.6959762573242188,0.74200439453125,-1.175506591796875,0.12386322021482954,4.912261962890639,0.0,6.0,5.0,02-05,0.5937431653340669
12-08,-0.44386672973631747,1.7826156616210938,2.7500572204589844,4.141033172607415,-1.9965286254882812,-2.179939270019524,-0.11834716796875,-0.5199508666992045,-1.717803955078125,1.0611648559570312,4.624946594238281,0.0,5.0,6.0,02-06,0.6152817408243836
12-09,-0.46912384033203125,1.568084716796875,2.6048126220703125,4.443202972412109,-1.8429222106933594,-2.527851104736321,0.36609649658203125,-0.6127700805664062,-3.457733154296875,2.2551422119140625,5.53644561767581,0.0,6.0,5.0,02-07,0.6552820205688507
12-10,-0.8933506011962926,1.474609375,3.291637420654297,4.763130187988274,-1.5638961791992188,-1.731353759765618,-0.8115310668945312,-0.8891754150390767,-3.061920166015625,2.764060974121108,6.217948913574247,0.0,5.0,6.0,02-08,0.796679973602297
12-11,-1.1798629760742223,2.341411590576172,3.2392539978027344,4.798492431640625,-0.600811004638679,-1.454315185546875,-1.328521728515625,-1.478851318359375,-3.0040054321289062,3.1931915283203267,5.5957107543945455,0.0,5.0,6.0,02-09,0.84347438812256
12-12,-1.0447235107421982,2.667736053466797,3.0209846496582102,4.948856353759766,-0.59112548828125,-0.0240325927734375,0.7475662231445455,-0.6989593505859375,-2.1864013671875,1.9643325805664205,3.668640136718764,0.0,6.0,5.0,02-10,1.0394061406453483
12-13,-0.8164310455322266,2.3843536376953196,3.264434814453132,5.24055099487304,0.03340911865234375,0.0647735595703125,2.0388946533203267,-0.47170257568359375,-2.436492919921875,1.9362945556640767,3.0537261962890483,0.0,8.0,3.0,02-11,1.190984249114992
12-14,-1.1039085388183558,2.495567321777351,3.8469085693359446,5.168254852294922,-0.641925811767571,0.13834381103514914,1.8330535888671875,0.7782745361328125,-4.513221740722656,1.3687286376953125,1.8163604736328125,0.0,8.0,3.0,02-12,0.9322029749552424
12-15,-1.204940795898434,2.581115722656257,3.527355194091797,4.690326690673835,-0.2624168395996094,0.09237289428710938,1.3579330444335938,0.8825073242187216,-4.346961975097656,3.330078125,2.0640640258789205,0.0,8.0,3.0,02-13,1.0592861175537112
12-16,-1.2807197570800746,2.059715270996101,1.8119621276855469,4.939159393310554,-0.16303253173828125,0.1289825439453196,0.9946060180664062,2.0712814331054688,-3.5278167724609375,3.9368743896484375,0.7364349365234375,0.0,8.0,3.0,02-14,0.9756205876668315
12-17,-0.8260364532470703,2.187549591064446,2.287872314453132,5.34796142578125,-0.25304031372071023,-1.189342498779304,2.1032257080078125,0.9050140380859375,3.3458709716796875,4.4066390991210795,1.6945037841796875,0.0,8.0,3.0,02-15,1.6675181388854956
12-18,1.7942314147949254,1.7761268615722656,2.2092857360839915,5.188751220703118,-0.8020896911621094,-2.425262451171882,3.296218872070284,0.3343658447265625,4.253349304199219,5.0893478393554545,1.961174011230483,0.0,9.0,2.0,02-16,1.889624913533526
12-19,1.6936836242675781,1.7417678833007812,2.2791404724121094,4.737701416015618,-0.5320701599121094,-2.542697906494155,3.7008590698242188,-0.26482391357421875,4.2437286376953125,7.3812484741210795,1.7833862304687642,0.0,8.0,3.0,02-17,2.0184936523437482
12-20,1.4653854370117188,1.7331733703613281,0.3838233947753906,4.631557464599595,-0.6203842163085938,-2.055522918701172,2.4376220703125,-0.43527984619140625,4.484214782714844,7.946914672851548,1.5805282592773438,0.0,8.0,3.0,02-18,1.7960027058919248
12-21,1.2032508850097656,1.6647377014160156,0.3577384948730469,4.923015594482422,-0.7451896667480398,-1.421039581298821,1.8948822021484375,0.1518402099609375,5.032470703125,8.362770080566406,1.641227722167983,0.0,9.0,2.0,02-19,1.9221420288085962
12-22,1.1106357574462855,1.2113037109375,0.3838233947753906,4.755123138427734,-0.5554237365722656,-0.8876914978027344,1.289306640625,0.47379302978514204,5.390167236328125,12.283981323242188,0.2442626953125,0.0,9.0,2.0,02-20,2.141606807708739
12-23,1.2200927734375,1.2883110046386719,0.34160614013671875,5.323917388916016,-0.9710655212402344,-1.2081336975097656,0.217926025390625,0.8661880493164062,6.517913818359375,11.902305603027344,-0.003440856933579539,0.0,8.0,3.0,02-21,2.1246350606282562
12-24,1.4237594604492188,1.3920059204101562,0.4548835754394531,4.0086212158203125,-1.4571113586425781,-1.3179779052734304,0.30149078369140625,0.0505828857421875,5.774566650390625,12.597160339355469,0.6286926269531392,0.0,9.0,2.0,02-22,1.98805618286133
12-26,1.677480697631836,0.5160865783691406,0.13183975219726562,4.406623840332024,-1.5189628601074219,-1.2800025939941406,-0.5483322143554545,0.39298248291015625,4.90570068359375,10.578346252441406,0.4605407714843608,0.0,8.0,3.0,02-24,1.6435252825419102
12-27,1.5421924591064382,-0.07645416259765625,0.13183975219726562,4.167652130126953,-1.6457061767578125,-1.6641082763671875,-0.48284149169921875,0.39298248291015625,4.6844482421875,10.83481597900392,-2.6597442626953125,0.0,6.0,5.0,02-25,1.2687563896179206
12-28,1.871969223022461,-0.1620025634765625,0.6795730590820312,5.072307586669929,-2.6187210083007812,-1.6364974975585938,0.49034881591796875,0.8190994262695312,4.031944274902344,9.46579742431642,-6.1350555419921875,0.0,7.0,4.0,02-26,0.9898969332377133
12-29,1.8972282409668004,-0.01656341552734375,0.777820587158196,4.096336364746094,-2.4109039306640625,-2.0502967834472585,0.18289947509764204,0.714324951171875,4.850868225097656,7.650108337402344,-8.384086608886719,0.0,7.0,4.0,02-27,0.6089779535929353
12-30,1.930904388427738,-0.1802215576171875,1.1171340942382812,4.416271209716797,-2.103679656982422,-1.793964385986321,0.5741806030273438,1.1698913574218608,3.9459457397460938,7.405441284179702,-10.623207092285156,0.0,7.0,4.0,02-28,0.48822466532389414
12-31,2.343172073364265,0.5574150085449219,1.0215072631835938,5.251670837402344,-2.3557205200195312,-0.6404342651367116,1.8801956176757812,1.6911926269531108,2.710235595703125,7.503318786621094,-10.484939575195312,0.0,8.0,3.0,03-01,0.7898011207580566
