,2009,2010,2011,2012,2013,2014,2015,2016,2017,2018,2019,2020,ups,downs,avg
01-02,-27.655026288580203,7.100735099333215,-1.3906444587944518,0.9473285554453755,8.689144329138344,-2.472897365838365,-1.1841486970900947,2.2113651793021596,3.9968459283547064,2.695142118166372,11.073861504187628,-11.015623643761522,7.0,5.0,-0.5836598116780699
01-03,-32.941625513702576,7.809716579939156,-1.4547725538042968,0.9473285554453755,9.251015926609002,-1.027656527116138,2.857145151697582,3.24831968985948,3.9968459283547064,2.4938445238232156,12.425053181895395,-12.832691461230228,8.0,4.0,-0.43562304318577727
01-04,-34.264925605008116,8.577189110829082,-0.8222630974891201,0.7389151168404783,7.2003033493997215,-1.7909048463996102,1.9578098762738698,3.1313018631675695,2.4059877207468983,3.3595481615387994,9.661738021676243,-10.108129982253063,8.0,4.0,-0.8294525258897708
01-05,-31.743045038289196,8.6780995955497,-0.9909365753300009,1.8700375697970955,7.865169743308016,-1.1406844106463878,1.554410590929231,3.6823079670930214,3.086659297254344,3.0887562819360728,9.50694184045231,-10.986765940857019,8.0,4.0,-0.46075408990023453
01-06,-27.761071560178863,7.290614112378442,2.3652771214428747,2.537598250860942,8.550183158650212,-0.8645528472407293,2.605917140500259,4.340818704432287,3.340348349481248,3.539828012857555,9.382087472093712,-6.1522714632814814,9.0,3.0,0.7645647043330381
01-07,-23.478579622882393,7.290614112378442,1.168121766031417,2.9240817304811553,9.52556124205922,-1.334744804102307,2.042066307830106,7.234035947841723,2.6040993799969887,3.933017326047151,8.498359137299088,-5.091214721152183,9.0,3.0,1.276284816819034
01-08,-30.492061224636068,8.847583221381953,0.6908139583261446,0.7093537825290521,4.891503852823092,-3.4582113889629174,-1.660774798289717,8.052635192871094,2.3718045403135704,3.2615958079803096,6.9360148958825505,-5.3797455770248,8.0,4.0,-0.43579064473381135
01-09,-27.358128716997065,9.021250108189946,4.6048681612844655,0.7664259852594228,5.8845176537072765,-3.041825095057034,-1.8671302945620711,7.791866654468234,2.9760364281976948,4.1601952799997965,6.975813171315923,-10.271205963048873,8.0,4.0,-0.029776385603523654
01-10,-27.98419780457379,8.387254619932543,3.753301388630282,0.45985412930572833,6.693559128718393,-3.5295901054894383,-1.8541639696911667,7.877030147231507,4.108510200522263,4.958954127989992,5.306363203951628,-7.912392937840146,8.0,4.0,0.022040177390649635
01-11,-23.071082194548534,8.63737766979095,2.9823517821036294,0.7472684420590168,7.619907845199378,-2.394752521796608,-2.541180778952206,7.949899671196727,3.818806205749714,4.113393078124494,5.713146007792355,-14.539182300345619,8.0,4.0,-0.0803372578022253
01-12,-23.871468340346873,8.587736425538797,2.2114021755769913,3.379011116186699,7.443539377532363,-3.181678100986638,-3.172351825864851,7.9235362651734365,3.322342378063715,4.743045072869672,7.9004095508775265,-11.74151296788005,8.0,4.0,0.29533426056173234
01-13,-23.986230314322874,8.438822160881564,-0.312307994360301,3.8475930856653884,7.460261962755435,-3.2134014582888315,-2.856688038443671,9.149630786584035,4.284413173984073,5.001102639982331,8.116568431810304,-17.27896124424736,7.0,5.0,-0.11243306733332552
01-14,-16.908952484690133,8.870172886311797,-0.6855044354771118,3.5820862380664384,7.410088836319502,-4.935422877133319,-1.9570673166422894,8.783338868701637,4.443001514149023,4.707184680917645,8.134532454167687,-17.208311573748155,7.0,5.0,0.3529288992452268
01-15,-15.404601099706161,10.29702893636613,-1.3842936938485004,5.017459198478889,6.831741313756047,-4.55104403875554,-0.3461255526314478,10.17418739597424,4.168303269683599,4.252250298691602,7.303481922034555,-17.793698958019387,7.0,5.0,0.7137240826686689
01-16,-11.013860136253657,7.775001525878906,-2.9152671576169213,5.10466181790571,6.795593731790044,-6.001556325089052,-2.1711612990670512,9.463045347341783,5.04919942224423,4.252250298691602,7.401251256522805,-25.233050116311894,7.0,5.0,-0.12449096949695775
01-17,-6.320787318926464,8.552307262988764,-3.6982248759215692,5.10466181790571,6.20043016418944,-4.2318952676112636,-0.6584075292638525,10.5567233835722,5.04919942224423,3.586103439411028,6.7645049331907074,-21.71387118757831,7.0,5.0,0.7658953536833849
01-18,-4.077257991149805,8.913581753954475,-3.6982248759215692,4.351815959836267,6.050267299326552,-3.402092234636301,-0.9432455091400409,11.012410149057732,4.867937093249991,3.367302787585417,5.201359002055976,-31.577151646896173,7.0,5.0,0.0055584822768768305
01-19,1.4895075166579723,8.913581753954475,-2.852913108257594,4.591001067197871,6.371491771109119,-2.596604424233039,-0.40656500145638513,11.012410149057732,5.520914282497498,1.7082649910829601,7.0099283649062105,-19.885952215704357,8.0,4.0,1.7395887622343722
01-20,1.4895075166579723,10.07407859519676,-1.750689377190524,5.827552691985226,6.790899161921775,-3.5615133161517076,-0.40656500145638513,11.391248691142787,7.0576054906300385,2.779012922901982,6.911193183563028,-19.51420904746042,8.0,4.0,2.257343459311711
01-21,-2.8097491468586084,10.340541622538783,-0.020829836527506508,5.513827281772798,8.17299372180978,-3.5615133161517076,-0.6098445196222255,13.66813991199238,6.924459973316721,2.584094148327397,7.224622152298159,-19.51420904746042,7.0,5.0,2.326044412119629
01-22,0.19966544913714757,9.419743458024389,0.7144361641698012,5.1838228230245464,8.17299372180978,-3.283992034187592,-1.6813320318765794,11.236831133089623,5.627197972809063,2.377494520018326,7.224622152298159,-19.55555366299257,9.0,3.0,2.136327472110341
01-23,-1.7633111624264983,9.145873970817405,0.5520352864567795,4.974202300962485,8.54368935961434,-2.536342865395566,-0.8382077860728858,13.595240393474848,5.725441266417966,2.2212277543401284,6.320346212319293,-18.699439731755206,8.0,4.0,2.2700629165627575
01-24,1.4281033246864085,9.737169750587555,0.6941612000112463,5.232130096640899,7.394240973199412,0.4169832325349684,-0.5994653285598365,14.358907555133296,4.307088645822651,1.5515118277335613,7.968546133366658,-26.60252950174059,10.0,2.0,2.1572373257846853
01-25,0.22995957160345434,7.892720388645046,0.8779099820223238,4.642594905003648,7.485780180518456,1.2307226756198948,-0.4251975712813731,14.358907555133296,4.450225422056426,-1.6712155934556172,6.202448548431113,-38.79423023972733,9.0,3.0,0.5400521520474447
01-26,1.7470042408425357,8.045980595420142,0.2858297079560271,3.425923100224261,8.8571412222726,1.1845419152918786,-1.2543679283413534,9.709237685006954,4.976676756135057,-2.7313620355791643,6.343895079219508,-32.28480705584722,9.0,3.0,0.6921411068834354
01-27,0.5499840735462777,7.509584487405069,0.8955880965608329,3.7023431614192255,9.902913432030166,0.267418860722695,0.14290275205152034,10.016651371067777,4.150352637931273,0.5441511535210465,7.1699592307857065,-29.174980560610734,11.0,1.0,1.3064057247025715
01-28,-3.138140789850906,7.518027734734753,2.3687968521464815,5.080111423615629,9.902913432030166,-0.15730450621543024,1.413146071955076,9.559766162082553,5.063958162003048,0.39736429024198033,7.240333237965912,-28.598359756322996,9.0,3.0,1.3875510261988557
01-29,3.20196743484041,9.304702170330739,1.7177916694815047,4.8549001696736225,8.349520263954137,0.3303430635217607,-0.03175684012232955,5.801780461533517,5.618271504087572,0.39736429024198033,7.183467061035244,-28.56509431033123,10.0,2.0,1.5136047448539112
01-30,3.9875353275446375,10.133935689814304,1.556735613035592,5.1146662337695705,8.4554294554417,-0.8164554388067016,0.11079407167790768,7.661856962146667,5.581519990469199,0.4427785893970474,7.164516488913771,-21.143455938183166,10.0,2.0,2.354154753768377
01-31,3.101780187904946,10.518369724782179,3.143888738762806,4.5868229354825125,9.342015058121438,0.7312858729650326,0.2511771514847406,7.897088789882438,5.2829694268655105,0.749322943220779,6.657876949127382,-22.882980995989875,11.0,1.0,2.4483013985508246
02-01,3.6929982051077364,10.518369724782179,1.8742449117188449,2.54823033523162,8.927635689816347,7.080182168246295,-0.031486866529496914,8.154458941445538,4.023881668329903,1.7202402240396382,6.429172269133558,-16.6799302815503,10.0,2.0,3.188166415814322
02-02,3.5381163591861995,9.209863343803752,2.0556236995568495,3.8426527339555365,8.355278276702355,8.396725766688688,-0.031486866529496914,9.411918387091992,4.592764443487985,4.486250358623152,7.297373203194699,-17.78179303339863,10.0,2.0,3.614440556030258
02-03,3.377289263130307,9.411176448171426,3.4510263422609024,2.318788473889174,8.771624144534302,8.519513364167572,0.07871416357086732,7.08751631288133,4.169371572334124,5.174574133931839,6.873720073376529,-21.858433613363264,11.0,1.0,3.114573389907092
02-04,4.406564273108776,10.800508678024627,4.293029455653668,2.727272727272727,7.821328306697353,7.462017228295724,0.4722909869309874,7.868901301073934,4.054936033836391,6.900402494018132,7.090353270707982,-21.557008690499796,11.0,1.0,3.528383005426709
02-05,8.180703709211052,11.316458786590191,3.3242095878545665,3.1849409608964527,7.221045544953488,7.208817689286598,-0.25137445966449923,10.077119686867794,4.417513010185948,7.0560716705550695,5.9551516266718005,-22.513256281285113,10.0,2.0,3.7647834610102797
02-06,6.057832438979347,11.371654913981269,4.111719724818013,3.1849409608964527,6.585451240167255,6.268746679731681,-1.8685673423020008,7.4515328981487965,3.5883324017209053,6.59903938174264,5.4712987959655575,-22.236086234136472,10.0,2.0,3.048824654976121
02-07,7.823433506397862,11.550075386823629,4.074509607130611,3.2935210823468757,6.705486782851014,3.8612949753321253,-0.4260026084150728,6.058656050809766,4.403257615003994,6.532159926602689,5.689178180100705,-23.898496574346087,10.0,2.0,2.9722561608865092
02-08,4.479495401003472,11.904761449493122,3.3372161236903355,3.7459279002866124,6.382602640962041,3.0724524270735056,-0.8556503094673771,6.3477870794379605,3.325445213467606,9.977880663949735,6.759240958721763,-14.926558750160398,10.0,2.0,3.629216733204865
02-09,4.479495401003472,11.228078159415332,3.977491658217934,1.8799097951871735,7.02252017615662,3.7053890406207253,-0.36266692458879907,4.57809635950316,3.867763140842234,7.16383766993291,6.688688006618138,-14.517404970770684,10.0,2.0,3.309266459344851
02-10,8.296533138226202,12.080199274423558,2.571648201629297,2.392343086879133,7.104887347810021,4.272340138321941,-0.4888069729444002,4.8602215342048405,1.7988480576500103,8.12013673843644,5.9726391412191155,-14.517404970770684,10.0,2.0,3.5386320595904563
02-11,7.476343161493461,5.6979277906922166,1.7474206859607326,3.1948352875055757,8.419213440740995,3.6382791522295768,-0.409968690850236,3.9172577104970707,3.199374566263609,10.914584354343571,6.731478270044587,-14.76463597671372,10.0,2.0,3.3135091460172865
02-12,8.810840368664753,7.0381167700140175,1.6183767651168528,1.7247881158806906,7.930132603541212,3.472221182420291,-1.1684791447561016,2.6628716938222223,3.237126785027422,10.460706261115346,6.162877076559336,-13.439473861515461,10.0,2.0,3.209175384657548
02-13,12.895521477087222,7.900507184532849,0.2835143511951609,2.7458317533126517,7.126640752933952,1.9631729318227498,-1.6852982388404185,4.407967470534226,3.237126785027422,2.7425461022188347,5.722668572429337,-11.612713732602305,10.0,2.0,2.9772904508043063
02-14,14.764075188441389,8.213854052932607,0.765814715029745,2.912800835581444,7.672233616097439,-0.07724879700294002,-2.8693042504616066,4.6913256366154314,4.017156021121878,1.7235732660060974,7.194972419802307,-8.76293634757608,9.0,3.0,3.3538596963823095
02-15,12.5,9.597889992089403,0.8464292180293409,2.764381514444667,6.6608098662415545,0.3221338803620883,-3.0805699627841023,5.422695179401513,4.8361951498394475,1.650484174396622,7.587703111625588,-12.613584616099088,10.0,2.0,3.0412139589622527
02-16,13.473425612225872,9.597889992089403,0.8665866876903261,3.211009174311927,2.960822184004084,1.5901793756999096,-3.571428571428571,5.422695179401513,2.663001861860425,0.9919117724477763,7.589404299037844,-10.805619934533322,10.0,2.0,2.832489802733933
02-17,13.473425612225872,10.339875110204414,0.3221257364815941,2.329885528049169,3.777301445214365,1.5901793756999096,-3.571428571428571,6.164470577215051,2.506598218184168,3.446082158978756,7.361794829982222,-14.197960752725617,10.0,2.0,2.79519577234011
02-18,14.091474929800581,10.507667316591421,1.4732189339307034,3.2614712416322855,2.290489656386678,1.5901793756999096,-4.492066398499504,6.564683361150557,3.4683582523699554,5.274107812006542,7.361794829982222,-14.197960752725617,10.0,2.0,3.099451546527144
02-19,9.16308468312585,11.038505742521707,2.218186067224058,3.669724770642202,2.290489656386678,2.2868425929820626,-4.491347550774774,8.037858355308556,3.841695718264172,4.758919592837212,7.361794829982222,-13.950264330210912,10.0,2.0,3.018790844024086
02-20,7.920459640805174,10.950599135027119,3.3486078369411127,3.6343604237758993,4.980908829980789,2.3343418917749306,-5.299169332068001,8.577162422753934,3.816900834796413,4.758919592837212,6.714103654390802,-12.842417306837921,10.0,2.0,3.241231468681455
02-21,8.844950550845306,10.659181133031105,3.3486078369411127,3.6343604237758993,4.288070671933377,2.899204317295254,-5.508669310818832,8.3700366921556,3.816900834796413,5.700237332340445,4.252548125754527,-8.781815330413416,10.0,2.0,3.4603011064697324
02-22,11.246200118421783,10.909091232438817,3.3486078369411127,3.726135822969477,4.103126472585292,4.039950820660327,-5.660069121923819,8.73761299313584,4.2424252560397155,4.419833656670483,5.692631073683072,-2.122682430562109,10.0,2.0,4.390238644255
02-23,10.581826361310895,11.282051236450934,4.723936652147955,2.5302549412358974,6.058421683768608,4.8062701390000715,-5.391214245176184,8.649861084185115,4.754557906389035,3.6531178403740707,6.765815409836029,-2.911794438292299,10.0,2.0,4.625258714269178
02-24,7.247360343657633,10.372961782425682,6.960782817765779,3.024230034378839,7.2293471943057765,4.211301086575694,-5.438934359968988,7.346111605316685,4.654439483071577,3.783783521526416,7.723060320326438,-2.7375314667657835,10.0,2.0,4.531409363551313
02-25,6.022451810728721,10.997675247287095,6.482378986950955,1.8982654094335232,7.7876133201396565,3.8690455240996706,-4.723278237207103,5.395781871168676,4.8786711953243795,2.575661642003231,7.622343729961885,-0.6020690228360763,10.0,2.0,4.350378456421218
02-26,7.401208796543511,10.892698233902848,5.770737137280091,1.480657514593719,7.150444098278484,3.3630872164720453,-5.274870641818901,7.969375564508646,5.398196137160092,2.544286320729257,7.849740486782261,1.5239912512450566,11.0,1.0,4.672462676306425
02-27,7.331575859845405,9.48955985472641,7.079479114274981,3.253364050590013,5.486722963046196,2.7464347644866183,-4.0764762106706165,6.719814963519964,6.125527105218722,3.91841273868886,7.7587762323754905,2.4947583326365272,11.0,1.0,4.860662480728214
02-28,12.735694474922624,8.641691745843968,7.596399037083483,4.125773244051946,3.970090110256109,1.444744160740458,-5.908582625223708,7.781810580451549,6.0877166934698765,4.0042976874212135,7.053443404808239,2.929315185652883,11.0,1.0,5.0385328082898875
02-29,0.0,0.0,0.0,4.071249836114299,0.0,0.0,0.0,7.816408293598494,0.0,0.0,0.0,7.994315023645158,3.0,0.0,1.6568310961131625
03-01,12.066669464111328,9.173463030077489,8.958376919157459,2.862387840900959,3.466326394840373,2.3467857384381112,-5.925456025860695,6.82841314030596,4.134105029861764,4.588334943510746,9.522528078185465,6.835760436463401,11.0,1.0,5.404807915832698
03-02,14.322837361582494,8.474969324771951,9.015923012927296,2.901989644131013,3.5230298139103224,2.666866570738477,-6.314949338319254,6.9409648398070445,3.7822100803483005,4.044509754253657,8.722600710646713,5.904796413408383,11.0,1.0,5.332145682350534
03-03,15.16726189487988,7.706638683338833,7.142860265221984,2.1280496847013697,4.812828915650866,3.0999649876189252,-5.3397285265016565,5.1582846765792025,5.30510831174522,3.315506389434325,8.656955625989283,6.649708914484373,11.0,1.0,5.316953318595217
03-04,13.543358078274762,9.332117376800653,8.598669343427712,2.4144864441828897,3.7317462579244447,2.477007140760409,-4.908079211778029,0.0,5.11727287002538,3.356851997985396,9.928195364444449,2.3982552195994615,10.0,2.0,4.665823406803961
03-05,16.82243346823281,6.25000553946501,9.577893617101166,2.1639470595840047,3.010639889835244,2.2100235897897833,-4.7688079571869135,1.4703933322763703,5.673311216332917,2.3336172101209316,10.052297299271387,2.895030277466853,11.0,1.0,4.807565378524131
03-06,16.74813036022285,7.350582136628887,8.801070096116812,4.346229570767161,1.9650263720944048,2.1431796235787006,-0.3434716328285045,0.03960234890676568,5.966433318140927,1.9338817661422516,10.921017606108192,-1.0928996314112407,10.0,2.0,4.898231827872267
03-07,19.24673061388315,7.031253081582016,7.939870842832707,4.291216220375784,1.924459935591978,1.4247104737467036,-0.34396689157635385,-0.2117571033340738,6.190175160283675,2.61451840187591,11.610621899630129,5.018257403677195,10.0,2.0,5.5613408365474015
03-08,19.22094673186891,4.800002154181985,4.16265151824806,2.8451601699700473,1.3216675411377854,1.7680556531997675,-1.873016357421875,-0.30439831175912274,5.605959823388757,1.2840273958219843,11.752303410403062,3.8935209410839575,10.0,2.0,4.53974005584361
03-09,19.860628819681654,5.458822811351103,5.01059646310146,0.33507129762762944,1.2841113333724306,1.2204386838450079,-1.7115718814123642,-0.38380217694218377,6.80673418979279,1.5066110529630967,11.302382524268367,3.2519584610537686,10.0,2.0,4.495165131558562
03-10,16.661388279152213,5.1999978458180145,6.465432898693065,-0.018657065692731296,1.40719794106911,1.3838835016302762,-1.0301133781254976,0.9071717514586729,6.250766106302209,2.1767286702935738,10.485219311786715,0.8296802799142464,10.0,2.0,4.226558011858322
03-11,17.199874430363092,2.417794935306941,6.086615360996066,0.3532300393610939,1.9659947367176442,2.1359893601626254,-0.41204776944186805,0.6554798217114088,6.9809744117086,1.0680071208789388,10.500922401111515,5.512110190400176,11.0,1.0,4.538745419939686
03-12,13.487472504533827,-0.14873914988611228,7.368418132289188,0.22338559913470468,1.948279298544321,2.166068544965074,-0.8888910687159092,1.7113065130807983,6.947142487539566,2.345095015754913,10.29037279354778,10.495875193610262,10.0,2.0,4.662148822033202
03-13,12.563776968668384,5.123339315060969,7.6335875639707975,-1.2844352401895682,2.0014121001442504,3.823081767667904,0.09499900797335752,2.3871353445451513,7.3850640083808266,2.646298524849659,10.272830339436771,10.359899112909932,11.0,1.0,5.250582401118202
03-14,11.965259874869586,5.190800421886166,6.219723012033495,-1.3775090226251459,0.8577547356849666,3.1235835952082747,-1.1576269050725256,2.0695092143580776,7.6505415194361746,3.108863401582328,8.946903195001383,17.336093244680892,10.0,2.0,5.327824690586973
03-15,12.163026401598255,6.2792883927200425,7.614803833944404,-2.4640651527794453,1.3984791857927685,3.7629643192997686,-0.44087954872328367,0.8720527827379267,6.79377904696004,3.742405482426403,9.286967926118997,15.459355619630902,10.0,2.0,5.372348190810565
03-16,9.280739907125966,5.48266198654202,8.312344244899867,-2.5285677172719834,0.7502646880667106,3.030301304718756,0.8394231309762896,0.36443937605595567,6.724821888347742,4.390708823258349,8.058513937374835,14.196447154337097,11.0,1.0,4.908508227035966
03-17,7.325160710084969,5.107779497629043,9.643608262952535,-4.318743058388412,1.3143834348090122,2.7253664691417585,1.1192308413017196,0.4766135904651336,6.490353577962036,3.65214047531365,8.204995571804465,5.828940956291943,11.0,1.0,3.9641525274473213
03-18,2.0881642664019178,4.826119927691318,8.23934479094024,-5.508307656872784,1.9587027201680036,1.9616615491761635,0.5907058251190543,0.10393897594634426,5.796927356583213,2.323560722153269,8.415753231258167,5.5360264306902796,11.0,1.0,3.0277165116045985
03-19,2.1809898804349195,2.4503797264130247,7.426297480079523,-6.454761022005612,1.51755218535645,2.875109619709313,2.4076057611815793,0.025845312747505587,5.978988432053925,3.827241603608343,8.512892592284908,3.4940482754671764,11.0,1.0,2.8535158206109212
03-20,3.7846651283832333,3.73514657440091,5.788458310640776,-6.084248870617459,0.035286119132736,2.0006056800018404,3.0214685555425795,-2.62598897542394,5.396211117255674,4.019672973518563,8.203815869639465,8.857140752482282,10.0,2.0,3.011019436246388
03-21,0.6129049485729472,1.5625026609216794,7.96542908178165,-5.850234148623227,0.5479960667551121,2.1016017575984227,3.4572100911576857,-2.8305611341102574,6.696648296033865,4.222797240726807,7.510296774152138,19.414307176633997,10.0,2.0,3.7842415676334014
03-22,1.439541777493933,1.4157966184498312,8.115723712145508,-7.69844566681122,1.4543508337055342,3.662006472447442,4.085333784009027,-3.7475079000986296,6.59941709496241,5.713368827041735,8.744943799430471,19.08801929141587,10.0,2.0,4.072712387015993
03-23,0.7409840296425451,0.7699890002924981,7.98421949379834,-9.23541264009514,1.8576960178399056,2.461624642585865,3.162236058318599,-3.8405307503633717,6.062814419945879,7.2573761144820335,7.546000274426012,19.61498193526626,10.0,2.0,3.698498216344953
03-24,1.9329908626697079,2.757071142401442,7.284394202840973,-8.623411149584175,1.7371497619043954,2.771878665117038,2.994193571471612,-3.393454866142092,6.969399977211863,6.169559536178934,7.904477401617072,15.659424892299931,10.0,2.0,3.6803061664988914
03-25,0.41881786172951785,0.1542451695049386,6.759328267552914,-8.558999808850414,1.0775492029230245,2.8173175939601394,3.788572528141988,-3.9559214856019866,7.5084426198406256,6.119625432127336,7.635880930741605,13.628965480151297,10.0,2.0,3.116151982685082
03-26,-4.639170696636946,-1.0591574712193044,5.159037580611954,-7.580801155184503,-0.07066051068019628,3.710992233895363,3.788572528141988,-4.706507019624344,7.89758324559698,6.249333066505878,6.8139628638973475,7.863237645730112,7.0,5.0,1.9522018592528607
03-27,-4.424198806535816,-2.592688638610987,4.993199210942479,-7.326154229894061,-0.4062878285754178,3.5292307404291847,2.6802185964969185,-2.5268399771897276,8.118475467823059,6.38749573892339,6.743265382163885,10.552856336804421,7.0,5.0,2.144047666064777
03-28,-0.880053634543539,-3.505101147352787,6.069918870638634,-7.619979329645952,-1.3071857547979202,2.5030363648526777,1.2403088946675145,-2.567123934045657,7.57884607396789,6.0899096084155735,6.1511259307237625,4.395808928888887,7.0,5.0,1.5124592393140903
03-29,2.1498527216864813,-2.592688638610987,6.223591227427554,-7.5612158041901285,-0.49391885831204474,-0.1666928533300807,0.4220735541838579,-2.829081473841169,7.614820147017949,4.527574314635626,5.816217907288672,8.279324000145403,7.0,5.0,1.782488020341761
03-30,-0.8143322273196684,-3.0334508501424304,4.686904297044591,-7.2659596253229095,-1.3340447949400096,-0.22744735833216526,1.2096813793206482,-3.1172297712870356,7.830673734370445,6.487289751474681,4.622333486758951,10.724122050244313,6.0,6.0,1.6473783393224508
03-31,-1.4332202468221134,-2.0222939732134466,3.70726134126836,-8.67417375361684,-0.8854258707129071,-0.2122489260031059,1.4888381656182186,-2.6981077002726095,8.508619765036412,6.536991290585694,4.596990585705704,11.559308559278858,6.0,6.0,1.706044936404352
04-01,-1.2703562865029048,-2.4112012251339987,2.308581711249124,-8.459871806309966,-1.244003478309693,-1.6525227143942594,1.2872236163825475,-3.4803035746353532,9.387229513466735,5.765724353427004,4.427682341518799,14.517995134812168,6.0,6.0,1.5980147987975168
04-02,-7.586198688721327,0.7259096620502942,2.0869235346373127,-10.28674790052045,-1.7060584266268715,-1.7889634953824003,2.077835916076905,-2.2945349837511895,9.569439176335846,6.4176232844316425,4.862463066485956,13.844083476242059,7.0,5.0,1.3268145517714816
04-03,-5.933564113700085,0.5017580528774837,4.232213617325856,-10.808100070365736,-0.6575420808153134,-0.46707480151447556,0.6115718783893536,-2.135647787026336,10.0694094493383,4.682845432898719,4.640635198899754,15.441239826275293,7.0,5.0,1.681478716881901
04-04,-2.1137716626673813,-1.5360943497850692,1.8802754457402986,-9.86565488072816,0.9958132299215408,0.8259430133806932,0.8137722149397392,-2.2017932881682922,9.728272044044967,4.523201406354986,4.766103039639189,9.567399217285175,8.0,4.0,1.4486221191631408
04-05,0.030438636776281367,0.4767845269363586,1.0744389295280041,-7.2429487196860665,1.1107211822225551,1.6240629038416352,0.8913208569569779,-0.6864380074878936,10.504646607190118,2.079720727136175,3.9992927637949074,10.091904692952427,10.0,2.0,1.9961620916801233
04-06,-0.15243670190101338,0.2760271012951975,1.1128127940206292,-7.739759916941895,0.8091452890399886,1.208098817593625,1.1849054081155268,-0.997285690443415,11.279855223707267,4.602777619465985,4.41989035296071,11.05225704270978,9.0,3.0,2.254690611635199
04-07,3.3536539625227233,-0.12547817734619207,1.9819175866862129,-7.825567920447658,0.33581200999884847,1.133444190349075,1.605860288584765,0.0,11.780375249901772,4.219048645558946,5.8157650241448176,10.734459890316664,9.0,3.0,2.750774229189164
04-08,1.0365858551720124,-1.00527193259134,1.5444787721612139,-7.440475965212991,-1.093583047151233,0.4836023933492955,1.1225463479179985,-0.20725863786840243,10.436807505795807,4.280235010050948,6.949542884421868,8.094984346540466,8.0,4.0,2.0168494610488032
04-09,-1.9786957566861936,-6.39625362202836,0.9891196984102559,-4.982550607970115,-1.1832195443809483,-0.10578766323295861,0.9230230832160239,-0.3502455380559245,10.049138546960982,4.270047896769933,7.658152310805103,4.342788276340563,6.0,6.0,1.1029597566790301
04-10,-1.2638713463894387,-7.864276243476412,1.6119514685310101,-3.4121718864956763,-2.6353554192774893,1.2325262436039668,1.2289936462857125,0.16776004258834673,10.269579648775414,1.2671732456617824,6.906852665920759,9.744270637629667,8.0,4.0,1.4377860586131366
04-11,-0.3053388522781272,-7.92104821456106,1.0869550467315505,-4.497866639134963,-2.1321975639076904,3.5613162984829416,0.5019603056066176,0.46320201324915217,10.234571154852933,1.7676537082056891,8.791482491641013,9.887306899006514,8.0,4.0,1.786499720657881
04-12,0.5148454914773156,-9.011162907756603,2.4110621399125596,-4.92876673272494,0.17543591951070325,3.0343608711377037,1.1223713228013776,0.1672733926538709,11.039793225518094,0.5791515743236034,9.522638438907698,8.997957354622285,10.0,2.0,1.9687466741986388
04-13,1.4401540070915102,-9.383313913393774,1.9367580470136432,-3.2061073592642613,3.1474021337358464,2.889907480091462,1.260892879092976,-0.6047365071038183,11.085040408495235,0.9716032741065561,10.818050396849868,8.321391048295489,9.0,3.0,2.3897534912508944
04-14,3.990404314396067,-11.057947808409713,2.7794127606215127,-4.829051531571095,2.5681602878798104,2.1171112087378545,1.4632606755411033,-0.8484329926047149,9.784010196754643,-0.5222744248170972,10.352424744532298,6.8255130672175355,8.0,4.0,1.8852158748565169
04-15,2.9102945316953335,-9.715026290776002,0.3373055128882884,-3.628034303285251,1.1775198151576676,0.8558554172425464,1.930258258101333,-1.342714952345551,9.562272430812179,-0.1699373660348588,9.644797806307617,9.593334954340493,8.0,4.0,1.762993817841983
04-16,11.166615848873864,-9.506765408798,3.615161482546296,-4.425628599262561,0.3389806053438022,0.300295724961509,2.7323255497333574,-3.711902213379005,10.338829926384046,0.010604470168380845,9.866798001151372,2.3021597370541067,9.0,3.0,1.9189562603980974
04-17,12.786597069186744,-10.079498131052798,3.8953456995570956,-4.868190725169734,1.8554878317280865,-0.7110457360859419,2.6943351333726344,-4.17320082434188,10.41159809499547,-1.9189965696035292,11.445490448922921,2.296885112876094,7.0,5.0,1.9695672836987637
04-18,13.397419252521045,-6.8725058068222475,1.9766752262973573,-4.8297061046311764,4.747776535583754,-1.0088813913551546,2.2716591660704206,-4.336998914870572,10.063768469769022,-1.367685453457579,10.362824726417449,-1.45147398362802,6.0,6.0,1.912739310157858
04-19,12.583382886999491,-5.58424737480333,0.830207516062032,-4.1237109648074295,3.4361834730249945,-2.193788017666163,3.220339142448989,-4.101149457460277,10.086952983469203,0.06324853279330149,9.293027207124377,0.4190305901850838,8.0,4.0,1.9941230431141894
04-20,13.005430130721903,-5.23984544517658,-0.8104365411652131,-5.012433344059052,2.940147572840423,-1.1307100547204592,3.0859377575111933,-4.520436271013449,9.752990066923315,0.5056845099014292,9.353414358854675,-0.028059843110353234,6.0,6.0,1.8251402414589863
04-21,10.65177683859436,-5.53505514278416,-1.3814896156212564,-3.116684574188926,3.278690378640303,-1.5286849415705235,3.2248054569066804,-2.7189566419015523,9.26119763478997,0.516657404776561,8.837557743229004,0.7389401257754503,7.0,5.0,1.8523962222204924
04-22,11.31563086621947,-6.446027877154506,-1.2678276455073276,-3.4903643061332734,2.014133251557724,-2.3460013000109585,2.977930200866991,-4.361495609175938,9.740630487887248,-0.10609917678630636,8.77648692364881,0.5705739308357827,6.0,6.0,1.4481308121873093
04-23,9.487726307568684,-6.712737388881173,-0.9279316719580651,-3.8667622093493232,0.7773827536588407,-1.7103031007074307,3.56978418292125,-1.8036509236609415,9.886058692864932,0.3064253142409293,7.830169849063083,1.8412947565542674,7.0,5.0,1.5564547135262543
04-24,7.991489434702653,-7.481297042781879,0.3508777930853007,-3.4264874489234898,0.17667575409355446,-1.0197964937966546,3.0632561984301607,-1.7250210255230158,9.999996492232398,1.5426871237198554,7.930659852837871,3.2341968186700516,8.0,4.0,1.7197697880622336
04-25,5.590258869260367,-10.512816600310497,-0.058717516553701866,-5.321590141607487,-1.5365120730480053,-0.7654242192007696,4.137403182401002,-0.9066519047474301,9.50574326789242,1.5743849042464224,8.647025141023766,-4.676893199971581,5.0,7.0,0.473017475782042
04-26,6.147158020848311,-11.686961139415173,-1.4679976468193645,-6.59104021413039,-0.6541897480233874,-0.7681912048789299,3.6667679939526687,-2.0687048870993765,8.804601910470545,-0.1933408250547026,6.667782934837302,-4.784064848147798,4.0,8.0,-0.24401497112169132
04-27,6.234497616583446,-10.6504291114286,-2.0356251955788203,-5.935807467837633,-0.9483797660059348,-1.3636386755740788,2.5756339973886044,-2.10701261310132,9.249019589406407,-0.896040003956791,6.280517899595163,-6.267697976806194,4.0,8.0,-0.4887468089429794
04-28,6.947895663302363,-11.298265335868821,-3.030304850010036,-7.4935896384665925,-0.8931787428326664,-0.7681912048789299,2.591153216479482,1.0606419772831777,7.488478999389121,-1.431980571115384,8.045595622166875,-4.946193829538287,5.0,7.0,-0.31066155784080807
04-29,4.497520742711128,-13.913496623178032,-3.6356453870730534,-7.769862293808003,-0.7096058881824481,-1.0995682537201774,2.948018310547742,0.9771986970684038,8.503553000477867,-0.8521205083904002,6.642065004054944,-3.907871714405728,5.0,7.0,-0.6933179094914799
04-30,5.85557782596044,-11.099636166125036,-3.507055022373229,-7.4512099613755325,-2.074234731875225,-1.5514366452268307,3.4380820262001315,-3.0160858525761634,7.68785362799031,-1.5200885440538725,6.709158120868065,0.4832682624911661,5.0,7.0,-0.5038172550079815
05-01,8.003597204567953,-11.289491083048308,-2.3440583576271967,-7.766604893084329,-0.9279515005933872,-1.3271073973949374,0.666873887700499,-1.5325617588833205,8.282522630813222,-1.5635205920343984,5.392486095581755,1.4667673720291612,5.0,7.0,-0.24492069933110713
05-02,7.280263170075445,-14.289450969108838,-1.5180647610089273,-7.490635267790186,-0.3428959163187187,0.49246652818156617,-0.3451481019966474,-0.16944375827628194,7.741865102159549,-0.49945612605186335,7.034144662355195,2.2334118456807652,5.0,7.0,0.010588033991754972
05-03,7.225349425474077,-15.468002436080623,-0.6533438635786737,-8.50980240577326,-1.4127922603308096,0.40293129958722024,-0.2979435868670329,1.2643394229266085,7.454277388916306,1.7150214147255969,8.436543487795547,4.616900913871702,7.0,5.0,0.397789900055555
05-04,7.225349425474077,-15.071392937423836,0.2882427425825617,-5.230170467278392,-0.21447529981849675,1.1405780596882855,-0.2979435868670329,1.511996407263279,5.896633830600974,1.1993951061574664,7.443470065077933,4.616900913871702,8.0,4.0,0.7090486882773767
05-05,7.2549621845687655,-12.374405983446515,1.3259078194988496,-4.975516069515217,-0.21447529981849675,1.1405780596882855,1.2074650340855193,0.8602758754014084,5.2954033007077985,0.621111821288822,7.443470065077933,5.733171643044352,9.0,3.0,1.1098290375484587
05-06,6.514660151370168,-9.360129413252755,2.0634349023808474,-3.495560865124428,-0.483871794722797,1.6886377626651505,1.0506538793054199,3.601666337727555,5.008057153527905,0.8441001357460166,6.8965551313915245,6.358280526110713,9.0,3.0,1.7238736589271102
05-07,8.707127433477064,-7.230200153987205,1.8595072262501604,-2.017897197646188,-0.609319278201842,1.5256980398525173,1.3312427477435334,3.3093282528522296,5.248047311356916,1.2660866465137224,7.746478568806127,6.2322207743767395,9.0,3.0,2.2806933642828144
05-08,6.80535159490616,-10.859850646020938,1.7118131114073156,-2.3986334770810114,-1.1827954416417965,0.05993544622071174,0.9876172739823297,2.756603322275622,5.4759980858776665,2.3725883372943817,7.730292197656538,6.471255425251312,9.0,3.0,1.6608479358440242
05-09,6.214181835505658,-12.908408342601904,3.5443940074674267,-2.2653768685699145,-0.14316037012940458,0.5674255276779437,1.221802596228924,2.781299049309978,5.510364885032481,1.095859987984845,10.260481541312215,7.765056751481181,9.0,3.0,1.9703267167249525
05-10,4.514745573410718,-9.4780620227604,3.2674851447219004,-2.0380946568080356,0.2295960011839027,-1.6260190617705297,1.9284628609872063,2.1081992351420347,5.063579015450638,0.7933149912597677,8.835568639998746,7.676946461262905,9.0,3.0,1.7729768485065713
05-11,4.043213924680454,-9.555960699998446,4.725858676623236,-3.7504864739846684,1.6168751475764749,-1.9021771993740302,0.5989868563111401,2.425699878757155,5.4747439158831925,-0.22321330823288532,9.02491733591802,5.862040847155306,8.0,4.0,1.5283749084429126
05-12,3.8271654940397712,-10.828361894035412,3.4412935712803847,-5.249397719774724,3.148788440912748,-1.7792525793209126,-0.11034000053517524,1.0956817859062946,6.42524267001278,1.8191332863268344,9.083579165622071,7.95183151745906,8.0,4.0,1.5687803114911434
05-13,6.882720199268473,-8.273564207196685,3.504884234033955,-5.7812826759233005,3.6322957562560148,-1.0102505609595183,-1.4029054596653294,3.534277055353987,6.4212973979358985,2.8508977696067195,8.723093234805212,9.30665200374464,8.0,4.0,2.365676228938339
05-14,5.243673508961588,-4.027534666049651,1.0286198601111367,-6.296978097996419,3.0814269423746934,-0.6936053778488934,-2.838667783302334,3.4912662455215355,6.283317489597735,2.4142950995253885,8.577438353344801,9.933195182455945,8.0,4.0,2.1830372297246274
05-15,6.29776681015029,-5.474544336901882,0.8803169621205343,-5.098521551025083,2.4444861076133386,0.42257586820052273,-2.3869293903613,3.7433179942122488,7.136441744156007,3.7416406977802117,8.367052770739487,11.70073710771671,9.0,3.0,2.6478617320334235
05-16,6.96278426192362,-1.1779129870830138,0.619721748459507,-4.164126053468231,4.635873253788878,0.3165020185412328,-2.178651539585905,3.5273609779926733,6.9566219463666785,2.236621428535546,7.9906436872725735,8.181256064823824,9.0,3.0,2.8255579006306153
05-17,6.99070417957119,-1.3520138469383678,2.3474178403755865,-2.2222225678738092,4.3252334703384,-0.13525148279585317,-2.69002982849914,6.020193978512743,7.529786833970302,2.5590108657912505,7.803261159588802,10.454815826635185,8.0,4.0,3.4692422023896907
05-18,11.428571428571429,0.884957245946134,0.03755954509609742,0.28089765092259567,4.518067309364859,0.2843496591948762,-2.69002982849914,6.207158355432394,7.3225748221708855,1.3808423632995814,8.037746014150256,11.662425633626384,11.0,1.0,4.11292668327303
05-19,10.685713631766173,1.032453246046659,-0.8948994984893377,-1.8533480962017008,3.987883088868762,-0.4220026913882604,-3.3625238619938567,6.659189181577872,7.905624142567559,-0.7717882019907891,8.21695554211443,12.018658172650671,7.0,5.0,3.6001595546273486
05-20,11.314283098493304,4.328574343674578,0.2658552792519948,-1.485350628261209,3.907038822991795,0.8138672614106809,-2.377229418845726,5.743238792608193,7.740287901517169,0.6656775755292985,8.491862679049595,11.441897955199341,10.0,2.0,4.237500305218251
05-21,13.989931932099244,2.811957557352625,0.13557949520832713,-0.4969190880060719,4.0249231166345805,0.4973652428694909,-0.9642225315112964,6.407211252587845,7.688880867095077,0.644684625496481,8.13567191910927,10.363358706298294,10.0,2.0,4.436535257936156
05-22,12.692086402786027,2.8952706206854333,3.6981686745957707,-0.556546952204052,4.664871013704054,-1.3685981952251947,-0.8915997060898989,6.066317086709762,8.047508374634875,0.6975307999906293,8.402814989064513,11.976551816591401,9.0,3.0,4.693697910436944
05-23,11.697377358333835,4.1977116174023354,2.8452955157647426,-1.4708762543631735,5.248208437653592,0.09084812296111515,-0.015638111903763362,6.861770768151736,7.659001195432763,0.5601420347777002,9.166935887687657,8.164974255190689,10.0,2.0,4.5838125689241025
05-24,11.151683942459789,4.1501041600011375,3.0148831417406816,-0.6902036977664564,5.639477185447539,-0.8409715742065562,-1.4109057764964938,4.881700684137188,7.43700435186305,2.3876289920471505,8.48460380165182,7.3024176943076435,9.0,3.0,4.292285242098875
05-25,11.474952236210157,4.9950349214474805,1.9031436354647249,-0.9978048172218772,5.315221665638571,-3.4834417416472467,-1.5396844773065588,4.919059062912764,6.187286077128503,1.7748976507709526,8.330628313700672,7.552740040710719,9.0,3.0,3.869336047317405
05-26,11.474952236210157,4.1501041600011375,2.219714651171552,-1.8682208276038652,5.203959190871764,-3.58096253316516,-1.5396844773065588,4.390795633016399,5.742374334686725,1.9234831225506437,9.324552575020192,7.552740040710719,9.0,3.0,3.749484008846975
05-27,14.077802529358927,4.971456011115251,1.5271518840677272,-4.020510942508013,3.7989770242801133,-3.58096253316516,-2.3492116776723937,4.12627359259431,5.499662664091469,1.5197914948878477,8.427284704756541,5.021094471090466,9.0,3.0,3.2515674352414243
05-28,15.627595915219237,6.6510541026800345,-1.2706277061616595,-2.7558270565393035,3.7989770242801133,-3.5966718727569855,-3.2500781444960443,3.3645965161864364,4.679221345856471,1.499003217586073,8.427284704756541,5.7750792184160735,8.0,4.0,3.245800605418916
05-29,14.004439689649095,10.144926900328217,-1.5981737645363387,-2.7558270565393035,4.1396938221336015,-4.044523897203269,-3.271255802046432,3.78580423411428,3.9972708842335085,1.499003217586073,8.589507574536338,6.276818830668331,8.0,4.0,3.3973070527436753
05-30,8.737593846963673,9.83379120854929,-3.749757644069085,-1.0536990351405273,1.8854961797121272,-4.866135965182064,-4.105572521849831,3.085799105374072,3.9972708842335085,0.8128409639759381,7.655382503163903,7.033792584483052,8.0,4.0,2.4389001758511717
05-31,8.006871472741462,9.66697535365127,-3.749757644069085,-1.7265544508003865,2.1056220830551675,-5.7065651904234915,-2.5682220038721204,3.085799105374072,3.4635424789035016,3.903403780485316,9.012773245430733,5.616268285825989,8.0,4.0,2.5925130430252024
06-01,7.076836621976421,9.66697535365127,-1.262867098826078,0.7699964315823948,2.803903500227584,-6.179145562644704,3.692535048358435,3.1485224508233274,1.9772702997381038,9.844513831484102,8.732194212358754,6.220014764333205,10.0,2.0,3.874229154421902
06-02,5.083761917485998,7.839970103502332,-1.4246672879074314,0.5150521471690128,2.6374395129731067,-7.0681039228918925,3.6171782462327267,2.55731777467335,-4.883980551207318,8.429267697217988,7.89919955750621,5.672921473166067,9.0,3.0,2.572946388993346
06-03,5.25707611489269,7.443593016983521,-0.19589087230730853,-0.41992182807074074,2.6374395129731067,-6.617292819131861,3.3308200984128877,1.2535218126223442,-6.07932552871949,8.366689123587925,5.775903204150361,4.6544894309669935,8.0,4.0,2.117258438863369
06-04,6.089196958231484,10.70350741355021,0.8823544371361826,-2.031694382769287,3.09984171521439,-6.536785571882751,5.303706416377315,0.32324801116847135,-4.047989639336126,8.366689123587925,4.37943775357635,4.893566358454063,9.0,3.0,2.618756549442352
06-05,7.101946369635863,12.657933553983458,-1.2620214167138155,-2.39739999169165,4.469944575499113,-8.887071097842453,5.1777579124157915,-0.6265444768502003,-4.37689784087671,8.308114918359967,3.2143443212294303,1.5624960677490374,7.0,5.0,2.0785502412414862
06-06,8.2118841931477,12.476975921479042,-1.9153241777519772,-4.794799983383344,6.059090431247982,-9.78242996523591,5.246728364066387,-0.6134084761952843,-3.927055753110752,8.317872320299008,-2.27118565310369,4.281140800838217,6.0,6.0,1.774124001858115
06-07,8.748953588876601,12.798161035875829,-2.560484872648342,-6.938437210333927,5.753967540634757,-9.530795351936305,6.153393620487434,-1.1354673531727457,-4.182373788943769,9.45815223893978,-3.3045260437295805,4.248862585423082,6.0,6.0,1.625783832456068
06-08,7.8503118842307025,12.844033647030951,-2.0161290942816303,-4.674390907700531,4.635655390039293,-10.267347893876725,7.353579041018003,-1.4356544436043681,-3.64741641337386,10.028813607146272,-5.244276813822054,4.03852547705954,6.0,6.0,1.622141956655466
06-09,7.090603243802083,13.715595760366291,-7.693932612856237,-3.581434437618747,3.8338700978543505,-9.281539103840087,6.772265946887636,-1.315449534108104,-3.994658682790046,9.970251876910872,-2.9234881091821663,4.976342817907445,6.0,6.0,1.4640356052777739
06-10,6.218342789932528,11.569307847019896,-5.571846991810851,-3.4365659279161687,3.8823552492286098,-9.11898041923101,6.6414763217114325,-2.10210299952066,-3.263239844509358,9.396429811856398,-1.2822599964129429,5.677594783752819,6.0,6.0,1.5508758853417246
06-11,3.0208075482520065,10.600866669228989,-13.676541473624521,-3.705934208085019,4.4537840771074055,-8.2574739573435,5.250846603870605,-0.8008410463639228,-3.263239844509358,8.877233363366294,-0.7562042916753939,11.397249060623531,6.0,6.0,1.0950460417372598
06-12,3.6806320733095825,10.920719052560637,-8.33859537694694,-4.907854272445825,5.798320609982274,-7.340039799717892,6.120074180028643,-1.052902588862912,-3.5887475315237447,8.556718761589792,0.03287926543091803,11.647798230313155,7.0,5.0,1.7940835503098072
06-13,4.885711669921875,9.703563216989485,-13.301037075144496,-4.106576776745766,5.054688812309751,-6.494552617251801,8.080666009497046,-0.7347120829507959,-4.485932101906433,8.391607873422593,1.7498180823787184,9.905979775974894,7.0,5.0,1.5541020655412556
06-14,6.278151783494454,6.878426861446144,-13.631355753157415,-5.117397438005607,5.123083950561991,-5.598454875770418,7.097432264310126,-0.28863974964535627,-4.570800787618404,8.700674478118948,0.8176457533800147,9.705323290207483,7.0,5.0,1.2828408147768302
06-15,6.776808263760417,4.084067657261074,-11.407179745830778,-4.770497288498776,5.114582810728698,-5.276665591087203,6.557141925376174,-0.13119715628387033,-5.790701873390243,7.286578711276133,-0.10829494537362455,10.737567168263785,6.0,6.0,1.0893508280168154
06-16,7.644916304193859,2.9137746289188846,-7.011615209742295,-5.282111672324996,5.318971276940707,-4.0088714226408895,5.641170866937984,-0.5256261943486538,-4.6384192682060075,6.469433026896023,0.8661962062235012,9.060883461818655,7.0,5.0,1.3707251670555642
06-17,7.196862953552113,3.5493041448712632,-5.606695288601405,-5.303177199210707,5.256179591211977,-5.102204388467344,5.772028629198127,-1.0187835729186583,-4.631523541525953,7.001379470495499,-0.9068787171597767,9.467349498252133,6.0,6.0,1.3061534649747724
06-18,8.284680125396084,3.1780121023895775,-4.605542010044568,-4.487685254453044,4.924558370211598,-4.690221923381102,5.446910332784443,-2.8079506577245446,-4.833836858006042,6.414051938908227,-0.33588171817889656,9.728315141638515,6.0,6.0,1.3512841324616873
06-19,7.165023584943729,4.2273716334293745,-5.564822861851415,-4.1104044275939255,6.151554990368391,-5.6065900376104745,6.555033134414377,-3.2730161849537303,-3.8300380985741476,6.996246885830707,-0.26871049967186367,9.190648650503723,6.0,6.0,1.4693580641028954
06-20,7.803049583046883,5.956850262394635,-6.028890601878074,-3.7331236007348214,6.554055773837428,-5.260660436797908,6.548718187632807,-2.4145689523006313,-3.9976016946660717,6.611404371777232,-1.250735827463382,9.048623212044145,6.0,6.0,1.6530933564076868
06-21,8.22584976237138,5.757933741172741,-7.38957242091291,-0.9277560641902118,7.185026261510511,-4.255651808237182,6.200775766167968,-2.493731846968783,-4.129260110385601,8.42923168011022,0.7234950075526366,8.763144250379286,7.0,5.0,2.174123684880838
06-22,9.085748586114242,8.343124090983624,-6.949967894096274,-2.1730586962250698,7.444293927181141,-3.5240951707822132,5.223557485847921,-3.324972440460977,-5.710462191950296,9.857925916917583,1.1978060445721128,8.615854515507204,7.0,5.0,2.340479514467416
06-23,8.546286291611825,9.30669601757253,-10.190808481762843,-0.27684277337016927,7.600266784523284,-4.141175513174019,5.686586992428895,-4.308209657305838,-5.660379110783172,10.383045150498447,0.08411715715967891,8.709320917129828,7.0,5.0,2.1449086478773705
06-24,8.461100053808655,8.400955440513776,-8.465496733512165,-0.6750052805195904,6.910016280790715,-3.5294117647058822,6.742878919048051,0.03907108592578402,-6.933368111414441,10.75612403124824,0.4609092795762269,9.983855685490292,8.0,4.0,2.6793024071874716
06-25,6.602441968284289,7.893484513608429,-9.316775362529034,0.2557062701122297,6.859084568533129,-4.141175513174019,5.567799225090208,3.2425422172208402,-6.1130010657182385,10.660980778702529,-1.4497575638927536,8.464486873093207,8.0,4.0,2.377151409110901
06-26,6.371036737899706,5.8315253113917285,-6.711266906932237,0.5114050368860366,6.689307876630739,-3.722817522378901,4.629488574414729,3.542795440277444,-6.776128829725116,10.147316524264365,0.07542442462424202,8.55687739381961,9.0,3.0,2.4287470050976956
06-27,4.81689882950044,4.269333809076969,-5.738554861186353,0.21636626676123874,7.014600259225292,-5.328518172367824,3.643234757098632,3.841200420983647,-5.832621125635307,10.73851695898753,-0.8378978999164346,8.278062765365021,8.0,4.0,2.0900518339910708
06-28,4.7900836363468295,4.455802361712811,-6.940125217219244,-0.019790818374139058,7.737301230462984,-5.1632153994033345,2.7464132009709843,2.436194051353947,-6.518808546791531,9.911577314803145,-3.3926443781685003,7.517139981276874,7.0,5.0,1.4633272847475691
06-29,3.9237910869056654,6.963722015103861,-7.810234974127312,-0.45257682726777443,6.858663147687272,-4.768610217973332,4.452102303651737,1.1085338876691169,-6.672417255228459,10.038540936404516,-2.7109668875191257,7.883641310637364,7.0,5.0,1.5678490438286274
06-30,3.9806590391517704,7.913318782930441,-10.515201600626332,-2.514354583184094,4.765956148188165,-4.703128337860107,4.4071333638997086,-1.3577527382314365,-5.425417227597092,10.474463824124868,-2.279832628038194,5.581783475850554,6.0,6.0,0.8606356265506877
07-01,3.013925543873685,8.131872451803217,-9.773199337044943,-1.5692413578736186,4.8631194415350905,-5.484378337860107,4.287214285117946,-0.8920567571719419,-6.376742220599291,9.914335462768422,-1.9776760386050116,5.16019831022418,6.0,6.0,0.7747809538473022
07-02,4.103729325868311,9.473934066301258,-6.0866078625241276,-1.6889250614232347,5.118180693662574,-4.281246662139893,5.719779097128995,0.07615836446232233,-6.195124184213033,10.611271188330347,-1.3786314596760896,4.231571596765812,7.0,5.0,1.6420074252119365
07-03,4.659185822711262,8.90461423863848,-5.664874570315788,-3.1618237789597257,4.982146296134038,-4.640626907348611,5.715550116987432,-0.03812273270573671,-4.953598348659555,10.229225784760153,-3.331690085556153,2.4295227155813985,6.0,6.0,1.2607923792722662
07-05,2.899818047652674,12.675393783202967,-5.309033933198514,-3.102910227554341,4.374261429885903,-3.5385761326142386,2.9787276721373366,-0.9489584918102397,-5.206700772888826,9.703912443987358,-2.3995382614535705,3.548115367171144,6.0,6.0,1.306209243709804
07-06,2.4426074971712524,12.675393783202967,-7.3098230193555835,-1.9615570434411251,3.247746646507584,-2.9129179218305064,3.971123753065177,-0.974601787790719,-5.230801824801812,10.1432621076746,-1.4482053881427783,5.725502926296468,6.0,6.0,1.5306441440462937
07-07,4.178923449308139,9.9391958999675,-7.646593988420943,1.8361308532253384,2.51841259706257,-3.506311460499424,3.2791820022500495,-0.654006777226679,-5.358205591239291,9.177729628857021,-3.6272430276166103,5.8154756143625175,7.0,5.0,1.3293907666691822
07-08,4.649788221431616,8.69971363897957,-10.182923259844847,2.509801528033074,2.93414779485833,-3.225806068085541,4.572810735135996,-2.33423068658483,-5.269439607855657,10.603496024187422,-1.6811508785628662,7.631278969436442,7.0,5.0,1.5756238675940593
07-09,4.590939947930188,9.210829961962496,-11.419044281249151,1.7585445147502994,1.3988394912409476,-3.3504777734579814,4.617935250451983,-1.3137863037146553,-6.066069731841217,12.090961170415977,-1.7467584146076056,6.952396410502853,7.0,5.0,1.3936925201986778
07-10,4.188636000999395,10.855184691380106,-12.426408067202193,2.252518031812194,0.9041262179358442,-2.3478596271495675,5.491239387152837,-0.9312835040217549,-6.578158935439298,11.157330061725595,-1.3449232055219065,3.5411607665886558,7.0,5.0,1.230130151521659
07-11,2.857141586106692,10.302894653086648,-10.224702269198437,2.7267359246642147,-1.419042558624147,-1.763806103843575,4.474497780647901,0.11209860039713901,-6.421242960536645,11.55481601473239,-2.3267324800581224,4.455863259041848,7.0,5.0,1.1940434538679923
07-12,4.663808390652914,10.895826067191381,-10.05978403827122,3.4448819415007153,-1.9483904239425438,-2.8280047240702273,5.52777814231074,-0.1494616330971094,-7.398919729283109,12.124827402012896,-2.0929901275455918,2.2660669556624877,6.0,6.0,1.2038031852601108
07-13,5.260160848557034,7.111919324933362,-9.77118499788269,3.2045085882546003,-1.0312709719667925,-4.164057299522834,5.193267492565356,0.07472606539994076,-6.0040624404024845,12.075994990761632,-3.207388533807795,3.783186960355753,7.0,5.0,1.0438166689370902
07-14,5.23172144920754,7.271480976468628,-7.512798563518499,2.8761518355478133,-0.453852135566732,-4.7214352483065305,5.665388347219658,-1.2372217753575272,-6.692914138364013,14.065951535071333,-3.198721802594494,1.3402339801805176,6.0,6.0,1.0528320383323078
07-15,0.4833613244126119,7.548885241883295,-9.525785860929853,3.02793373440688,-0.42009747446008505,-5.162100616991553,5.665388347219658,-3.1758315434395334,-5.4863698522763915,14.034275892610012,-3.6162867865224997,-0.008484295769151566,5.0,7.0,0.2804073425119492
07-16,-1.3325807048569738,9.497833787540337,-7.832080025781872,3.198126811014193,0.134427858534278,-4.422407173599964,3.9007629166064444,-1.7832142246660816,-5.3873287930673515,14.717980221183396,-3.8186011241443425,-0.042661849408424095,5.0,7.0,0.5691881416128034
07-17,0.9582868009429887,11.101161706791835,-6.453610449722118,2.8471121669802075,0.21844607139055727,-1.943874974091297,5.148369647099741,-3.0564904805249227,-6.260356113050111,13.483865145167732,-4.130491139953004,-0.8786759970972718,6.0,6.0,0.9194785319945282
07-18,0.22284631658585674,11.654799756388796,-4.875079317885925,1.8915706495638092,-1.149620097436987,-5.3429062967387875,4.136693773581692,-3.282927265553901,-6.201180903869267,13.502145283368632,-5.345190508658615,-0.17635126070168647,5.0,7.0,0.419566677386968
07-19,2.6630422895481747,13.123359229664791,-8.754827165077055,2.7426166511610757,-0.9659439514226961,-4.206506174235976,6.504903288145095,-2.908103813010913,-6.615380281527367,13.075255282144058,-4.2229729185494485,-0.8112896726252841,5.0,7.0,0.8020127303512045
07-20,3.4761543904893046,11.942263240136368,-7.800122259382524,4.479600676959708,1.1273214665386162,-4.489537252660987,7.358055857024441,-3.7869978042688124,-5.691049894368802,14.459232173708985,-5.734890206609998,-1.2906549340132178,6.0,6.0,1.1707812877960901
07-21,4.068989790879348,11.986000428527674,-7.06948280697173,5.000005095969455,-0.21845248156929384,-6.358757099825124,8.63267526859524,-2.618743100858145,-5.666394880929296,14.519320053023252,-5.255962237073263,-0.34813931714034196,5.0,7.0,1.3892548927189816
07-22,3.718677028882326,7.907996691533631,-7.739186286244565,4.452974592651078,0.9631381921249361,-3.642865185599689,8.748552774379998,-3.6855678693155483,-4.705052116335405,14.741462037898245,-4.108199902771991,-0.6198551224774718,6.0,6.0,1.3360062362271288
07-23,2.301024650029376,5.677048086672752,-8.676832326367004,5.0181283643813845,1.0793781346776994,-3.5452861131437072,8.710902139687281,-1.7046130612981714,-4.558206682051483,14.388552379162164,-5.249365109277072,-2.1386714181732507,6.0,6.0,0.941838253691664
07-24,1.7438675104735266,4.018546385589138,-9.55744519434152,6.983399843670925,2.5240790882633117,-3.555198856581623,8.041699781343697,-1.5624945483557453,-3.8783049597884327,14.739492178754793,-4.2180876881181115,-3.3118893674135057,6.0,6.0,0.997305347791371
07-25,4.60081387777545,2.7299114868996965,-12.960580971525262,5.838583060866221,2.944602295443763,-3.8260303440581254,9.241455624910397,-1.9510313887035537,-2.984207632211459,14.757486098992914,-4.302078710622597,-5.641253149436999,6.0,6.0,0.7039725206942037
07-26,4.986519003259664,2.204723341767417,-12.596403234091838,5.44798579206307,3.818066048593707,-2.7941161162667356,8.031161173536734,-2.397353897869626,-2.252664596075752,13.050953432657927,-5.455311008495417,-4.828126086469673,6.0,6.0,0.6012861543841229
07-27,5.647753147431512,2.5421845865464685,-10.261355793085214,3.835194063586319,3.162251323112544,-3.232689965699661,7.948409137378426,-1.6577443026167014,-2.1474154861916817,6.72588668371201,-5.791705381591493,-6.875333624430499,6.0,6.0,-0.008713800987330952
07-28,6.397214535875103,2.72215762363159,-11.877734786083352,4.12156110304376,3.1782787184157937,-3.1311472908395235,6.5686878345368775,0.10068189274661182,3.978072344317454,7.138972141235443,-5.4257026320734445,-5.270201261170071,8.0,4.0,0.7084033519696867
07-29,7.334051482075192,2.605341475041647,-10.6175461520493,2.904408708368788,2.9372663331686795,-2.672132898549553,0.4949037635638075,0.7742106907773219,6.719688436499142,5.755794421913799,-4.885829046869448,-5.9479206396009925,8.0,4.0,0.45018638119492344
07-30,4.9714799314909,3.9259470540803734,-8.487559712673194,2.567075459952283,3.1032176966001397,-1.819673131723873,-2.8963438568194992,0.9223690023339732,6.708933365791607,5.616941583636114,-3.937201732600103,-5.0329604653155675,7.0,5.0,0.4701854328960961
07-31,4.013201913975539,2.3991025368421774,-7.097860445041065,3.4742385717938875,3.1032176966001397,-0.427347667457466,-3.448805399557652,0.5145376085292197,6.482552058010199,5.681398025448035,-1.5950250610104844,-2.7653867228524183,7.0,5.0,0.8611519262733426
08-01,4.471213486400578,4.182261750199536,-11.719601961213948,4.999035097349142,1.089648094332923,0.4072987873078847,-4.879185002287675,1.6155759605651248,4.656804641394217,5.681398025448035,1.143626497890998,-5.606980257685583,9.0,3.0,0.5034245933084361
08-02,4.547888481441296,4.455668421432938,-9.353771085080382,5.908561216913592,-1.3914467646699689,0.599188553659551,-3.603320372526871,2.544205552056229,4.957246210009705,4.947381541568723,0.5477387173744853,-5.36316885830536,8.0,4.0,0.7330143011561615
08-03,4.496788751952786,4.65321045364338,-8.652786015796623,3.1908678019626784,0.26608987954423524,-1.1202640801134063,-2.0012124213855063,2.531481806791238,5.546625780308838,3.3785033059411926,1.156602070480547,-4.823327615780433,8.0,4.0,0.7185483097957439
08-04,3.9346927106200926,4.302025548925808,-2.087362557618561,3.401627520555238,1.8333588624771235,-3.5774600179353744,-2.9866604730849278,0.5569230802675357,4.5765230679801965,3.303329005738435,0.501399122181964,-4.787991117012134,8.0,4.0,0.7475337294246165
08-05,4.871519446174582,4.423027641897222,-6.872629584425992,3.6437235946936783,0.5142627154468663,-2.885593904157382,-4.320798231775596,1.0593040762509702,5.848884331239012,3.643090509308461,-1.4997861983688903,-4.5583072448921005,7.0,5.0,0.32222476261590255
08-06,3.6518343855697597,3.3348020367518614,-5.772370537878543,3.940033221519628,1.3437252405385631,-3.813706041583291,-1.6805546084369714,1.538265811811557,6.434470679373295,3.509260106969763,-3.7884723054959086,-3.482855602599376,7.0,5.0,0.43453603221169484
08-07,2.2148373774019086,3.5690657714664336,-1.366174187700186,3.8054960382282226,1.2939595140880662,-3.7923477676724056,-1.1915232694838052,-0.09198383209958035,6.126618519710481,4.120367544668705,-5.470312328962828,-5.671246444320124,6.0,6.0,0.29556307794374065
08-08,4.6581289215992925,5.749350232344135,0.8760436426098177,4.0553539493665225,-1.0212633769069734,-3.7431375430938303,-2.2072714895530288,-0.07883005927290697,6.126618519710481,4.66666751437717,-6.85277417967091,-2.138801294605994,6.0,6.0,0.8408404030753148
08-09,4.9687801794015884,5.688427921414112,-4.007888386268594,4.740966310703633,0.0166341860182642,-3.2043837287801527,-3.3096895001021873,0.17080180314738835,6.421597540173775,2.978798133437823,-3.1961134760738212,-2.1298904446626343,7.0,5.0,0.7615033782007664
08-10,5.584029435838479,6.959705996242183,0.5475251879882985,5.0979652287113115,0.06637421497534049,-5.4452909973339825,-1.8054715466797748,-0.14452845811250925,7.522120829736045,4.469535315262661,-2.9855897647768996,-1.7568243034362334,7.0,5.0,1.5091292615345768
08-11,4.18127663830804,9.78237649311368,-1.8717705259316935,4.636520343923965,-0.19967179638733473,-3.7383206724257225,-0.7280139746334852,0.7045941020718227,7.270266773858308,5.823346103552575,-4.58268181928159,-1.5306961692915892,6.0,6.0,1.6456021247397483
08-12,3.6687365026912806,9.0554599631571,-4.026111955178013,3.289475141061865,-0.7528873339351104,-4.055407842844654,-0.14560057320438305,0.07931988244034921,6.274017047031,4.086265271417944,-3.0563164972486563,-2.704812045710808,6.0,6.0,0.9760114633064926
08-13,3.668984805266039,9.883721551076968,-2.497875631990903,2.3637411934629706,-0.9703831552875362,-5.323769257155168,0.8616953867417063,0.5924910682338117,6.2846134077961775,0.995895978619221,-4.069366180600627,-1.7164435784585232,7.0,5.0,0.8394421323086781
08-14,6.6613976034500615,10.419346537648165,-1.5520089325360233,2.38327298053354,-0.9034648007221301,-7.8210346805871716,0.5550802416604672,-0.5727991300437264,6.167945801942094,0.42959853532308423,-2.2407219314367137,-1.4382333193124481,6.0,6.0,1.0073649088266
08-15,8.484851530879697,10.32340937373026,0.5953621863642935,1.6214066001641845,2.8393230486975245,-10.086955194887908,0.6801804718851552,0.21147720640344753,6.349027355817309,1.0544833532150502,-1.7367417374790168,-0.17790501765832528,9.0,3.0,1.6798265980943061
08-16,8.701370382827525,11.047377940627507,1.4986646601457871,1.189780778047939,3.5150525965734523,-13.34994652769526,0.09978238392907407,0.660851144328454,5.443636855328687,-0.09845276599541966,-3.369722433803707,-0.5869364203264189,8.0,4.0,1.229288216165635
08-17,10.69683700874369,9.411515474606857,1.9297857613974556,1.1907097712320753,4.328159834834446,-12.927825845775015,-0.6028393569450504,-0.17181766736164136,7.187253660173878,-1.0919828762314219,-3.772121540043192,-1.5544465137782637,6.0,6.0,1.2186023092378182
08-18,10.285420577982048,9.602720388928933,4.394698741331809,1.7104004957549352,3.265839231195253,-12.429380281409358,-0.22965934593736645,-1.6404359746509092,7.530386186157921,-0.695055383129665,-4.3757604637728615,-1.23668394178911,6.0,6.0,1.3485408525551357
08-19,9.436868672006653,10.832091872259683,4.070722794165396,2.955288615409122,3.909164294830477,-13.223866427403966,0.8037858092600942,-0.9864527318711815,8.376438467656651,2.594694984243783,-4.113622542465473,-1.0735142337608696,8.0,4.0,1.965133297860864
08-20,6.392572410187407,10.051319753956912,1.705266049033732,4.58490623618072,3.746960772290227,-12.552967314563551,2.3245841438219093,-1.1811044119729033,8.417627793425362,2.0567473831255834,-2.9531445368196954,-1.0400608148146278,8.0,4.0,1.7960589553209225
08-21,4.961324425386448,11.01858522390146,3.870704302918867,4.962266166255145,4.460664934202198,-10.893319363535161,3.1930066501581393,-0.9294398352474235,8.024831526863176,1.6473012596056675,-3.342860110457404,-1.2462437444373657,8.0,4.0,2.1439017863011456
08-22,5.40900305175793,10.155245344329868,1.725951849702704,4.075471410211527,5.035856330537227,-8.38159813458058,5.486493006279146,-0.810663036053975,7.313765055460792,1.7520437980437744,-3.4234215008966222,-3.43899177767938,8.0,4.0,2.0749296164260342
08-23,4.235229856350458,12.07005970536595,-0.6735498228305504,4.209330963312291,5.30146945232741,-6.129247583379165,6.156896679551911,-1.1244677604725357,7.889388243963931,1.3042994387086384,-2.1056235206631175,-1.8382366131228327,7.0,5.0,2.441295753259366
08-24,3.0584351844685544,13.504954196263641,-1.5996677816888263,2.904089517257132,5.476002492549035,-4.0326550542091955,5.324175002819959,-1.438282460563424,8.528878170859535,0.4984630412074472,-2.620861999914699,-1.1635831250542406,7.0,5.0,2.369995598666243
08-25,3.085738084044823,13.33614639422156,1.2304486823781275,3.936864658492468,6.4912800554390016,-5.165870705120891,6.197225791960494,-2.7642469927311364,7.634526672176024,-0.5482347678483215,-3.711635578378182,-0.33123780934639085,7.0,5.0,2.449250373773965
08-26,3.959587125156801,8.999998304578993,-0.020619346642842314,2.320635823216996,5.177583043884013,-5.5619721462252345,4.52269004993557,-1.6977676210726318,8.053463177866101,-0.8294758948883131,-3.08425920803933,-0.7304234974988161,6.0,6.0,1.759119984189276
08-27,5.595905619643568,6.7480598601797,-1.0689769256218695,1.769739167283161,7.26124480650181,-5.62799115171559,5.091874325712516,-2.311686726359578,8.146321715086469,-4.456433855788284,-3.5187843203302855,-1.4707172082412439,6.0,6.0,1.3465462755291977
08-28,5.925321106485171,9.41436093156509,-3.6401286282821586,0.85569553165546,7.166530718520366,-3.6257654710737164,5.1680705357811645,-2.311686726359578,7.49236909647671,-3.8069519273445027,-3.8255071642658462,0.18589034519611386,7.0,5.0,1.5831831956961897
08-29,6.879732466960298,9.193614903179027,-2.3697647177369547,0.9723843208963218,6.843930451276406,-3.601426716533709,5.525949891679724,-3.290943027016181,7.3341598151701755,-4.616301991067647,-3.7071810459149783,-0.7917591626294508,6.0,6.0,1.5310329323552523
08-30,5.210916365576939,9.253922204832614,-2.7783464538395677,1.8475242747401015,8.509641427945432,-6.907407747923877,5.059896395075981,-3.1729459877455533,6.237989350575472,-3.366567283930313,-3.681713665088613,-2.3692155880831565,6.0,6.0,1.1536411076779551
08-31,2.963587998917285,7.792775704574698,-3.125635864045283,1.4974653257211636,9.038490575908128,-5.3714300661670915,6.249127291751769,-2.2420437775417703,5.992806031870864,-4.334394627008817,-1.2267382530235067,-5.3854399581435946,6.0,6.0,0.9873808652344874
09-01,3.64098477114291,5.335399479978286,0.14207366383977496,0.5847938431231381,8.811127973941096,-5.751273482609268,8.420313919063432,-2.215524997969629,4.605939995111565,-6.210057272253884,-0.9619436073741378,-6.373512458175513,7.0,5.0,0.8356934856514809
09-02,4.092579030341216,4.466063405278991,2.320373223822859,1.2584733914348871,8.165516565874675,-5.751273482609268,7.473897329478231,-8.408665162032696,3.712698494637319,-4.942285065692014,-0.33543104895505765,-8.830341927823248,7.0,5.0,0.2684670628129913
09-03,4.476782914597195,2.2950146378804206,0.8547005148608576,0.5460194734051459,8.165516565874675,-5.1450097533241435,6.856510002164158,-11.226198724789038,4.3872742715207504,-4.335031589479892,-0.33543104895505765,-5.51619939159398,7.0,5.0,0.0853289893467577
09-04,2.860385434576736,2.744921902567646,-2.943724216218044,0.5460194734051459,7.7721874365504995,-4.910061293550201,8.55084437777081,-12.5176946956696,4.759184861941219,-4.335031589479892,-2.255767246462252,-4.0582040769816565,6.0,6.0,-0.31557830262913256
09-05,-0.057258681903593296,2.961474105714257,-0.6773913705640064,1.3065487224929808,8.837284382811053,-4.755776333469254,10.169049727288463,-12.041738770471188,4.759184861941219,-6.100432793795856,-2.581460332605448,1.8021870198948857,6.0,6.0,0.3018058781111261
09-06,0.7102272573335316,3.284508426831948,-0.6773913705640064,4.385472961063008,8.42072487010684,-4.827473779904016,9.01552340900444,-12.041738770471188,5.2168001337871575,-5.592165754991747,-9.107316774537987,2.927400528161374,7.0,5.0,0.1428809279849461
09-07,0.19988490550892452,3.284508426831948,-2.6883924596584072,-4.041220311516385,7.693508371260053,-3.8517054377892936,7.114579373256174,-13.212074151864545,3.4526534832018965,-3.94990207473956,-9.597865538711648,2.5115543187883067,6.0,6.0,-1.0903725912860447
09-08,0.19988490550892452,2.6409285511287512,0.020471011267956637,-2.8991393084177095,7.25932477584319,-1.6813320318765794,7.114579373256174,-11.768020339596857,3.5886849079453107,-6.556733888164394,-9.607946309735151,2.5115543187883067,7.0,5.0,-0.7648120028376731
09-09,-0.42832012912889655,4.846390348997761,1.3945785764685275,-1.8939409207124753,8.1093692682502,-0.37712394841070346,7.4423109761071515,-8.472195927884329,0.8503153646055275,-4.2843411621964735,-8.777057994200169,0.9743835635224984,6.0,6.0,-0.051302665381781555
09-10,1.0936606598912821,5.191727579654202,1.2986956817484059,-4.476701805758602,7.58117268897329,0.15713148189841014,8.904007566863914,-5.623570835739438,0.6999515464031303,-3.2822727887059253,-8.786193199630453,4.653812586669459,8.0,4.0,0.6176184301889729
09-11,-0.11286940484584974,3.582218044769267,1.094812602700751,-4.640230054637806,7.550107530959968,0.015671350552924828,7.998908598793959,-3.6572542257569536,0.7115369024445832,-3.2442165473444176,-8.347793924537909,4.239480524643099,7.0,5.0,0.43253094981180135
09-12,0.36080282493007826,3.478074267679502,-1.4836811327079493,-4.824204208269393,6.718180621012995,3.1959178437730107,7.90889712753549,-4.526696176607835,0.6182274442294663,-4.0719234653637395,-7.906765452679365,3.3206108619735533,7.0,5.0,0.2322867129588179
09-13,0.13907993323908538,4.611442870144334,-2.797795011203955,-8.017399824288423,8.155644635745988,4.256299924229815,8.652792463863022,-3.2352553394080013,1.434740824414204,-5.412349082146744,-8.62385461089808,6.684428131414751,7.0,5.0,0.48731457625883295
09-14,0.1668452728622472,4.0136658027132075,-4.345059821535559,-9.246144490594531,6.798518916701422,3.8308362440419472,8.677794346770945,-3.0089230699846357,-0.1297789140858728,-7.364081156156491,-7.275742671446012,6.684428131414751,6.0,6.0,-0.09980345077488188
09-15,-2.335929293587214,2.3911164138262264,-4.526319001850314,-9.417419489893149,6.335406419851,3.6980204313716216,6.364623668040899,-9.057820513874914,0.23554889766889703,-9.36425933285188,-7.632602146607888,7.272156363068063,6.0,6.0,-1.336456465403221
09-16,-3.19800209999302,2.0806465641990055,-1.2962985347637455,-11.134676203814053,7.328309896200825,3.958873851229963,5.502322443745484,-8.002783746851481,0.17524699486167966,-8.712645084625697,-6.257982520042805,7.71099750820544,6.0,6.0,-0.9871659109707004
09-17,-3.764045533771518,1.6083414274397048,-0.7056873192907925,-13.814075768635783,8.572742864189014,5.6467647596652855,3.361588672634117,-6.937829310179663,0.19857279258652072,-9.032132695258447,-6.741469808874692,9.129379727417595,6.0,6.0,-1.0398208493398884
09-18,-1.9444465637207031,1.6076425882991126,0.14406193579830764,-13.162461855099505,7.481940991218838,5.157811595881466,6.1101724305116685,-7.127287479817921,0.046795641034680806,-9.31621702218937,-7.918263170675203,9.85032492336228,7.0,5.0,-0.7558271654496957
09-19,-0.653777402485175,0.0,-0.2893745071467372,-13.835792365799964,7.409115363922834,5.660962332233939,6.1997244317661755,-6.85061973145817,-0.0935823567134519,-8.865590967897187,-6.6805441946848525,11.096311883381277,4.0,8.0,-0.5752639595734427
09-20,-0.10837419586212313,0.1322989208654274,0.5167424441517058,-15.021836643499459,7.2374508565504705,6.536350602585834,6.030295808910862,-7.0001380280571315,-0.7487124058430734,-5.439447369446078,-7.357224476757497,11.096311883381277,6.0,6.0,-0.34385688358498195
09-21,-0.9562904464759387,1.4553470112876505,3.513850197204376,-14.029010034413227,6.761341982022078,5.831662140956795,7.898683137209511,-6.5923589700141045,-0.046453275164110394,-3.8012805437802917,-7.032809854793961,11.096311883381277,6.0,6.0,0.341582768951671
09-22,-1.366120275533719,1.9845595181116111,4.0033533516325805,-12.164471807037753,6.196611122209428,5.599261091454114,9.110720977260705,-7.991298052586207,-0.08172760487700463,-4.943902769684901,-6.877826673412754,10.406706931885727,6.0,6.0,0.3229888174518191
09-23,-2.0765086555067658,2.9250094465559986,3.9142146600019223,-12.164471807037753,5.462510403991323,6.0003132723688,9.19242812467239,-6.978953541287247,-1.50930255891335,-4.943902769684901,-6.6847350766764375,12.122875281491236,6.0,6.0,0.43828973166460133
09-24,-1.0986034813382097,1.6454584683430356,0.9272970165048161,-12.092825543023775,5.4468611292554865,5.9077614111990515,10.966343373490837,-5.14547387492376,-1.50930255891335,-5.819192634353679,-7.055108765395766,12.028836612101628,6.0,6.0,0.3501709294121931
09-25,-0.11007406538078413,3.0856192297212823,0.9272970165048161,-10.687673679580364,5.6816420453799115,6.038609802953065,11.791630136323672,-5.14547387492376,-0.2542191106721511,-4.266134293730599,-7.606148175664917,12.154221504621102,6.0,6.0,0.9674413779626061
09-26,-1.826603498830319,3.0856192297212823,1.7144124568882602,-10.30444970577209,5.5070185075309235,5.714281863592783,13.134728705026752,-3.4044241191556024,-0.24266129217821328,-4.11274184252331,-6.846356611188941,11.950474043617346,6.0,6.0,1.1974414780607392
09-27,-1.826603498830319,1.8701920232121596,0.4390610310066217,-9.946747802039736,7.087220620947192,5.494332015762258,13.134728705026752,-2.980527306492161,0.0,-4.676324964145532,-7.764252823385119,11.950474043617346,6.0,6.0,1.0651293370566222
09-28,-2.300740047124208,0.0440054068821502,4.557809370102041,-8.588828736510859,6.397878163648392,5.494332015762258,13.637584033242323,-4.133001503341461,-1.4327354441414113,-3.6958578262716992,-6.759801898416207,11.950474043617346,6.0,6.0,1.2642597981207222
09-29,-2.382916424482293,-0.24202554126526132,0.9590728171426431,-8.265328912467266,6.397878163648392,5.392978127937931,12.57403943374033,-1.5253070166550529,-0.06956238677536232,-3.934799986108321,-6.759801898416207,11.74672658261358,5.0,7.0,1.1575794132427593
09-30,-2.3281356556980097,1.721547300931435,3.9561389356920427,-9.363771246214213,6.586921698852875,7.001679355245391,11.200861377966456,-1.7615406502707396,-1.3142718673326188,-5.347012148710408,-5.232764318942317,11.29222129393238,6.0,6.0,1.367656172954356
10-01,1.0863702585395034,2.3085215319297836,11.150330043394558,-8.743168741740034,5.095545213672225,9.207903524799137,10.191003877264885,-1.1638542898407636,-1.1160896909862714,-3.5951147819429106,-4.539801635737872,10.900402472830173,7.0,5.0,2.5651706485152013
10-02,-0.5847927746170603,1.0895620105690973,11.990946409779008,-9.016387002385684,6.353897456532769,9.128502069074473,9.372081827873075,-2.2198735443991344,-0.3654633437033619,-3.960398726258524,-2.4786789055099065,11.56649327296779,6.0,6.0,2.5729907291602117
10-03,-1.6334445460546885,0.6130912864526203,15.751131828694783,-9.35266241485883,8.036947884948491,7.877393700610632,8.149838105853318,-5.711943547067932,-0.9936075500685565,-3.816208081599247,-1.914380924985791,10.234305694011848,6.0,6.0,2.270038452994721
10-04,-1.10161855150981,3.095646366814414,12.088992476807258,-9.503874548926241,7.378307510676111,7.480797305733774,8.75016333437404,-3.9901587274778825,-0.6624050333790377,-3.119882437530245,-4.646806062115859,10.234305694011848,6.0,6.0,2.1669556106231975
10-05,-0.6580692507168966,0.8539742198459694,10.100415388153513,-10.279005064176863,7.249504095236241,7.834734585207867,7.46651781452778,-4.003826582340903,0.3054001371754897,-2.9985536046890156,-4.062133144885952,10.234305694011848,7.0,5.0,1.8369386906124234
10-06,-0.9871143358975041,0.9180194358987932,8.105974971122034,-11.62939083226293,6.15169104385589,9.333133726414253,8.453942884080364,-3.4557201610659076,-1.11872531278994,-3.4790917933820844,-3.41584465033635,10.226473622239917,6.0,6.0,1.5919457164897117
10-07,-1.6451835866144202,2.8415039398332858,9.813542541959986,-11.321150826382667,5.563395980812102,11.259972162989042,7.101312022627507,-1.7350382542056846,-0.4542374937187018,-3.0729457329181646,-4.276255887902378,9.897341268716708,6.0,6.0,1.9976880112663846
10-08,-3.549635969356747,3.6914196369408536,7.824386968845275,-10.920634597697585,5.814140133717073,9.799792422585995,5.213724310900843,-3.5023164227558086,0.6067426017161166,-4.59490539669591,-2.6838432928625506,8.69054456096096,7.0,5.0,1.365784579691543
10-09,-3.969342489442468,1.6414115567825949,6.842826796793157,-9.375662021536044,6.331297333615754,12.032444582023889,5.501003929830913,-2.9132707419761616,-0.3289111053077985,-2.700601042708614,-4.204691920704531,8.46328892727998,6.0,6.0,1.443316150387556
10-10,-3.5753313185401367,1.142125877267452,6.750884680707353,-8.338621432188312,4.915732577823275,13.220648738012288,4.917813885538936,-3.361450025131939,-0.3402552546082253,0.5051527687275035,-3.8945964530640587,7.499411996749032,7.0,5.0,1.6201263367744307
10-11,-3.462378536524894,-0.0856550639696948,5.882352055294286,-7.529362687940644,5.008504492485477,14.723736115120944,4.116846252873592,-2.163849027288582,-0.21549557145524753,0.05903528506857063,-3.7919342706706014,7.499411996749032,6.0,6.0,1.6701009199785197
10-12,-3.3778308618680524,0.021417850250686567,3.8491922005780776,-7.400416609719448,4.1337642364580685,15.212800341192592,3.434595064779905,-2.966793965136742,-0.12446324255493049,-1.8843389255973804,-2.858919736505119,7.499411996749032,6.0,6.0,1.2948681957188908
10-13,-3.6229960888700825,-0.7922889204284387,3.2490952909223063,-7.681042439106939,3.6714384803499387,14.08472116598711,3.995618631340088,-1.8733146183523757,-1.0693911213812346,-3.06729986560996,-3.492939027548711,7.875560695626668,5.0,7.0,0.9397635152440308
10-14,-5.938437372769815,-0.5133725742605281,4.119850525225842,-7.771258806105273,2.040817804479653,13.763572540153204,4.666124215476311,-1.7123729488921404,-1.9019290620145308,-3.5269113423667466,-2.9137414836891784,8.753231028539961,5.0,7.0,0.7554643769813966
10-15,-3.8281446903797036,0.6374905291186133,4.885860420116259,-8.156403390806394,3.116591416768084,13.381251080704503,5.093283192463659,-2.1310766986778784,-2.9040866913894474,-2.2215563033358086,-2.3185578905811846,8.831599575704985,6.0,6.0,1.198854212475474
10-16,-2.4876976540760114,0.12795384810133997,4.349576830545785,-9.543832130865688,2.4679601031302116,12.225942055399312,4.144941321935544,-2.4606617373619244,-2.595454996694428,-5.673969930581137,-2.576176187030978,8.823761525252333,6.0,6.0,0.5668619206461964
10-17,-2.7093536917478502,-0.14970810956861694,3.041440349902491,-11.414757914674917,1.0252389751340598,9.189354397890396,3.5286079673379906,-4.3121064543317305,-2.641597474951226,-5.093561815617241,-2.0756723946817024,9.764124304425335,5.0,7.0,-0.15399932174025066
10-18,-2.373155852443866,-0.3643420149989711,0.8573218396666988,-11.737289885548577,0.800631287475893,5.981834729586591,4.202025454985944,-4.572205610346315,-2.203248331900567,-3.9373972889335827,-3.3429828180976173,9.764124304425335,5.0,7.0,-0.5770570155107527
10-19,-2.1224456579506996,0.6000831123286247,3.0210314476966404,-11.551581831113296,1.2738907480705763,5.922906294848246,4.710686491805853,-4.69541432153745,-2.6282234235036404,-3.9665173432248326,-3.131562141892457,9.764124304425335,6.0,6.0,-0.2335851933372585
10-20,-0.8707474689094388,-1.56450823965619,3.965550831432861,-10.97509633962175,1.4270233693544985,7.998775742921913,4.029951269512606,-4.125551225330343,-2.5523034095533035,-5.403489318770244,-4.01411831760776,8.34574208521318,5.0,7.0,-0.31156425175116426
10-21,0.35374440303463206,5.083315450682627,5.255956644527311,-10.555088967223666,2.3509565933417944,6.144655232863119,4.874056297351328,-5.8000868493529865,-2.841630002477328,-6.15682931282793,-4.262468709564986,7.734505680882665,7.0,5.0,0.1817572051030485
10-22,-2.651198864250502,4.372747498624247,0.8598210456115305,-9.38215553331087,1.2907251746331783,7.15599422429367,1.3423764074548452,-4.336039045957692,-2.8297492451235056,-8.766612829642693,-3.1659018156042573,7.287832463973356,6.0,6.0,-0.735180043274891
10-23,-2.866681799466898,4.435054998510375,5.000952029760327,-7.572289188178137,2.6582718319901395,7.251166171441337,-0.4078201561499185,-4.082179651298116,-3.1275302802912055,-8.463232845713986,-3.793775067263231,7.256486240843501,5.0,7.0,-0.3092981429846509
10-24,-2.017130616019367,4.596247714841127,5.055532991067397,-6.9690004064672255,1.8832933451609863,7.761059582357402,0.5023731397629202,-4.961831187791471,-3.2317860029556065,-4.697149979264392,-3.6023257325676865,7.953923264110972,6.0,6.0,0.18943384268625466
10-25,-1.707986074147838,4.596247714841127,7.410958743998913,-6.453622533676258,1.6523895669664743,10.016392566428813,1.3967563835381485,-4.961831187791471,-2.5020224567374543,-6.609829110720636,-2.54001234533734,7.953923264110972,6.0,6.0,0.6876137109561208
10-26,-1.707986074147838,4.828169725475309,6.261969324633518,-7.179919065721324,1.8206891528360545,10.016392566428813,1.3967563835381485,-3.9667339265319264,-3.0232833951043556,-5.630984479349829,-2.818369771722766,7.953923264110972,6.0,6.0,0.662551975370398
10-27,0.08264126701756978,4.7649211926820225,5.6491778896586915,-7.370185472089186,2.5512533699390008,10.483397469719982,1.8807919461614364,-3.9803682451623126,-2.530314966058714,-7.065740667795066,-2.4529722928727224,9.372305483323128,7.0,5.0,0.9487422478769858
10-28,2.3966913227825604,5.69224269047199,5.863187658770607,-6.8555886346349375,3.343878959350117,9.178532350713207,0.6361486654731427,0.0,-0.6519179844543318,-11.66110041219145,-3.0244866118526983,11.96615014452265,7.0,5.0,1.406978179079238
10-29,1.1888208798630802,6.246078818643961,8.76759309587701,-7.8670546734213325,3.584873136463772,9.504750044572667,1.524643017343527,2.94796651399586,-1.2530737820264366,-9.14242925351231,-3.294690724916159,11.495962776255418,8.0,4.0,1.975286654094921
10-30,2.9144833371564407,6.78177312716774,8.663364808459258,-7.8670546734213325,4.262687215506541,8.658967858972286,-0.354699176004608,3.6807277806865324,-0.9810748784683471,-10.460941979603918,-3.9396814353821292,10.59478427066492,7.0,5.0,1.829444687977782
10-31,4.01208878527206,6.975289440265022,7.55443864916928,-7.8670546734213325,3.9377110605886103,8.281754909131955,-2.7269056589282807,3.0927817980781214,-1.6935259305397206,-11.103849639484698,-2.9001932066759926,7.381865154682233,7.0,5.0,1.2453667240114379
11-01,3.93289406262734,6.645830472310384,10.965501433102897,-11.220432403157824,4.241609381410695,9.725062852132888,-2.269044144249138,4.205098240354487,-2.090634031892508,-11.702930861928266,3.6776176760513355,7.381865154682233,8.0,4.0,1.9577031526203765
11-02,3.93289406262734,6.4375003178914385,8.961259907259262,-3.600588662802885,3.9568335451847023,9.725062852132888,-2.269044144249138,3.7981592585371184,-1.1445873582130714,-12.374147412915061,5.5207778294643886,7.381865154682233,8.0,4.0,2.5271654457999344
11-03,3.1903185586907323,6.124997138977037,5.839273106450125,-4.921837788017096,5.108836088562006,9.35388997740648,-0.9724489624528482,3.8659772475976517,-0.21902298721181557,-9.902913276578944,6.124744157262024,6.3082854112178355,8.0,4.0,2.491674889325265
11-04,3.6853688946484704,3.386285381934986,7.106121618707757,-4.086330465968601,5.500657516343399,8.502198576451304,1.0939999305481922,3.094040851891394,0.4983777367402571,-8.302325485202958,6.011074565419165,6.707936304091976,10.0,2.0,2.766450452133778
11-05,1.8171802118879496,2.417493237873681,7.015526118210139,-1.8662835905189905,5.943074656232803,6.549191166527748,0.2309233795128276,-1.198100639041021,1.3331842703476455,-12.974048468228563,6.019718836824212,3.683094526888459,9.0,3.0,1.5809128088764075
11-06,0.8394041344955031,3.6990831646038087,7.2111716637159065,-2.8712091346825233,5.072990614753029,4.548170657374399,-0.8396429422431217,-1.7940362205051845,1.5368780017934633,-15.435792993833456,5.301854988058062,3.1423886192703163,8.0,4.0,0.8676050460666834
11-07,0.5794781717537695,3.0949384184051247,7.405995635269792,-0.3281375162423885,5.541483030250613,2.820712437767208,-0.5133117477642636,-0.13471436023012548,1.685974514900376,-16.555777616601862,3.7649531736516098,3.479353044565445,8.0,4.0,0.9034122654771085
11-08,0.46961872944658684,3.2567877319339704,7.596868846352235,1.3891732269197765,3.8893022190982043,-1.4705953561551217,-1.0883197979972175,-2.034210478982679,1.6745028599509562,-18.004267117368148,4.419502696479821,3.479353044565445,8.0,4.0,0.29814305035365257
11-09,1.9591869951105247,3.3611702694450263,9.944644293128361,3.2245032417624166,2.6766898936795327,-2.566113610172558,-1.784204323716559,-1.185500759290712,1.453319345371177,-14.516307527180608,4.7961429849508495,3.479353044565445,8.0,4.0,0.9035736539710747
11-10,2.176868672273597,2.2129464290691563,8.565930120474672,2.6626043759694236,3.128268843383311,-1.9757378602657387,-2.6130944118811903,2.776644727960739,2.301231061703373,-10.679717260188482,3.834914259689959,0.0,8.0,4.0,1.0325715798490682
11-11,2.1496623551764458,1.79060936793835,6.2680811873545395,7.405262452935854,5.116548762077333,-1.5245852139767246,-2.641187475916977,2.244900035209396,1.8463310397902686,-8.821642746082858,4.098215279651471,0.0,8.0,4.0,1.4943495870130912
11-12,3.1292558527317174,2.8915211390824114,6.970458672591441,6.42829405218786,5.585687743340071,-1.3845665938859222,-1.4908269548162902,0.2307249840407108,0.9260366447619998,-8.868199602517373,4.4161808391552215,0.0,8.0,4.0,1.5695472313893208
11-13,2.1207145328562005,2.9721751438210573,7.256978637915918,7.874167165429526,4.574113456178427,1.7546568618965352,-2.346879585156569,-0.9475452407277241,0.09338371981393076,-9.520746231150227,3.1796488564803096,0.0,8.0,3.0,1.4175556097797821
11-14,0.27167151613017887,3.743205618884763,6.988415029347762,10.04298428878406,4.177124473881458,0.9775460175889548,-3.265538225812814,-0.6434846862155624,0.07003333707960628,-9.199826877716106,3.6542842382542857,0.0,8.0,3.0,1.401367894183882
11-15,0.3258287825575022,4.502078732976009,6.196909520755452,9.984280118732437,4.570169685350554,-0.16827383467920728,-3.2359711551192536,-0.4654933373889734,0.2217752026059811,-10.79509292324868,5.034978655288091,0.0,7.0,4.0,1.3475991206524929
11-16,0.48793794565984855,6.037343986205042,6.602313164704578,9.502355411092681,3.500668211335921,-0.47568696746721495,-4.629218752698665,-0.7256281115191008,-0.5136015534149355,-12.192541975158603,5.043029917601236,0.0,6.0,5.0,1.0530809396950656
11-17,-0.05421647626615068,5.912867725532695,7.8957533066171965,8.374001471521545,5.084250872825071,-1.3622366928770622,-4.440570883725399,-0.7393221642369211,0.6956504047780797,-11.941253011950364,4.985792691351258,0.0,6.0,5.0,1.2008931036308288
11-18,0.7861233947559234,5.663899375568876,6.683509539188731,8.942775322171737,4.735295912798692,-0.6037142397219373,-6.55927500052034,-0.4363830449117777,1.259237948976131,-10.937667981874196,5.457975149131425,0.0,7.0,4.0,1.2493146979636054
11-19,1.3011644081810936,5.396426852744927,7.8282805266742415,8.978090160004262,5.308824426987592,-0.35604235660426425,-6.922067028838668,-1.0067998146524235,0.8928532724255681,-11.054800255424817,5.32088007299012,0.0,7.0,4.0,1.3072341887073031
11-20,1.1962986441333505,5.054674440348444,8.184983586025039,8.919911773012405,6.044118544634651,-0.23220050994116193,-8.058183149857955,-1.2271633089977758,1.5776084465237756,-10.136203745033075,5.149517764866505,0.0,7.0,4.0,1.3727802071428503
11-21,-1.2141241896531814,6.215608836415488,8.907658621724764,8.95869489863202,5.735296361586606,-2.069613860282325,-8.491257242853145,-1.0342875232928583,0.34545766353560425,-9.280963995879112,4.635417766389662,0.0,6.0,5.0,1.0589906113602934
11-22,0.5692574896913207,5.444828047831148,8.178149950190702,7.659493477437201,5.588239781996783,-1.3494572680543402,-8.411619930280418,-2.7354306137851774,1.1400252251479754,-9.70330749682471,6.8516311880248715,0.0,7.0,4.0,1.1026508209479464
11-23,-0.7138993665633074,6.615980125638121,9.925133362445818,8.493470226522922,4.461630123900509,-1.7598462381713567,-8.875123810346507,-3.497549778734071,1.134798129311594,-8.308142599133415,5.429596627302959,0.0,6.0,5.0,1.0755039001811058
11-24,-0.24711740008991037,4.520232239593393,11.189613767174981,8.675713274737797,4.362066971933324,-1.554243172082818,-9.509062028786763,-4.592322540532664,2.663356950790793,-6.14187721368802,4.047392905250125,0.0,6.0,5.0,1.1178128128583529
11-25,-1.0983018835513847,3.917916953948524,9.77691753660389,8.131486937741897,4.105090442893257,-1.445446624354395,-10.378889467026687,-6.183696737741585,0.8232348825063635,-7.517627350128761,4.080575166785401,0.0,6.0,5.0,0.35093832147304327
11-26,0.4435815047568969,3.4576128003478277,6.63048053942391,7.759120538908267,3.911024333088511,-1.4765381282393135,-12.458778962818654,-5.548660375145085,0.9817358736662821,-6.479775483631784,2.688683893475249,0.0,7.0,4.0,-0.007626122180657761
11-27,0.41597759336196155,5.653782965682468,6.3763586058764155,8.685581703767006,3.0452320952090157,-0.8344937771091987,-9.904765034769918,-3.984226636795073,1.6553278174481318,-5.052378247183772,2.455257528181666,0.0,7.0,4.0,0.7093045511390587
11-28,-0.16638257434509196,5.478887516401038,6.955175020984152,8.16444591799794,2.0814552327172358,-2.336891025236413,-11.396952852259275,-4.139998505914573,1.4625774725250962,-6.828919401767092,4.4730338903846425,0.0,6.0,5.0,0.3122025576239715
11-29,-0.3333303663465909,6.0401325833803075,6.066459604853054,8.310936935071506,-0.6823740525819799,-2.085617071993475,-5.660385322858474,-3.06414270822413,0.7256229158647296,-6.91856420336372,4.269125582944811,0.0,5.0,6.0,0.5556553247288368
11-30,0.24855055195645345,6.490585531815583,1.8740290522813268,8.379782265315843,-2.4763401530571922,-3.5140707678817877,-6.021357091720418,0.3404603009137922,1.1405531025223241,-6.838488247097424,3.8458200787145804,0.0,7.0,4.0,0.28912705198025684
12-01,-0.27617313268931215,4.095004082210318,3.010545827204081,8.013323039231441,-2.041782769191075,-4.8477988631600315,-6.7188629476201065,-1.0365550182675718,1.7276205138791818,-6.722519427558453,3.4146753839696413,0.0,5.0,6.0,-0.11521027599932399
12-02,-0.7180396100644154,2.4234962794360873,2.543990144246358,9.572414447769651,-2.541036292364731,-5.250440189276343,-5.238434598114991,-1.2391013105437731,-0.3761474855045423,-6.657133429179855,3.3896845113160117,0.0,4.0,7.0,-0.3408956276900452
12-03,-0.38976395178868106,-0.8575608358822493,1.688089487980983,9.467797511811144,-1.3415379828487939,-6.989853667131938,-3.947928382363197,-0.8798452136980465,-0.42193534825674994,-6.635361434002193,2.7859265904069295,0.0,3.0,8.0,-0.6268311021477327
12-04,-2.959411642073465,1.1235973784791697,2.2319691144866227,9.21712056120331,-0.7102284700198385,-5.6666661822606645,-1.989021835242967,-0.5618692967741369,-0.7320972352476987,-5.0837111101228505,3.5880658741677562,0.0,4.0,7.0,-0.12852107028373042
12-05,-3.0371146643672637,2.4029537932734732,4.277177580068385,8.88931846528243,0.202456401294989,-4.9912874273720576,-2.641410215180375,0.7573778326989606,-1.807368867706017,-3.7464252789351224,3.9385652404552087,0.0,6.0,5.0,0.3536869049593843
12-06,-1.5520995847393508,2.222218210423417,5.285770979943984,7.471373113379362,-1.3949893651859364,-3.6827137302083313,-4.066182751385181,0.18934187858511364,-0.8579272657390956,-2.5322784879790183,2.969440084617532,0.0,5.0,6.0,0.33766275680937446
12-07,-1.7777760823567708,2.716048840057259,5.3791576743884475,8.67317407428588,-5.161182454329814,-3.797063157970644,-1.4627473308331727,0.622124789402303,-1.7733774533283806,-0.2209880307027509,3.9321056758362354,0.0,5.0,6.0,0.5941230453707159
12-08,-1.8888897365993924,3.9094604338174332,5.5681792977098885,8.484965299478935,-3.9594322026140114,-4.207522906285152,-0.6151701146349098,-1.186410876126644,-2.447550582083657,0.7411095393870459,3.6938861116312136,0.0,5.0,6.0,0.674385355306729
12-09,-1.9722196790907118,3.409093954256723,5.177570949090975,9.077070460544656,-3.6757578312582195,-4.808606227188437,0.09569336071641005,-1.3147211124315081,-4.677382650931947,1.939249124755887,4.445580190941363,0.0,6.0,5.0,0.6412975449504325
12-10,-3.447301856899091,3.168718413952422,6.654208174375744,9.695711742411094,-3.1781694486097125,-3.432455120286647,-1.6472902499946929,-1.7177943591573694,-4.165172246850746,2.4411810384267962,5.030966460504105,0.0,5.0,6.0,0.7835502123226585
12-11,-4.424787627094871,5.157765590395775,6.54940136591007,9.771306338792558,-1.4606739302667209,-2.930573407991627,-2.4465660806701166,-2.584899170417462,-4.090638482521134,2.874296952657949,4.496481656280876,0.0,5.0,6.0,0.9092594337562746
12-12,-3.954478888500365,5.88117286857426,6.110171242546405,10.092610410107715,-1.4400024414062387,-0.4818864445362127,0.6572582987296113,-1.4411930858083308,-3.076925316642626,1.634015250078029,2.850334815719578,0.0,6.0,5.0,1.4025897257384854
12-13,-3.1620632537581557,5.253591029780922,6.636583700764197,10.72441513806399,-0.3307592989777465,-0.3299278545771624,2.499664720885777,-1.1148873702250937,-3.3870053893461622,1.5988203062384565,2.3393280196484163,0.0,6.0,5.0,1.7273133123747864
12-14,-4.161912794372149,5.5162725082739765,7.896215560594472,10.645591946811306,-1.5139613648951955,-0.20398724156443412,2.210539608680665,0.6798096250902198,-6.13173465418676,1.0356081054134163,1.278068495621783,0.0,7.0,4.0,1.4375424829556085
12-15,-4.503984988275332,5.718330440643382,7.12425248499932,9.631888628011373,-0.8459985900621133,-0.28266379446162027,1.5231228543292674,0.8291431465025235,-5.866601119745459,3.008847247213859,1.490739604859817,0.0,7.0,4.0,1.4855896595012517
12-16,-4.760541852272464,4.473103310347009,3.506788420524049,10.111929631824909,-0.6725119316681264,-0.21984828671091985,0.9974463793130397,2.4869642834372567,-4.806296966151812,3.5965601213366027,0.33998726594116807,0.0,7.0,4.0,1.254465031326726
12-17,-3.2212006682896677,4.789811951921553,4.597481746651115,10.889594320527577,-0.8289061704370153,-2.4811586424038823,2.60142908972143,0.8464291963386698,3.5109245240982396,4.046696049235407,1.1855990072409082,0.0,8.0,3.0,2.161391700383694
12-18,5.197892193640064,3.838349187490427,4.4334099528823305,10.551056966052123,-1.7829265386776358,-4.601131110449503,4.319159173376862,0.04063223425826435,4.511365323267178,4.727626912525136,1.4209722486508223,0.0,9.0,2.0,2.7213672119180057
12-19,4.863307687417073,3.760167195387318,4.579281688354008,9.591872578058165,-1.3137318902553552,-4.776022433539899,4.833996337485494,-0.8196805034566786,4.500332744592521,7.013624999833001,1.2640545373680918,0.0,8.0,3.0,2.791433578436978
12-20,4.183218988364939,3.740598097087175,0.4197695503599497,9.366183399917764,-1.4591780008143391,-3.9188334494602004,3.0966779995076745,-1.0655825699595705,4.776088303716204,7.577821677305983,1.0671238350564374,0.0,8.0,3.0,2.3153239859235017
12-21,3.3902842733653458,3.5779596882882605,0.36252361622237056,10.005655556483612,-1.6674415424264653,-2.8199177592193267,2.33065152032084,-0.21858424696726345,5.404810641902525,8.077030423945324,1.1142499723714694,0.0,8.0,3.0,2.463101845357224
12-22,3.096636080519646,2.500507372587039,0.4197695503599497,9.64036692345064,-1.338865916039797,-1.9140125653794722,1.4447391962754996,0.2459020665028918,5.78040665669498,12.007068079284618,-0.09543693242478714,0.0,8.0,3.0,2.6489233759859343
12-23,3.4436757796453206,2.6834717049727193,0.32227141032286727,10.716275947038516,-2.061379262637708,-2.4456943119695613,-0.12266094387575516,0.7951433452243587,7.012961246863873,11.669134167800983,-0.31301678433597296,0.0,7.0,4.0,2.641681858254137
12-24,4.036945995765768,2.9085006574978833,0.5679652381556971,8.188250893082143,-2.8983305081789776,-2.6279746003636797,0.0,-0.36535404261372934,6.226661894315219,12.282422184243545,0.2434560247770693,0.0,7.0,4.0,2.3802119780567446
12-26,4.788073711686365,0.8661620315618396,-0.1334598547302209,9.04916682764976,-2.9915227248315337,-2.554031265183556,-1.2499944980330207,0.12120113748454164,5.290599022530406,10.258170618057802,0.09571096324673785,0.0,7.0,4.0,1.9616729974532603
12-27,4.387813776629337,-0.5648545231656273,-0.1334598547302209,8.539152065023535,-3.217824645257915,-3.183945551885491,-1.1527326831753484,0.12120113748454164,5.035493268768936,10.424747588902012,-2.714764417753147,0.0,5.0,6.0,1.461735513403384
12-28,5.357610747505044,-0.7740563552099309,1.067686110858374,10.374857201624158,-4.909112782168788,-3.1372460119442023,0.2706055577416415,0.7271760032227154,4.260016095740523,9.162181111129858,-5.997622110308303,0.0,7.0,4.0,1.3668412973492574
12-29,5.435630978198485,-0.4184116446269469,1.2603426841016607,8.406904763334259,-4.5356042947114705,-3.8420635351892134,-0.17588587062215638,0.5801407032403412,5.176392125565786,7.374948841888545,-8.247615011657434,0.0,6.0,5.0,0.9178983116268213
12-30,5.539664566582439,-0.8219165086990773,1.9913608536666207,9.035451670780699,-3.9882911002775656,-3.4168565712028753,0.39237031681546963,1.2237811385691335,4.152893471867049,7.146380454290517,-10.584640617838117,0.0,7.0,4.0,0.8891831395461911
12-31,6.83002838946189,0.9783538962240373,1.7847093201375106,10.636704387401759,-4.419456435618439,-1.503413647243393,2.2733318472741693,1.960266713295295,2.7821205181782473,7.237948626588661,-10.450900276569207,0.0,8.0,3.0,1.5091411115942106
