,2009,2010,2011,2012,2013,2014,2015,2016,2017,2018,2019,2020,ups,downs,end_day_sum,avg
01-02,-7.760000228881832,2.7699966430664062,-0.6599998474121165,0.5,4.640003204345696,-1.6199951171875,-0.7799987792968608,1.6299972534179688,3.0400009155273438,2.4099960327148438,11.230003356933594,-11.279998779296875,7.0,5.0,03-02,0.34333372116088895
01-03,-8.690000534057617,3.0699996948242188,-0.6899986267089915,0.5,4.989997863769524,-0.6800003051757955,1.900001525878892,2.4199981689453125,3.0400009155273438,2.2299957275390625,12.640007019042969,-12.970001220703125,8.0,4.0,03-03,0.6466666857401494
01-04,-8.94999885559082,3.3999977111816406,-0.3899993896484375,0.3899993896484446,3.8500022888183594,-1.1699981689453125,1.2900009155273295,2.3300018310546875,1.8299942016601562,2.9899978637695312,9.739997863769545,-10.47000122070311,8.0,4.0,03-04,0.4033328692118345
01-05,-8.44999885559082,3.4399986267089844,-0.4700012207031179,0.9899978637695241,4.200000762939446,-0.75,1.0200042724609233,2.7400054931640625,2.339996337890625,2.7699966430664062,9.66000366210936,-11.290000915527315,8.0,4.0,03-05,0.5166668891906733
01-06,-7.389997482299798,2.8899993896484375,1.1499977111816406,1.3500022888183594,4.599998474121094,-0.5699996948242188,1.7100028991699219,3.2300033569335938,2.5400009155273438,3.2000045776367188,9.520004272460923,-6.6100006103515625,9.0,3.0,03-06,1.301668008168538
01-07,-6.249998092651374,2.8899993896484375,0.55999755859375,1.55999755859375,5.180000305175774,-0.8799972534179688,1.340003967285142,5.439994812011719,1.970001220703125,3.5699996948242188,8.540000915527315,-5.470001220703139,9.0,3.0,03-07,1.5374999046325624
01-08,-7.870000839233395,3.5699996948242116,0.3300018310546946,0.3699989318847656,2.659999847412095,-2.279998779296875,-1.0800018310546733,6.120002746582031,1.7900009155273438,2.94000244140625,6.970001220703111,-5.779998779296889,8.0,4.0,03-08,0.6450006167093892
01-09,-6.990001678466793,3.6499977111816406,2.290000915527351,0.3999977111816335,3.200000762939446,-2.0,-1.2000045776367188,5.900001525878906,2.2600021362304688,3.75,7.009994506835923,-10.680000305175781,8.0,4.0,03-09,0.6324990590413396
01-10,-7.080001831054684,3.3699989318847656,1.8500022888183665,0.23999786376952414,3.649997711181655,-2.3199996948242045,-1.19000244140625,5.970001220703125,3.1200027465820312,4.470001220703125,5.299995422363267,-8.489997863769545,8.0,4.0,03-10,0.7408329645792646
01-11,-6.070001602172848,3.479999542236328,1.470001220703125,0.3899993896484304,4.209999084472656,-1.5699996948242188,-1.6200027465820312,6.029998779296875,2.9000015258789062,3.6999969482421875,5.739997863769531,-14.75,8.0,4.0,03-11,0.32583252588907846
01-12,-6.240001678466793,3.4599990844726562,1.0900001525878906,1.7999992370605398,4.119998931884766,-2.0699996948242188,-2.0100021362304688,6.010002136230483,2.5199966430664062,4.3100051879882955,8.05999755859375,-12.209999084472685,8.0,4.0,03-12,0.7366663614908852
01-13,-6.270000457763668,3.4000015258789062,-0.15000152587889914,2.0600013732910156,4.130001068115234,-2.089996337890625,-1.80999755859375,6.9399948120117045,3.2900009155273438,4.540000915527344,8.300003051757827,-17.119995117187514,7.0,5.0,03-13,0.4350010553995765
01-14,-4.420000076293945,3.5800018310546804,-0.3300018310546946,1.9199981689453125,4.100002288818359,-3.2099990844726562,-1.2399978637695455,6.620002746582031,3.410003662109375,4.260002136230469,8.319999694824219,-17.049995422363267,7.0,5.0,03-14,0.49666802088419476
01-15,-4.149999618530284,4.159999847412109,-0.6699981689453196,2.729999542236328,3.7800025939941406,-2.9599990844726562,-0.21999740600585938,7.709999084472656,3.19000244140625,3.8300018310546875,7.470001220703111,-17.62999725341797,7.0,5.0,03-15,0.6033345858255995
01-16,-3.020000457763661,3.1100006103515625,-1.3899993896484375,2.779998779296875,3.7600021362304688,-3.849998474121108,-1.370002746582017,7.1199951171875,3.9000015258789062,3.8300018310546875,7.569999694824219,-23.81999969482422,7.0,5.0,03-16,-0.11500008900960197
01-17,-1.7299995422363317,3.450000762939453,-1.75,2.779998779296875,3.4399986267089844,-2.7299957275390625,-0.4199981689453125,8.040000915527344,3.9000015258789062,3.2300033569335938,6.959999084472656,-20.93000030517578,7.0,5.0,03-17,0.3533341089884437
01-18,-1.1400012969970739,3.6100006103515625,-1.75,2.3699989318847656,3.3699989318847656,-2.2099990844726562,-0.5999984741210938,8.430000305175781,3.7599945068359375,3.0400009155273438,5.3600006103515625,-27.749999999999986,7.0,5.0,03-18,-0.2925003369649242
01-19,0.44000053405761363,3.6100006103515625,-1.3499984741210938,2.5200004577636648,3.540000915527351,-1.6999969482422017,-0.2599983215332031,8.430000305175781,4.25,1.5400009155273438,7.2699966430664205,-19.180000305175753,8.0,4.0,03-19,0.7591671943664572
01-20,0.44000053405761363,4.0800018310546875,-0.8300018310546875,3.19000244140625,3.790000915527351,-2.30999755859375,-0.2599983215332031,8.720001220703125,5.44000244140625,2.5,7.159996032714858,-18.879997253417955,8.0,4.0,03-20,1.0866675376892116
01-21,-0.8299999237060547,4.159999847412109,-0.009998321533203125,3.009998321533203,4.630001068115227,-2.30999755859375,-0.38999557495115766,10.560005187988281,5.3899993896484375,2.3199996948242188,7.509994506835966,-18.879997253417955,7.0,5.0,03-21,1.263334115346277
01-22,0.059999465942386365,3.75,0.3500022888183594,2.8199996948242116,4.630001068115227,-2.1299972534179688,-1.0699996948242188,8.639999389648438,4.319999694824219,2.1299972534179688,7.509994506835966,-18.919998168945312,9.0,3.0,03-22,1.0074998537699396
01-23,-0.5200004577636754,3.6299972534179616,0.2700004577636719,2.6999969482421946,4.840000152587876,-1.6399993896484233,-0.529998779296875,10.519996643066406,4.400001525878906,1.9899978637695312,6.569999694824247,-18.49000549316409,8.0,4.0,03-23,1.1449988683064778
01-24,0.4399986267089879,3.8899993896484375,0.3400001525878906,2.840000152587905,4.159999847412109,0.26999664306639204,-0.3800010681152344,11.209999084472656,3.30999755859375,1.3899993896484375,8.41000366210939,-24.610000610351562,10.0,2.0,03-24,0.9391660690307629
01-25,0.06999969482420809,3.0900001525878906,0.43000030517578125,2.520000457763679,4.210002899169915,0.7900009155273509,-0.2700004577636719,11.209999084472656,3.4199981689453125,-1.470001220703125,6.44000244140625,-32.559997558593736,9.0,3.0,03-25,-0.1766662597656241
01-26,0.5399990081787109,3.1500015258789062,0.1399993896484375,1.8499984741211009,4.959999084472656,0.7600021362304901,-0.7900009155273438,7.5800018310546875,3.8400039672851562,-2.3700027465820312,6.630004882812528,-28.430000305175767,9.0,3.0,03-26,-0.178332805633539
01-27,0.1700000762939453,2.94000244140625,0.44000244140625,2.0100021362304616,5.610000610351555,0.1699981689453196,0.09000015258789062,7.819999694824219,3.1800003051757812,0.4799957275390625,7.560005187988281,-26.309997558593736,11.0,1.0,03-27,0.3466674486796067
01-28,-0.9699993133544922,2.920001983642578,1.1599998474121094,2.7899971008300852,5.610000610351555,-0.09999847412109375,0.8899993896484375,7.470001220703125,3.8800048828125,0.34999847412109375,7.639999389648452,-25.790000915527344,9.0,3.0,03-28,0.48750034968058387
01-29,1.0399990081787216,3.6399993896484446,0.8400001525878764,2.6599998474121165,4.730003356933587,0.20999908447265625,-0.020000457763671875,4.489997863769531,4.3300018310546875,0.34999847412109375,7.5799942016601705,-25.760002136230455,10.0,2.0,03-29,0.3408325513203965
01-30,1.279998779296868,4.009998321533203,0.759998321533196,2.80999755859375,4.790000915527337,-0.520000457763679,0.06999969482421875,6.0,4.3000030517578125,0.3899993896484375,7.55999755859375,-20.340003967285142,10.0,2.0,03-30,0.925832430521646
01-31,0.9600009918212855,4.180000305175781,1.55999755859375,2.5200004577636648,5.3100013732910085,0.46999740600584516,0.15999984741210938,6.200004577636719,4.069999694824219,0.660003662109375,7.06999969482419,-21.510002136230483,11.0,1.0,03-31,0.9708336194356223
02-01,1.149999618530277,4.180000305175781,0.9300003051757955,1.3999977111816335,5.119998931884766,4.6800003051757955,-0.020000457763671875,6.420005798339844,3.0999984741210938,1.5200042724609375,6.839996337890639,-16.759994506835923,10.0,2.0,04-01,1.5466672579447476
02-02,1.1000003814697266,3.6599998474121094,1.020000457763679,2.1100006103515625,4.760002136230476,5.6300048828125,-0.020000457763671875,7.410003662109375,3.529998779296875,4.029998779296875,7.8600006103515625,-17.699996948242173,10.0,2.0,04-02,1.9491677284240747
02-03,1.0499992370605469,3.740001678466797,1.7299995422363281,1.2700004577636719,5.020000457763672,5.720001220703125,0.04999923706053977,5.5800018310546875,3.2099990844726562,4.5500030517578125,7.370002746582031,-21.02999877929686,11.0,1.0,04-03,1.5216674804687507
02-04,1.370000839233402,4.250000000000007,2.1800003051757884,1.5,4.430000305175781,5.00999832153321,0.29999923706053977,6.170005798339844,3.0999984741210938,6.180000305175781,7.620002746582031,-20.739997863769545,11.0,1.0,04-04,1.7808340390523274
02-05,2.679998397827145,4.470001220703125,1.7000007629394602,1.7599983215332031,4.090000152587891,4.840000152587891,-0.15999984741212359,7.969993591308594,3.3899993896484375,6.3300018310546875,6.400001525878906,-21.66000366210939,10.0,2.0,04-05,1.8174993197123186
02-06,1.9899978637695277,4.509998321533203,2.1200027465820455,1.7599983215332031,3.729999542236328,4.180000305175781,-1.1800003051757884,5.8800048828125,2.7300033569335938,5.9199981689453125,5.8800048828125,-21.37999725341797,10.0,2.0,04-06,1.3450009028116863
02-07,2.5699977874755753,4.590000152587891,2.1000022888183665,1.8199996948242259,3.7999992370605398,2.549999237060547,-0.2700004577636719,4.709999084472656,3.3499984741210938,5.8600006103515625,6.150001525878892,-22.509994506835966,10.0,2.0,04-07,1.226666927337643
02-08,1.4200000762939382,4.75,1.720001220703125,2.069999694824226,3.5800018310546875,2.009998321533203,-0.5400009155273366,4.950004577636719,2.529998779296875,9.020004272460938,7.3499984741210795,-15.040000915527315,10.0,2.0,04-08,1.9850004514058448
02-09,1.4200000762939382,4.480003356933594,2.049999237060547,1.0300025939941406,3.9599990844726562,2.4399986267089986,-0.23000335693358664,3.5699996948242188,2.9599990844726562,6.339996337890625,7.290000915527315,-14.680000305175753,10.0,2.0,04-09,1.7191662788391124
02-10,2.630001068115231,4.819999694824212,1.30999755859375,1.2999992370605469,4.009998321533196,2.829998016357422,-0.3100013732910156,3.7900009155273438,1.3700027465820312,7.3000030517578125,6.460006713867173,-14.680000305175753,10.0,2.0,04-10,1.7358338038126628
02-11,2.3700008392333984,2.289997100830071,0.8800010681152344,1.7300033569335866,4.819999694824219,2.4099960327148438,-0.26000213623046875,3.029998779296875,2.4599990844726562,10.120002746582031,7.340003967285142,-14.930000305175753,10.0,2.0,04-11,1.8550000190734863
02-12,2.859998703002926,2.8799972534179688,0.80999755859375,0.9200019836425781,4.540000915527344,2.299999237060554,-0.7399978637695312,2.05999755859375,2.4899978637695312,9.650001525878906,6.720001220703125,-13.58999633789061,10.0,2.0,04-12,1.741666634877524
02-13,4.319999694824219,3.2399978637695312,0.1399993896484304,1.4800033569335866,4.0800018310546875,1.2900009155273438,-1.0699958801269531,3.410003662109375,2.4899978637695312,2.529998779296875,6.2399978637695455,-12.08999633789064,10.0,2.0,04-13,1.3383340835571278
02-14,4.849998474121087,3.3800010681152344,0.37999725341797586,1.5699996948242116,4.409999847412109,-0.04999542236328125,-1.8199996948242188,3.6399993896484375,3.089996337890625,1.589996337890625,7.890007019042969,-9.400001525878906,9.0,3.0,04-14,1.627499898274739
02-15,4.0,4.00999832153321,0.4199981689453196,1.4900016784667898,3.7900009155273366,0.20999908447264204,-1.9500007629394531,4.2400054931640625,3.720001220703125,1.5299987792968892,8.369995117187528,-12.91000366210939,10.0,2.0,04-15,1.4099995295206718
02-16,4.360000610351555,4.00999832153321,0.43000030517579546,1.75,1.6399993896484375,1.0499954223632812,-2.25,4.2400054931640625,2.0300064086914062,0.9199981689453125,8.33999633789064,-11.240005493164077,10.0,2.0,04-16,1.2733329137166354
02-17,4.360000610351555,4.319999694824226,0.15999984741210938,1.2600021362304688,2.1100006103515625,1.0499954223632812,-2.25,4.819999694824219,1.9000015258789062,3.25,8.069999694824247,-14.330001831054702,10.0,2.0,04-17,1.2266664505004894
02-18,4.560001373291005,4.4499969482421875,0.7399978637695312,1.7700004577636719,1.2599983215332031,1.0499954223632812,-2.8300018310546875,5.149993896484375,2.6800003051757812,5.06999969482419,8.069999694824247,-14.330001831054702,10.0,2.0,04-18,1.4699983596801738
02-19,2.770000457763672,4.729999542236321,1.0999984741210938,2.0,1.2599983215332031,1.5100021362304972,-2.8299980163574077,6.370002746582031,2.9800033569335938,4.550003051757798,8.069999694824247,-14.080001831054702,10.0,2.0,04-19,1.535833994547529
02-20,2.3500003814697266,4.69999694824218,1.6799964904785156,1.9799995422363281,2.7399978637695312,1.550003051757784,-3.329998016357422,6.829994201660156,2.9600067138671875,4.550003051757798,7.3600006103515625,-13.080001831054688,10.0,2.0,04-20,1.690833250681555
02-21,2.5499992370605398,4.55999755859375,1.6799964904785156,1.9799995422363281,2.3400001525878906,1.9300003051757812,-3.4599952697753693,6.649993896484375,2.9600067138671875,5.4499969482421875,4.579994201660156,-9.040000915527358,10.0,2.0,04-21,1.848332405090332
02-22,3.3299999237060476,4.680000305175774,1.6799964904785156,2.029998779296875,2.2600021362304688,2.7099990844726562,-3.54999542236326,6.969993591308594,3.2900009155273438,4.190002441406236,6.159996032714858,-2.2699966430664205,10.0,2.0,04-22,2.6233331362406407
02-23,3.1099987030029297,4.840000152587891,2.3699989318847656,1.3800010681152344,3.3600006103515625,3.25,-3.3899955749511648,6.899993896484375,3.6999969482421875,3.4500045776367188,7.370002746582017,-3.089996337890611,10.0,2.0,04-23,2.770833810170492
02-24,2.1299991607666016,4.450000762939453,3.549999237060547,1.6599998474121094,4.060001373291016,2.8299942016601562,-3.4200019836425852,5.859992980957031,3.6299972534179688,3.5699996948242188,8.5,-2.909996032714858,10.0,2.0,04-24,2.8258322079976383
02-25,1.7699985504150426,4.739997863769531,3.329998016357429,1.029998779296875,4.400001525878906,2.5999984741210795,-2.9699974060058807,4.2400054931640625,3.8199996948242188,2.4000015258789062,8.380004882812472,-0.6399993896484375,10.0,2.0,04-25,2.75833400090535
02-26,2.2100009918212855,4.710002899169915,2.9500007629394602,0.799999237060554,4.040000915527344,2.2599945068359375,-3.3200035095214915,6.349998474121094,4.25,2.3700027465820312,8.630004882812472,1.620002746582017,11.0,1.0,04-26,3.0725003878275516
02-27,2.220001220703125,4.090000152587891,3.670001983642578,1.7900009155273438,3.099998474121101,1.8499984741210938,-2.5800018310546875,5.30999755859375,4.859992980957031,3.6500015258789062,8.52999877929686,2.6199951171875,11.0,1.0,04-27,3.259165445963541
02-28,3.8500003814697266,3.69000244140625,3.9600028991699148,2.270000457763672,2.2299995422363352,0.970001220703125,-3.7099990844726562,6.220001220703125,4.829994201660156,3.7300033569335938,7.719993591308608,3.0500030517578267,11.0,1.0,04-28,3.2341669400533064
02-29,0.0,0.0,0.0,2.2400016784667898,0.0,0.0,0.0,6.25,0.0,0.0,0.0,9.0,3.0,0.0,04-29,1.4575001398722325
03-01,3.6200008392333984,3.94000244140625,4.670001983642571,1.5600013732910227,1.9199981689453054,1.5699996948242045,-3.720001220703118,5.459999084472656,3.279998779296875,4.279998779296875,10.610000610351548,7.599998474121094,11.0,1.0,04-30,3.7324999173482234
03-02,4.410001754760742,3.6399993896484375,4.700000762939446,1.5900001525878906,1.9499969482421946,1.7900009155273438,-3.950000762939453,5.549995422363281,2.9800033569335938,3.779998779296875,9.709999084472656,6.5,11.0,1.0,05-01,3.554166316986084
03-03,4.670000076293945,3.3100013732910156,3.7400016784667898,1.1599998474121094,2.6999969482421946,2.089996337890625,-3.3400001525878906,4.090003967285156,4.260002136230469,3.0999984741210938,9.629997253417955,7.3199996948242045,11.0,1.0,05-02,3.560833136240639
03-04,4.170000076293945,4.080001831054695,4.510002136230476,1.3199996948242188,2.069999694824233,1.6699981689453125,-3.0700035095214844,0.0,4.0800018310546875,3.1399993896484375,11.199996948242202,2.6399993896484517,10.0,2.0,05-03,2.984166304270431
03-05,5.220001220703125,2.69000244140625,5.060001373291016,1.1800003051757884,1.6700019836425852,1.4899978637695312,-2.9599990844726705,1.1299972534179688,4.549995422363281,2.159996032714858,11.33999633789064,3.0999984741210938,11.0,1.0,05-04,3.052499135335289
03-06,5.140001296997056,3.2099990844726562,4.610000610351555,2.3699989318847727,1.0900001525879048,1.44000244140625,-0.21999359130857954,0.029998779296875,4.799995422363281,1.790000915527358,12.319999694824247,-1.1600036621093608,10.0,2.0,05-05,2.9516666730245014
03-07,6.030000686645501,3.0600013732910156,4.119998931884766,2.340000152587905,1.0699996948242116,0.9499969482421733,-0.220001220703125,-0.160003662109375,4.9799957275390625,2.4199981689453267,13.120002746582045,5.3600006103515625,10.0,2.0,05-06,3.5891658465067557
03-08,6.020000457763668,2.0400009155273438,2.1599998474121094,1.5600013732910156,0.7400016784667969,1.1800003051757812,-1.1800003051757812,-0.23000335693359375,4.5099945068359375,1.170005798339858,13.379997253417969,4.1100006103515625,10.0,2.0,05-07,2.954999923706056
03-09,6.270000457763668,2.3199996948242188,2.5999984741210938,0.18000030517578836,0.720001220703125,0.8100051879882812,-1.0800018310546875,-0.29000091552734375,5.540000915527344,1.3899993896484375,13.0,3.410003662109361,10.0,2.0,05-08,2.905833880106607
03-10,5.260000228881832,2.2099990844726562,3.3199996948242116,-0.009998321533203125,0.7900009155273438,0.920005798339858,-0.6500015258789062,0.6899948120117188,5.120002746582031,2.0200042724609233,11.950004577636719,0.8700027465820455,10.0,2.0,05-09,2.707501252492269
03-11,5.430000305175778,1.0,3.1199989318847656,0.19000244140625,1.1100006103515625,1.420005798339858,-0.26000213623046875,0.5,5.760002136230469,0.980003356933608,11.97000122070311,5.779998779296875,11.0,1.0,05-10,3.0833342870076508
03-12,4.1999988555908345,-0.060001373291015625,3.849998474121101,0.12000274658203836,1.0999984741210938,1.4400024414062642,-0.5600013732910227,1.3100051879882812,5.730003356933594,2.1800003051757812,11.729995727539034,11.069999694824219,10.0,2.0,05-11,3.509166876475017
03-13,3.9400005340576136,2.1599998474121094,4.0,-0.6899986267089773,1.1299972534179688,2.5499954223632955,0.060001373291015625,1.8400039672851562,6.120002746582031,2.4599990844726562,11.709999084472642,11.139999389648438,11.0,1.0,05-12,3.868333339691162
03-14,3.719999313354492,2.1899986267089773,3.2099990844726634,-0.7399978637695241,0.4799995422363281,2.079994201660142,-0.729999542236321,1.5900039672851562,6.340003967285156,2.8899993896484375,10.110000610351562,18.430000305175795,10.0,2.0,05-13,4.130833466847739
03-15,3.789999008178711,2.6800003051757812,3.9300003051757812,-1.3199996948242188,0.7900009155273438,2.5400009155273438,-0.2800025939941406,0.6699981689453125,5.6300048828125,3.5100021362304688,10.549995422363295,16.069999694824233,10.0,2.0,05-14,4.046666622161868
03-16,2.799999237060547,2.3400001525878906,4.290000915527344,-1.3500022888183594,0.4199981689453054,2.029998779296875,0.5400009155273438,0.279998779296875,5.549995422363281,4.1399993896484375,9.090003967285142,14.540000915527344,11.0,1.0,05-15,3.7224995295206686
03-17,2.210000991821289,2.1800003051757812,5.060001373291023,-2.259998321533203,0.7399978637695241,1.819999694824233,0.720001220703125,0.3699951171875,5.349998474121094,3.410003662109389,9.270004272460938,5.970001220703111,11.0,1.0,05-16,2.9033338228861503
03-18,0.6299991607666016,2.0400009155273438,4.310001373291023,-2.8499984741210938,1.1099967956542898,1.3099975585937784,0.3800010681152344,0.0800018310546875,4.790000915527344,2.1399993896484375,9.52999877929686,5.6699981689453125,11.0,1.0,05-17,2.4283331235249848
03-19,0.6700000762939382,1.0,3.9299964904785156,-3.3100013732910085,0.8599967956542898,1.9199981689453267,1.5699996948242188,0.0200042724609375,4.950004577636719,3.5800018310546875,9.639999389648423,3.5800018310547017,11.0,1.0,05-18,2.3675001462300624
03-20,1.1599998474121094,1.5400009155273509,3.009998321533203,-3.120002746582017,0.019996643066413355,1.3199996948242188,1.9699974060058594,-1.9799957275390625,4.44000244140625,3.7600021362304688,9.290000915527315,8.989997863769517,10.0,2.0,05-19,2.533333142598469
03-21,0.19000053405761363,0.6300010681152415,4.239997863769531,-3.0,0.3100013732910156,1.3899993896484375,2.2700042724609517,-2.1299972534179688,5.510002136230469,3.9500045776367188,8.569999694824219,20.220001220703125,10.0,2.0,05-20,3.5125012397766127
03-22,0.4500007629394531,0.5699996948242259,4.319999694824219,-3.8600006103515625,0.8299980163574219,2.4399948120117188,2.6999969482421733,-2.8199996948242188,5.430000305175781,5.3300018310546875,9.949996948242188,19.800003051757812,10.0,2.0,05-21,3.7616659800211583
03-23,0.23000144958495738,0.30999755859375,4.25,-4.590000152587891,1.0600013732910227,1.6199951171875,2.0699996948242188,-2.8899993896484375,4.9799957275390625,6.790000915527358,8.52999877929686,20.480003356933594,10.0,2.0,05-22,3.5699995358784995
03-24,0.6000003814697372,1.1099967956542969,3.8600006103515696,-4.35999679565429,0.9900016784667969,1.829994201660142,1.9599990844726562,-2.5400009155273438,5.739997863769531,5.800003051757827,8.97000122070311,16.350006103515625,10.0,2.0,05-23,3.359166940053305
03-25,0.13000106811523438,0.060001373291015625,3.5499992370605398,-4.329998016357422,0.6100006103515625,1.8599929809570028,2.479999542236328,-2.9799957275390625,6.219993591308594,5.75,8.639999389648423,14.230003356933594,10.0,2.0,05-24,3.018333117167151
03-26,-1.4399986267089844,-0.4099998474121165,2.6599998474121236,-3.8699989318847656,-0.040000915527336645,2.4499969482421733,2.479999542236328,-3.5199966430664062,6.569999694824219,5.879997253417969,7.7099990844726705,8.210006713867173,7.0,5.0,05-25,2.2233336766560874
03-27,-1.3599987030029226,-1.0,2.569999694824233,-3.740001678466797,-0.22999954223632812,2.3299980163574148,1.7399978637695312,-1.9300003051757812,6.769996643066406,6.0099945068359375,7.6300048828125,11.089996337890625,7.0,5.0,05-26,2.4899989763895682
03-28,-0.2700004577636683,-1.3400001525878906,3.1599998474121236,-3.8899993896484304,-0.7399978637695312,1.6500015258789205,0.7999992370605469,-1.9599990844726562,6.319999694824219,5.7299957275390625,6.9599990844726705,4.6199951171875,7.0,5.0,05-27,1.7533327738444056
03-29,0.679998397827152,-1.0,3.240001678466804,-3.8600006103515625,-0.28000259399415484,-0.11000061035157671,0.270000457763679,-2.160003662109375,6.349998474121094,4.2599945068359375,6.569999694824219,9.069999694824205,7.0,5.0,05-28,1.9191654523213684
03-30,-0.25,-1.1700019836425781,2.44000244140625,-3.709999084472649,-0.75,-0.15000152587892046,0.7800025939941548,-2.3800048828125,6.529998779296875,6.099998474121094,5.220001220703125,12.069999694824205,6.0,6.0,05-29,2.0608329772949214
03-31,-0.4399986267089915,-0.779998779296875,1.9300003051757955,-4.3899993896484375,-0.5,-0.1399993896484517,0.9600028991699361,-2.0600051879882812,7.160003662109375,6.150001525878906,5.19000244140625,13.010002136230455,6.0,6.0,05-30,2.17416763305664
04-01,-0.38999938964844105,-0.9300003051757812,1.200000762939446,-4.290000915527344,-0.7000007629394602,-1.0900039672851562,0.8300018310547088,-2.6599960327148438,7.920005798339844,5.379997253417983,4.9899978637695455,16.340003967285142,6.0,6.0,05-31,2.21666717529297
04-02,-2.3099975585937464,0.29000091552734375,1.0900001525878906,-5.130001068115227,-0.9599990844726562,-1.1800003051757812,1.339996337890632,-1.7700042724609375,8.090003967285156,6.029998779296875,5.479995727539077,15.449996948242188,7.0,5.0,06-01,2.201665878295901
04-03,-1.8399982452392472,0.20000076293945312,2.2600021362304616,-5.38999938964843,-0.3699989318847656,-0.30999755859375,0.3899993896484446,-1.6500015258789062,8.560005187988281,4.400001525878906,5.229995727539077,17.1999969482422,7.0,5.0,06-02,2.390000502268477
04-04,-0.6800003051757812,-0.5999984741210938,0.9799995422363352,-4.920001983642571,0.5700035095214844,0.549995422363267,0.5200004577636719,-1.7000045776367188,8.270004272460938,4.25,5.410003662109389,10.65999603271483,8.0,4.0,06-03,1.9424997965494792
04-05,0.01000213623046875,0.18999862670898438,0.55999755859375,-3.670001983642578,0.6300010681152415,1.0800018310546875,0.5699996948242259,-0.529998779296875,8.930000305175781,1.9199981689453125,4.529998779296889,11.309997558593736,10.0,2.0,06-04,2.127499580383302
04-06,-0.049999237060532664,0.10999679565429688,0.579998016357429,-3.890003204345696,0.45999908447265625,0.8000030517577983,0.7599983215332102,-0.7700042724609375,9.730003356933594,4.269996643066406,5.040000915527358,12.519996643066392,9.0,3.0,06-05,2.463332176208498
04-07,1.0999984741211044,-0.0500030517578125,1.0300025939941548,-3.930000305175767,0.19000244140625,0.75,1.029998779296875,0.0,10.169998168945312,3.9599990844726562,6.730003356933608,12.15999603271483,9.0,3.0,06-06,2.761666297912601
04-08,0.34000015258789773,-0.3999977111816335,0.7900009155273366,-3.75,-0.6100006103515554,0.31999969482420454,0.720001220703125,-0.160003662109375,8.959999084472656,4.019996643066406,8.139999389648438,9.169998168945312,8.0,4.0,06-07,2.294999440511068
04-09,-0.6500015258789134,-2.4599990844726562,0.5,-2.5699996948242116,-0.6599998474120952,-0.06999969482421875,0.589996337890625,-0.2700042724609375,8.590003967285156,4.010002136230469,8.96999359130858,4.870002746582031,6.0,6.0,06-08,1.7374995549519856
04-10,-0.40999984741210227,-2.9899978637695312,0.8199996948242259,-1.7599983215332031,-1.470001220703118,0.819999694824233,0.7899971008300923,0.12999725341796875,8.800003051757812,1.19000244140625,8.08999633789061,11.050003051757812,8.0,4.0,06-09,2.088333447774254
04-11,-0.09999847412108664,-3.009998321533203,0.5499992370605469,-2.3199996948242116,-1.200000762939446,2.3899993896484517,0.31999969482421875,0.3600006103515625,8.770004272460938,1.660003662109375,10.569999694824219,11.230003356933594,8.0,4.0,06-10,2.43500105539958
04-12,0.17000198364258523,-3.3899993896484304,1.2199974060058665,-2.5600013732910227,0.09999847412110086,2.040000915527358,0.7200012207031108,0.1300048828125,9.459999084472656,0.5400009155273153,11.610000610351548,10.120002746582031,10.0,2.0,06-11,2.5133339564005515
04-13,0.48000335693360796,-3.5300025939941335,0.979999542236321,-1.6800003051757884,1.7999992370605398,1.9399948120117188,0.80999755859375,-0.470001220703125,9.449996948242188,0.910003662109375,13.330001831054688,9.290000915527344,9.0,3.0,06-12,2.7758328119913735
04-14,1.3300018310546946,-4.159999847412109,1.4200019836425781,-2.5,1.4599990844726562,1.409996032714858,0.9399986267089844,-0.6599960327148438,8.3800048828125,-0.48999786376954546,12.69000244140625,7.620002746582031,8.0,4.0,06-13,2.2866678237915044
04-15,0.9700012207031392,-3.75,0.17000198364257102,-1.9000015258788991,0.6599998474121094,0.5699996948242188,1.2399978637695312,-1.0500030517578125,8.170005798339844,-0.15999603271485796,11.730003356933608,10.709999084472656,8.0,4.0,06-14,2.280000686645509
04-16,3.799999237060547,-3.7199974060058665,1.8600006103515625,-2.2999992370605398,0.18999862670898438,0.19999694824221592,1.770000457763686,-2.8499984741210938,8.910003662109375,0.01000213623045454,12.0,2.4000015258789062,9.0,3.0,06-15,1.855834007263186
04-17,4.350000381469727,-3.9299964904785156,2.009998321533203,-2.529998779296868,1.0400009155273438,-0.4700012207031108,1.7400016784667969,-3.1899948120117188,8.980003356933594,-1.8099975585937358,13.920005798339844,2.4199981689453267,7.0,5.0,06-16,1.877501646677657
04-18,4.460000991821293,-2.759998321533203,1.0,-2.509998321533196,2.720001220703125,-0.6699981689452983,1.4599952697753693,-3.30999755859375,8.680000305175781,-1.2900009155273438,12.510002136230469,-1.5299987792968608,6.0,6.0,06-17,1.5633339881896988
04-19,4.149999618530277,-2.2699966430664062,0.4200019836425781,-2.1599998474121165,1.9599990844726562,-1.44000244140625,2.0900001525878693,-3.1299972534179688,8.699996948242188,0.05999755859376421,11.159996032714844,0.4499969482422017,8.0,4.0,06-18,1.6658326784769697
04-20,4.3099994659423935,-2.129997253417976,-0.4099998474121094,-2.6199989318847656,1.6800003051757812,-0.75,1.9999961853027273,-3.4499969482421875,8.410003662109375,0.4799957275390767,11.239997863769531,-0.02999877929686079,6.0,6.0,06-19,1.560833454132082
04-21,3.5299987792968857,-2.25,-0.7000007629394602,-1.6399993896484304,1.8800010681152344,-1.0100021362304688,2.089996337890618,-2.0800018310546875,7.959999084472656,0.48999786376953125,10.559997558593736,0.7900009155273295,7.0,5.0,06-20,1.6349989573160786
04-22,3.7500000000000036,-2.609996795654297,-0.6399993896484446,-1.8299980163574219,1.1399993896484375,-1.5500030517578125,1.9299964904785227,-3.3300018310546875,8.449996948242188,-0.09999847412109375,10.480003356933594,0.6100006103515767,6.0,6.0,06-21,1.358333269755047
04-23,3.130001068115245,-2.720001220703125,-0.4699974060058736,-2.0199966430664062,0.4399986267089844,-1.1299972534179688,2.3299980163574148,-1.399993896484375,8.589996337890625,0.29000091552734375,9.35000610351561,1.9700012207031108,7.0,5.0,06-22,1.5300013224283822
04-24,2.629999160766598,-3.0,0.18000030517577414,-1.7899971008300852,0.09999847412109375,-0.6800003051757812,2.0,-1.339996337890625,8.699996948242188,1.4599990844726562,9.47000122070314,3.4799957275390483,8.0,4.0,06-23,1.7674997647603339
04-25,1.7900009155273438,-4.099998474121094,-0.029998779296882105,-2.779998779296875,-0.8499984741210938,-0.5100021362304688,2.7099990844726562,-0.7099990844726562,8.269996643066406,1.4899978637695312,10.360000610351562,-5.029998779296889,5.0,7.0,06-24,0.8841667175292951
04-26,1.9799995422363281,-4.509998321533203,-0.75,-3.3699989318847727,-0.3600006103515554,-0.5100021362304545,2.3899993896484375,-1.6200027465820312,7.660003662109375,-0.18000030517578125,7.959999084472642,-5.139999389648452,4.0,8.0,06-25,0.29583326975504437
04-27,2.010002136230476,-4.1100006103515625,-1.0400009155273366,-3.0699996948242116,-0.5199966430664062,-0.900001525878892,1.6599960327148438,-1.6500015258789062,8.029998779296875,-0.8300018310547017,7.459999084472656,-6.639999389648452,4.0,8.0,06-26,0.03333282470703184
04-28,2.240001678466804,-4.3600006103515625,-1.5400009155273438,-3.799999237060547,-0.48999786376953125,-0.5100021362304545,1.6699981689453054,0.8499984741210938,6.5,-1.3199996948242188,9.739997863769545,-5.2399978637695455,5.0,7.0,06-27,0.3116664886474621
04-29,1.4500007629394602,-5.340000152587905,-1.8400001525878906,-3.9299964904785156,-0.3899993896484375,-0.7300033569335938,1.8999977111816406,0.75,7.409996032714844,-0.7900009155273438,7.919998168945298,-4.139999389648452,5.0,7.0,06-28,0.18916606903075875
04-30,1.9299983978271449,-4.299999237060547,-1.7900009155273438,-3.779998779296875,-1.1399993896484375,-1.029998779296875,2.2099990844726705,-2.25,6.6399993896484375,-1.4000015258789062,8.0,0.5199966430664062,5.0,7.0,06-29,0.30083290735880625
05-01,2.670000076293949,-4.429996490478516,-1.2100028991699148,-3.9399986267089844,-0.5100021362304759,-0.8800048828125,0.43000030517579546,-1.1599960327148438,7.1999969482421875,-1.44000244140625,6.430000305175753,1.5800018310546875,5.0,7.0,06-30,0.394999663035074
05-02,2.4600009918212926,-5.459999084472656,-0.7900009155273438,-3.799999237060554,-0.18999862670898438,0.3300018310546875,-0.21999740600585938,-0.12999725341796875,6.730003356933594,-0.45999908447267046,8.550003051757798,2.440002441406236,5.0,7.0,07-01,0.7883350054422976
05-03,2.4400005340576207,-5.849998474121094,-0.3400001525878835,-4.300003051757805,-0.7800025939941406,0.2700042724609375,-0.18999862670898438,0.970001220703125,6.480003356933594,1.5899963378906108,10.489997863769531,5.1700057983398295,7.0,5.0,07-02,1.3291672070821117
05-04,2.4400005340576207,-5.700000762939453,0.15000152587890625,-2.6700019836425852,-0.11999893188476562,0.7700042724609375,-0.18999862670898438,1.160003662109375,5.099998474121094,1.1199951171874716,9.25,5.1700057983398295,8.0,4.0,07-03,1.3733340899149538
05-05,2.450000762939453,-4.680000305175781,0.69000244140625,-2.5400009155273438,-0.11999893188476562,0.7700042724609375,0.7700004577636719,0.660003662109375,4.579994201660156,0.5799942016601562,9.25,6.4200057983398295,9.0,3.0,07-04,1.569167137145995
05-06,2.200000762939453,-3.5400009155273438,1.0800018310546875,-1.8100013732910085,-0.2700004577636719,1.1399993896484375,0.6700019836425781,2.8499984741210938,4.349998474121094,0.7899932861328267,8.520004272460938,7.120002746582031,9.0,3.0,07-05,1.9249998728434263
05-07,2.9700012207031143,-2.720001220703118,0.9900016784667969,-1.0600013732910085,-0.3400001525878906,1.0299987792968608,0.8499984741210938,2.6199951171875,4.569999694824219,1.1899948120117188,9.569999694824219,7.010002136230469,9.0,3.0,07-06,2.223332405090331
05-08,2.2900009155273473,-4.130001068115227,0.9099998474121094,-1.2600021362304616,-0.6599998474121094,0.04000091552734375,0.6300010681152344,2.1699981689453125,4.779998779296875,2.229995727539034,9.550003051757827,7.44000244140625,9.0,3.0,07-07,1.9991664886474612
05-09,2.0600013732910156,-4.819999694824219,1.9199981689453125,-1.19000244140625,-0.07999801635742898,0.3800048828125,0.7799987792968679,2.1899948120117188,4.80999755859375,1.0299987792968608,12.919998168945312,8.950004577636719,9.0,3.0,07-08,2.4124997456868464
05-10,1.470001220703125,-3.6500015258789062,1.7699966430664134,-1.0699996948242188,0.12999725341797586,-1.0800018310546875,1.2400016784667898,1.6599960327148438,4.4199981689453125,0.75,11.010002136230469,8.840003967285142,9.0,3.0,07-09,2.1241661707560215
05-11,1.3100013732910156,-3.680000305175774,2.55999755859375,-1.9300003051757812,0.920001983642571,-1.2600021362304688,0.37999725341795454,1.9099960327148438,4.779998779296875,-0.20999908447265625,11.189994812011719,6.620002746582017,8.0,4.0,07-10,1.8824990590413389
05-12,1.2400016784667969,-4.170001983642578,1.8699989318847585,-2.6100006103515554,1.8199996948242188,-1.1800003051757812,-0.06999969482422586,0.8600006103515625,5.659996032714844,1.7299957275390483,11.26999664306642,8.98000335693358,8.0,4.0,07-11,2.116665840148924
05-13,2.230001449584961,-3.229999542236328,1.8999977111816335,-2.8600006103515554,2.1100006103515625,-0.6699981689453125,-0.8900032043457102,2.8199996948242188,5.670005798339844,2.739997863769517,10.77999877929689,10.510002136230469,8.0,4.0,07-12,2.592500209808349
05-14,1.6999988555908168,-1.5800018310546875,0.5500030517578196,-3.1000022888183594,1.7900009155273438,-0.45999908447267046,-1.7999992370605469,2.7999954223632812,5.540000915527344,2.309997558593736,10.599998474121094,11.300003051757827,8.0,4.0,07-13,2.4708329836527496
05-15,2.059999465942383,-2.1399993896484375,0.470001220703125,-2.5100021362304688,1.4200019836425781,0.2799987792968608,-1.5199966430664062,3.0100021362304688,6.350006103515625,3.5800018310546875,10.34000396728517,13.449996948242202,9.0,3.0,07-14,2.899167855580649
05-16,2.3199996948242188,-0.4799995422363281,0.3300018310546875,-2.049999237060554,2.75,0.20999908447267046,-1.4000015258789205,2.8300018310546875,6.19000244140625,2.1399993896484375,9.909996032714844,9.279998779296875,9.0,3.0,07-15,2.669166564941406
05-17,2.3300018310546946,-0.5499992370605469,1.25,-1.0900001525878906,2.5800018310546804,-0.089996337890625,-1.720005035400412,4.8300018310546875,6.700004577636719,2.4499969482421733,9.6300048828125,12.159996032714858,8.0,4.0,07-16,3.20666726430257
05-18,4.0,0.3600006103515625,0.020000457763671875,0.1399993896484375,2.6999969482421804,0.19000244140625,-1.720005035400412,4.980003356933594,6.489997863769531,1.3100051879882812,9.879997253417969,13.75,11.0,1.0,07-17,3.5083332061767556
05-19,3.7399997711181605,0.4200019836425781,-0.470001220703125,-0.9200019836425852,2.3699989318847585,-0.2799987792968608,-2.1499977111816335,5.340003967285156,7.069999694824219,-0.7200012207031392,10.120002746582031,14.169998168945312,7.0,5.0,07-18,3.224167029062906
05-20,3.9599990844726562,1.7599983215332031,0.1399993896484375,-0.740001678466804,2.3199996948242045,0.540000915527358,-1.520000457763679,4.589996337890625,6.950004577636719,0.6299972534179545,10.489997863769531,13.489997863769531,10.0,2.0,07-19,3.5508324305216448
05-21,5.000001907348633,1.1200027465820312,0.06999969482420454,-0.25,2.3899993896484304,0.3300018310547159,-0.6199951171875,5.120002746582031,6.900001525878906,0.6100006103515625,10.049995422363281,12.150001525878892,10.0,2.0,07-20,3.572501023610432
05-22,4.459999084472663,1.1500015258789134,1.979999542236321,-0.2799987792968679,2.7700004577636648,-0.8899993896484233,-0.5699996948242188,4.8300018310546875,7.25,0.6600036621093892,10.379997253417969,14.300003051757812,9.0,3.0,07-21,3.8366673787434924
05-23,4.190000534057617,1.6899986267089844,1.509998321533196,-0.7399978637695241,3.1400032043457102,0.06000518798828125,-0.010002136230475855,5.510002136230469,6.899993896484375,0.5300064086914205,11.400001525878906,9.739997863769545,10.0,2.0,07-22,3.6600006421407087
05-24,3.969999313354492,1.6700019836425781,1.5999984741210866,-0.3500022888183665,3.3600006103515554,-0.5499954223632955,-0.8899993896484446,3.9200057983398438,6.6999969482421875,2.3000030517578125,10.470001220703125,8.629997253417983,9.0,3.0,07-23,3.4025006294250466
05-25,4.100000381469727,2.0100021362304688,1.009998321533196,-0.5,3.1699981689453054,-2.2199974060058594,-0.9700012207031321,3.9500045776367188,5.549995422363281,1.6999969482421875,10.260002136230469,8.949996948242202,9.0,3.0,07-24,3.0841663678487135
05-26,4.100000381469727,1.6700019836425781,1.1800003051757812,-0.9300003051757741,3.0999984741210866,-2.279998779296875,-0.9700012207031321,3.5100021362304688,5.1399993896484375,1.8300018310546733,11.610000610351577,8.949996948242202,9.0,3.0,07-25,3.075833479563396
05-27,5.0299987792968786,2.0900001525878906,0.8100013732910156,-1.9599990844726562,2.229999542236321,-2.279998779296875,-1.480003356933608,3.3199996948242188,4.9199981689453125,1.4400024414062358,10.389999389648438,5.949996948242202,9.0,3.0,07-26,2.538332939147948
05-28,5.639999389648441,2.8400001525878906,-0.670001983642571,-1.3600006103515625,2.229999542236321,-2.2900009155273438,-2.029998779296875,2.6899948120117188,4.150001525878906,1.4200057983398295,10.389999389648438,6.840003967285142,8.0,4.0,07-27,2.487500190734861
05-29,5.050001144409176,4.4099998474121165,-0.8400001525878764,-1.3600006103515625,2.4300003051757812,-2.5800018310546875,-2.020000457763672,3.0400009155273438,3.5199966430664062,1.4200057983398295,10.590003967285142,7.459999084472656,8.0,4.0,07-28,2.593333721160888
05-30,3.0800018310546946,4.259998321533203,-1.930000305175767,-0.520000457763679,1.0999984741210938,-3.089996337890611,-2.520000457763672,2.4599990844726562,3.5199966430664062,0.7700042724609375,9.40999603271483,8.430000305175781,8.0,4.0,07-29,2.080833117167156
05-31,2.8000030517578196,4.180000305175781,-1.930000305175767,-0.8599967956542898,1.2199974060058452,-3.5900001525878906,-1.6000022888183523,2.4599990844726562,3.0499954223632812,3.75,11.22000122070311,6.630004882812486,8.0,4.0,07-30,2.27750015258789
06-01,2.4500007629394673,4.180000305175781,-0.6499977111816406,0.390003204345696,1.6400032043457031,-3.8699989318847727,2.449996948242209,2.5100021362304688,1.7399978637695312,10.1300048828125,10.91000366210936,7.389999389648452,10.0,2.0,07-31,3.27250130971273
06-02,1.7599983215332173,3.390003204345703,-0.7299995422363352,0.259998321533196,1.5400009155273438,-4.3899993896484375,2.399997711181655,2.029998779296875,-4.0200042724609375,8.639999389648438,9.77999877929689,6.7399978637695455,9.0,3.0,08-01,2.283332506815596
06-03,1.8199996948242188,3.200000762939453,-0.10000228881835227,-0.21000289916992898,1.5400009155273438,-4.110000610351548,2.2099990844726705,0.9800033569335938,-4.9199981689453125,8.569999694824219,6.989997863769531,5.529998779296889,8.0,4.0,08-02,1.7916663487752313
06-04,2.1300010681152415,4.6100006103515625,0.4500007629394531,-1.0,1.80999755859375,-4.05999755859375,3.5800018310546875,0.25,-3.339996337890625,8.569999694824219,5.299995422363281,5.7700042724609375,9.0,3.0,08-03,2.0058339436848964
06-05,2.479999542236321,5.50999832153321,-0.6300010681152344,-1.180000305175767,2.6100006103515554,-5.4300003051757955,3.5100021362304545,-0.4799957275390625,-3.5999984741210938,8.510002136230469,3.8899993896484517,1.7999954223632955,7.0,5.0,08-04,1.415833473205567
06-06,2.9300003051757812,5.419998168945305,-0.9500007629394531,-2.3600006103515554,3.6300010681152273,-5.979999542236335,3.529998779296889,-0.46999359130859375,-3.2300033569335938,8.519996643066406,-2.6700057983398295,5.0800018310546875,6.0,6.0,08-05,1.1208327611287447
06-07,3.1399993896484375,5.579998016357422,-1.270000457763679,-3.3699989318847585,3.479999542236328,-5.850002288818381,4.180000305175781,-0.8699951171875,-3.44000244140625,9.740005493164077,-3.9000015258789062,5.040000915527358,6.0,6.0,08-06,1.0383335749308273
06-08,2.7900009155273438,5.599998474121094,-1.0,-2.3400001525878764,2.780002593994155,-6.260002136230476,5.05999755859375,-1.0999984741210938,-3.0,10.439994812011719,-6.1399993896484375,4.779998779296875,6.0,6.0,08-07,0.9674994150797543
06-09,2.520000457763672,5.979999542236321,-3.6500015258789134,-1.7900009155273438,2.280002593994155,-5.710002899169936,4.659996032714858,-1.0100021362304688,-3.2900009155273438,10.389999389648438,-3.5,5.8899993896484375,6.0,6.0,08-08,1.064165751139323
06-10,2.209999084472649,5.0500030517578125,-2.6599998474121023,-1.720001220703125,2.3100013732910227,-5.609996795654297,4.569999694824219,-1.6100006103515625,-2.7000045776367188,9.73000335693358,-1.55999755859375,6.720001220703125,6.0,6.0,08-09,1.2275005976359044
06-11,1.0600013732910156,4.639999389648445,-6.19000244140625,-1.8500022888183594,2.6500015258789062,-5.079998016357436,3.590003967285142,-0.6100006103515625,-2.7000045776367188,9.139999389648438,-0.9199981689453125,13.410003662109375,6.0,6.0,08-10,1.42833360036214
06-12,1.2999992370605469,4.779998779296875,-3.9599990844726562,-2.4500007629394602,3.450000762939453,-4.5199966430664205,4.209999084472656,-0.7999954223632812,-2.9599990844726562,8.80999755859375,0.04000091552732954,13.889999389648438,7.0,5.0,08-11,1.8158337275187144
06-13,1.7099990844726562,4.189998626708984,-6.040000915527344,-2.0500030517578196,3.049999237060547,-4.050003051757827,5.6500015258789205,-0.55999755859375,-3.6999969482421875,8.639999389648438,2.1500015258789205,11.589996337890625,7.0,5.0,08-12,1.7149995168050136
06-14,2.229999542236328,2.879997253417976,-6.189998626708984,-2.5499992370605398,3.079998016357429,-3.479999542236328,4.910003662109389,-0.220001220703125,-3.7699966430664062,9.040000915527344,0.9900054931640625,11.329994201660142,7.0,5.0,08-13,1.520833651224774
06-15,2.4199981689453125,1.7099990844726634,-5.180000305175781,-2.3800010681152344,3.0800018310546946,-3.2900009155273438,4.510002136230497,-0.09999847412109375,-4.720001220703125,7.459999084472642,-0.12999725341796875,12.67999267578125,6.0,6.0,08-14,1.338332811991376
06-16,2.729999542236328,1.2199974060058665,-3.3199996948242188,-2.6399993896484446,3.2099990844726562,-2.529998779296875,3.879997253417997,-0.40000152587890625,-3.80999755859375,6.560005187988281,1.0500030517578125,10.699996948242188,7.0,5.0,08-15,1.387500127156578
06-17,2.5699996948242116,1.4899978637695312,-2.6800003051757812,-2.6499977111816406,3.1700019836425852,-3.220001220703125,3.970001220703139,-0.7699966430664062,-3.839996337890625,7.140007019042969,-1.0800018310546875,11.17999267578125,6.0,6.0,08-16,1.2733338673909518
06-18,2.979999542236321,1.3299980163574219,-2.2300033569335866,-2.2599983215332102,2.970001220703132,-2.9599990844726562,3.760002136230497,-2.1200027465820312,-4.0,6.5,-0.40000152587889204,11.52999877929689,6.0,6.0,08-17,1.2583328882853237
06-19,2.5400009155273438,1.770000457763679,-2.670001983642571,-2.0699996948242188,3.710002899169929,-3.5400009155273438,4.5800018310546875,-2.4599990844726562,-3.1999969482421875,7.089996337890625,-0.32000732421875,10.889999389648423,6.0,6.0,08-18,1.3599996566772468
06-20,2.7099990844726562,2.5400009155273438,-2.8800010681152273,-1.8800010681152344,3.8800010681152344,-3.329998016357422,4.589996337890611,-1.8300018310546875,-3.339996337890625,6.6999969482421875,-1.4799957275390767,10.699996948242202,6.0,6.0,08-19,1.3649997711181634
06-21,2.8699989318847727,2.450000762939453,-3.529998779296875,-0.4700012207031179,4.260002136230462,-2.7099990844726562,4.3300018310546875,-1.8899993896484375,-3.4499969482421875,8.569999694824219,0.8700027465820455,10.329994201660156,7.0,5.0,08-20,1.8025004069010435
06-22,3.200000762939453,3.549999237060547,-3.3199996948242188,-1.1000022888183594,4.409999847412109,-2.2600021362304688,3.6100006103515625,-2.5199966430664062,-4.69000244140625,10.130004882812528,1.44000244140625,10.139999389648438,7.0,5.0,08-21,1.8825003306070986
06-23,3.0100021362304688,3.9599990844726562,-4.700000762939446,-0.1399993896484375,4.509998321533203,-2.6399993896484375,3.9300003051757812,-3.30999755859375,-4.650001525878906,10.680000305175781,0.09999847412107954,10.25,7.0,5.0,08-22,1.7499999999999993
06-24,2.979999542236321,3.520000457763679,-3.950000762939453,-0.3400001525878835,4.069999694824212,-2.25,4.660003662109375,0.029998779296875,-5.650001525878906,11.110000610351562,0.5500030517578125,11.75,8.0,4.0,08-23,2.206666946411133
06-25,2.3300018310546875,3.3199996948242188,-4.3500022888183665,0.13000106811523438,4.040000915527337,-2.6399993896484375,3.7900009155273295,2.5,-5.019996643066406,11.0,-1.7299957275390767,9.950004577636705,8.0,4.0,08-24,1.9433345794677688
06-26,2.270000457763679,2.4299964904785156,-3.2099990844726562,0.2599983215332031,3.940002441406243,-2.3799972534179688,3.1299972534179545,2.7399978637695312,-5.529998779296875,10.470001220703125,0.09000396728517046,10.080001831054673,9.0,3.0,08-25,2.0241670608520494
06-27,1.7099990844726562,1.75,-2.770000457763672,0.1100006103515625,4.180000305175781,-3.390003204345696,2.409999847412095,2.9800033569335938,-4.760002136230469,11.080001831054688,-1.0100021362304545,9.860000610351562,8.0,4.0,08-26,1.8458331425984706
06-28,1.7000007629394531,1.8299980163574219,-3.349998474121101,-0.00999832153321023,4.630001068115234,-3.2900009155273366,1.7999992370605469,1.8899993896484375,-5.319999694824219,10.200004577636719,-4.079994201660142,8.879997253417955,7.0,5.0,08-27,1.2400007247924798
06-29,1.3799972534179616,2.8600006103515625,-3.770000457763672,-0.22999954223632812,4.119998931884766,-3.0500030517578125,2.9699974060058594,0.8600006103515625,-5.409996032714844,10.420005798339844,-3.279998779296889,9.349998474121094,7.0,5.0,08-28,1.3516667683919252
06-30,1.3999977111816335,3.25,-4.979999542236328,-1.270000457763679,2.799999237060547,-3.0100021362304688,2.9399986267089844,-1.05999755859375,-4.470001220703125,10.950004577636719,-2.7699966430664062,6.6199951171875,6.0,6.0,08-29,0.8666664759318022
07-01,1.05999755859375,3.3300018310546804,-4.740001678466797,-0.799999237060554,2.8600006103515696,-3.5100021362304688,2.8600006103515625,-0.6999969482421875,-5.220001220703125,10.300003051757812,-2.4099960327148438,6.1199951171875,6.0,6.0,08-30,0.7625001271565749
07-02,1.4399986267089844,3.979999542236321,-3.049999237060547,-0.8600006103515696,3.010002136230476,-2.7399978637695312,3.8700027465820455,0.05999755859375,-5.0800018310546875,11.110000610351577,-1.6800003051757812,5.080001831054673,7.0,5.0,08-31,1.2616669336954758
07-03,1.6199989318847656,3.6500015258789062,-2.8499984741210866,-1.6100006103515696,2.9300003051757955,-2.970001220703111,3.8699989318847656,-0.029998779296875,-4.1100006103515625,10.709999084472685,-4.05999755859375,2.8699951171874716,6.0,6.0,09-01,0.8349997202555363
07-05,0.9899978637695384,5.4199981689453125,-2.6800003051757812,-1.5800018310546875,2.5900001525878835,-2.2699966430664205,1.9600028991699219,-0.7399978637695312,-4.319999694824219,10.159996032714858,-2.9199981689453267,4.239997863769517,6.0,6.0,09-03,0.9041665395100887
07-06,0.8299980163574219,5.4199981689453125,-3.6899986267089844,-0.9899978637695241,1.9099998474121236,-1.8799972534179688,2.6400032043457173,-0.7599945068359375,-4.339996337890625,10.619995117187514,-1.769996643066392,7.0,6.0,6.0,09-04,1.2491677602132214
07-07,1.4199981689453125,4.25,-3.8600006103515625,0.930000305175767,1.4699974060058736,-2.25,2.1800003051757955,-0.5099945068359375,-4.4799957275390625,9.610000610351562,-4.339996337890611,7.110000610351577,7.0,5.0,09-05,0.9608341852823928
07-08,1.5799980163574219,3.7199974060058594,-5.009998321533203,1.279998779296868,1.7199974060058736,-2.0699996948242188,3.0400047302246307,-1.8199996948242188,-4.420005798339844,11.27999877929686,-2.0499954223632812,9.330001831054702,7.0,5.0,09-06,1.3816665013631209
07-09,1.5600013732910227,3.979999542236328,-5.479999542236335,0.8899993896484304,0.8199996948242259,-2.1500015258789062,3.0700035095214986,-1.0399932861328125,-5.0500030517578125,13.080001831054688,-2.129997253417983,8.5,7.0,5.0,09-07,1.3375008900960286
07-10,1.4300003051757884,4.759998321533203,-5.909999847412109,1.1399993896484304,0.5299987792968821,-1.5200042724609375,3.6999969482421875,-0.7399978637695312,-5.450004577636719,12.069999694824219,-1.6399993896484517,4.220001220703111,7.0,5.0,09-08,1.049165725708006
07-11,0.9799995422363352,4.490001678466797,-4.960002899169929,1.3800010681152344,-0.8299980163574219,-1.1500015258789205,3.0099945068359233,0.09000396728515625,-5.319999694824219,12.5,-2.8199996948242045,5.290000915527344,7.0,5.0,09-09,1.0549999872843412
07-12,1.6300010681152273,4.779998779296882,-4.880001068115234,1.75,-1.140003204345696,-1.8300018310546875,3.7599945068359233,-0.12000274658203125,-6.1300048828125,13.209999084472685,-2.5300064086914205,2.629997253417983,6.0,6.0,09-10,0.9274975458780942
07-13,1.8499984741210866,3.1199989318847727,-4.740001678466797,1.6500015258789062,-0.609996795654304,-2.6599998474121165,3.5199966430664205,0.05999755859375,-5.019996643066406,13.02999877929686,-3.8199996948242188,4.459999084472656,7.0,5.0,09-11,0.9033330281575509
07-14,1.8399963378906108,3.1899986267089915,-3.670001983642578,1.470001220703125,-0.26999664306640625,-3.0,3.840000152587912,-0.9800033569335938,-5.6100006103515625,15.26999664306642,-3.80999755859375,1.5800018310546733,6.0,6.0,09-12,0.8208328882853202
07-15,0.1699981689453054,3.3199996948242188,-4.579998016357422,1.5499992370605398,-0.25,-3.279998779296875,3.840000152587912,-2.4599990844726562,-4.6699981689453125,15.229995727539062,-4.290000915527358,-0.01000213623046875,5.0,7.0,09-13,0.38083299001057885
07-16,-0.470001220703125,4.179996490478516,-3.75,1.6399993896484446,0.07999801635742188,-2.809997558593764,2.6100006103515767,-1.4000015258789062,-4.590003967285156,16.099998474121094,-4.5300064086914205,-0.04999542236328125,5.0,7.0,09-14,0.5841655731201166
07-17,0.3400001525878835,4.959999084472649,-3.1300010681152273,1.4599990844726634,0.12999725341797586,-1.2399978637695455,3.470001220703111,-2.3700027465820312,-5.290000915527344,14.75,-4.9000015258789205,-1.0400009155273438,6.0,6.0,09-15,0.5949993133544892
07-18,0.0800018310546875,5.239997863769524,-2.400001525878899,0.9699974060058594,-0.6800003051757884,-3.3500022888183594,2.7600021362304545,-2.5400009155273438,-5.239997863769531,14.769996643066392,-6.309997558593764,-0.20999908447265625,5.0,7.0,09-16,0.2574996948242146
07-19,0.9799995422363281,6.0,-4.310001373291016,1.4300003051757812,-0.5700035095214844,-2.640003204345689,4.450004577636733,-2.25,-5.589996337890625,14.489997863769531,-5.0,-0.9599990844726562,5.0,7.0,09-17,0.502499898274742
07-20,1.2900009155273438,5.460002899169929,-3.8400001525878906,2.3499984741210938,0.6800003051757812,-2.8100013732910014,5.0800018310546875,-2.9300003051757812,-4.829994201660156,16.19000244140625,-6.680000305175781,-1.5200042724609375,6.0,6.0,09-18,0.7033338546752947
07-21,1.5100021362304688,5.479999542236335,-3.5099983215332102,2.620002746582017,-0.13000106811523438,-3.909999847412095,5.959999084472656,-2.0400009155273438,-4.8000030517578125,16.16000366210936,-6.150001525878892,-0.410003662109375,5.0,7.0,09-19,0.8983332316080729
07-22,1.3800010681152344,3.6100006103515554,-3.8100013732910156,2.3199996948242116,0.5800018310546946,-2.2399978637695312,6.040000915527344,-2.8600006103515625,-4.019996643066406,16.449996948242188,-4.860000610351577,-0.7300033569335938,6.0,6.0,09-20,0.9883333841959617
07-23,0.8499984741210866,2.5699996948242188,-4.209999084472656,2.6300010681152273,0.6500015258789134,-2.1799964904785156,5.959999084472656,-1.339996337890625,-3.9000015258789062,15.989997863769517,-6.209999084472685,-2.4800033569335795,6.0,6.0,09-21,0.6941668192545544
07-24,0.6399993896484375,1.8199996948242116,-4.599998474121101,3.6599998474121094,1.520000457763679,-2.19000244140625,5.400001525878892,-1.2299957275390625,-3.339996337890625,16.379997253417955,-4.9899978637695455,-3.80999755859375,6.0,6.0,09-22,0.7716674804687459
07-25,1.7000007629394531,1.2199974060058452,-6.049999237060547,3.0600013732910156,1.7700004577636719,-2.3400001525878906,6.2499961853027415,-1.529998779296875,-2.5699996948242188,16.39999389648436,-5.069999694824219,-6.400001525878892,6.0,6.0,09-23,0.5366659164428705
07-26,1.8499984741210938,0.979999542236321,-5.8800010681152415,2.8699989318847585,2.3000030517578196,-1.7099990844726562,5.359996795654304,-1.8800048828125,-1.9399948120117188,14.419998168945298,-6.439994812011719,-5.519996643066406,6.0,6.0,09-24,0.3675003051757795
07-27,2.1100006103515625,1.1300010681152344,-4.790000915527351,2.0199966430664134,1.9099998474121023,-1.970001220703132,5.299999237060554,-1.3000030517578125,-1.8499984741210938,7.4199981689453125,-6.840003967285142,-7.709999084472656,6.0,6.0,09-25,-0.38083426157633404
07-28,2.3899993896484375,1.2099990844726562,-5.44000244140625,2.170001983642571,1.9199981689453125,-1.9099998474121094,4.380001068115234,0.0800018310546875,3.410003662109375,7.8799972534179545,-6.430000305175753,-5.910003662109361,8.0,4.0,09-26,0.312499682108563
07-29,2.7400016784667898,1.1499977111816406,-4.899997711181648,1.5100021362304688,1.7699966430664062,-1.6300010681152273,0.3300018310546733,0.6100006103515625,5.8300018310546875,6.260002136230483,-5.81999969482419,-6.669998168945327,8.0,4.0,09-27,0.09833399454752663
07-30,1.8300018310546875,1.7600021362304688,-3.990001678466797,1.3300018310546946,1.8699989318847656,-1.1100006103515625,-1.900001525878892,0.720001220703125,5.819999694824219,6.099998474121094,-4.689994812011719,-5.650001525878892,7.0,5.0,09-28,0.17416699727376597
07-31,1.4600028991699219,1.0699996948242116,-3.3800010681152273,1.8000030517578196,1.8699989318847656,-0.2599983215332031,-2.2600021362304545,0.40000152587890625,5.6100006103515625,6.1699981689453125,-1.8999938964843608,-3.099998474121108,7.0,5.0,09-29,0.6233342488606789
08-01,1.6699981689453125,1.9000015258788991,-5.349998474121101,2.5900001525878906,0.6599998474121094,0.25,-3.129997253417997,1.2700042724609375,4.029998779296875,6.1699981689453125,1.3600006103515483,-6.3000030517578125,9.0,3.0,09-30,0.42666689554849785
08-02,1.700000762939446,2.0300025939941406,-4.269996643066413,3.049999237060554,-0.829998016357429,0.36999893188477273,-2.339996337890639,2.0,4.290000915527344,5.359992980957031,0.6500015258789062,-6.0400009155273295,8.0,4.0,10-01,0.4975004196166986
08-03,1.6800003051757812,2.1200027465820455,-3.9499969482421946,1.6499977111816335,0.15999984741209516,-0.6800003051757741,-1.319999694824233,1.9899978637695312,4.8300018310546875,3.6399993896484233,1.3699951171875142,-5.460006713867173,8.0,4.0,10-02,0.5024992624918614
08-04,1.470001220703125,1.960002899169929,-0.9699974060058452,1.7600021362304688,1.1199989318847585,-2.120002746582024,-1.970001220703125,0.43000030517578125,3.9499969482421875,3.55999755859375,0.589996337890625,-5.420005798339844,8.0,4.0,10-03,0.36333243052164893
08-05,1.8199996948242188,2.0199966430664062,-3.0700035095214844,1.8899993896484446,0.30999755859375,-1.710002899169929,-2.8499984741210938,0.82000732421875,5.1399993896484375,3.94000244140625,-1.7300033569335938,-5.160003662109361,7.0,5.0,10-04,0.11833254496256629
08-06,1.3299980163574219,1.5099983215332102,-2.4699974060058594,2.049999237060554,0.80999755859375,-2.2600021362304688,-1.1300048828125,1.19000244140625,5.69000244140625,3.7900009155273438,-4.370002746582031,-3.9600067138671733,7.0,5.0,10-05,0.18166542053222892
08-07,0.799999237060554,1.6199989318847656,-0.6099967956542969,1.9799995422363352,0.7799987792968821,-2.25,-0.8099975585937358,-0.06999969482421875,5.400001525878906,4.449996948242202,-6.310005187988281,-6.400001525878906,6.0,6.0,10-06,-0.11833381652831616
08-08,1.7099990844726562,2.6699981689453054,0.40000152587890625,2.1100006103515696,-0.6100006103515625,-2.25,-1.5099945068359233,-0.05999755859375,5.400001525878906,5.040000915527344,-7.880004882812528,-2.4499969482422017,6.0,6.0,10-07,0.2141672770182268
08-09,1.8300018310546875,2.6399993896484375,-1.8300018310546875,2.4799995422363352,0.01000213623045454,-1.9300003051757812,-2.2399978637695312,0.12999725341796875,5.659996032714844,3.1899948120117188,-3.75,-2.440002441406236,7.0,5.0,10-08,0.3124990463256842
08-10,2.0699996948242188,3.229999542236328,0.25,2.6800003051757812,0.03999710083007102,-3.2099990844726562,-1.2399978637695312,-0.1100006103515625,6.629997253417969,4.790000915527358,-3.4800033569335795,-2.0199966430664062,7.0,5.0,10-09,0.8024997711181658
08-11,1.5499992370605469,4.540000915527337,-0.8699989318847656,2.4300003051757812,-0.12000274658203836,-2.240001678466797,-0.5,0.5400009155273438,6.44000244140625,6.269996643066406,-5.260002136230469,-1.7599945068359233,6.0,6.0,10-10,0.918333371480306
08-12,1.3600006103515625,4.180000305175781,-1.8499984741210938,1.7000007629394531,-0.45000076293946023,-2.4300003051757812,-0.09999847412110796,0.05999755859375,5.549995422363281,4.319999694824219,-3.55999755859375,-3.1099929809570312,6.0,6.0,10-11,0.4725004831949852
08-13,1.3699989318847656,4.5900001525878835,-1.1799964904785156,1.2099990844726491,-0.5799980163574219,-3.19000244140625,0.5999984741210795,0.4499969482421875,5.55999755859375,1.0199966430664062,-4.739997863769531,-2.0,7.0,5.0,10-12,0.2591660817464169
08-14,2.529998779296875,4.870002746582024,-0.7399978637695312,1.2199974060058452,-0.5400009155273509,-4.579998016357415,0.3899993896484375,-0.43000030517578125,5.4499969482421875,0.43999481201171875,-2.6099929809570312,-1.6800003051757528,6.0,6.0,10-13,0.3599999745686855
08-15,3.220001220703125,4.8199996948242045,0.29000091552734375,0.8299980163574148,1.7299995422363281,-5.799999237060547,0.48000335693360796,0.160003662109375,5.6100006103515625,1.0800018310546875,-2.0200042724609233,-0.20999908447265625,9.0,3.0,10-14,0.8491671880086269
08-16,3.3100013732910156,5.200000762939446,0.7299995422363281,0.6100006103515625,2.1599998474121094,-7.5,0.07000732421877842,0.5,4.80999755859375,-0.09999847412109375,-3.9199981689453125,-0.6900024414062358,8.0,4.0,10-15,0.4316673278808623
08-17,4.159999847412109,4.430000305175781,0.9399986267089844,0.6100006103515554,2.6799964904785156,-7.290000915527344,-0.4199981689452983,-0.12999725341796875,6.3600006103515625,-1.1100006103515767,-4.370002746582031,-1.8099975585937642,6.0,6.0,10-16,0.33749993642171044
08-18,3.999999999999993,4.520000457763672,2.120002746582024,0.8800010681152344,2.0,-7.040000915527344,-0.160003662109375,-1.2400054931640625,6.689994812011719,-0.7099990844726562,-5.040000915527344,-1.4399948120117188,6.0,6.0,10-17,0.3816661834716785
08-19,3.6699981689453125,5.090000152587891,1.9799995422363281,1.5400009155273438,2.4099998474121023,-7.489997863769531,0.55999755859375,-0.75,7.450004577636719,2.7399978637695312,-4.75,-1.25,8.0,4.0,10-18,0.9333333969116205
08-20,2.4099998474121094,4.6999969482421875,0.8100013732910227,2.4300003051757812,2.3100013732910085,-7.1100006103515625,1.6200027465820312,-0.9000015258789062,7.4900054931640625,2.1599960327148438,-3.4099960327148295,-1.2100067138671733,8.0,4.0,10-19,0.9416666030883812
08-21,1.8600006103515625,5.160003662109375,1.8800010681152415,2.6300010681152273,2.75,-6.279998779296882,2.2299957275390483,-0.7099990844726562,7.1100006103515625,1.7299957275390625,-3.8600006103515625,-1.4500045776367045,8.0,4.0,10-20,1.0874996185302728
08-22,2.029998779296882,4.710002899169915,0.8199996948242259,2.1599998474121094,3.1599998474121094,-4.91999816894532,3.839996337890639,-0.6199951171875,6.4799957275390625,1.839996337890625,-3.9899978637695455,-3.9599990844726562,8.0,4.0,10-21,0.9624999364217123
08-23,1.5699996948242188,5.720001220703125,-0.3200035095214844,2.220001220703125,3.3499984741210866,-3.6800003051757884,4.339996337890639,-0.8599929809570312,6.989997863769531,1.3599929809570312,-2.480003356933608,-2.1500015258789062,7.0,5.0,10-22,1.338332176208495
08-24,1.1199989318847727,6.399997711181641,-0.7600021362304688,1.5200004577636719,3.479999542236328,-2.470001220703132,3.720001220703139,-1.0999984741210938,7.55999755859375,0.5199966430664205,-3.089996337890611,-1.3700027465820455,7.0,5.0,10-23,1.294165929158531
08-25,1.1299972534179759,6.319999694824219,0.5900001525878906,2.0700035095214844,4.1699981689453125,-3.1300010681152415,4.3300018310546875,-2.0999984741210938,6.80999755859375,-0.5699996948242188,-4.329994201660142,-0.3899993896484375,7.0,5.0,10-24,1.2416671117146822
08-26,1.4500007629394673,4.049999237060547,-0.009998321533203125,1.2000007629394531,3.279998779296875,-3.3699989318847656,3.160003662109375,-1.30999755859375,7.1699981689453125,-0.8600006103515625,-3.6199951171874716,-0.8600006103515767,6.0,6.0,10-25,0.856667518615725
08-27,2.079998016357422,3.0400009155273438,-0.529998779296875,0.9099998474121094,4.599998474121094,-3.4099998474121094,3.6299972534179545,-1.779998779296875,7.260002136230469,-4.459999084472656,-4.1299972534179545,-1.740005493164034,6.0,6.0,10-26,0.4558331171671573
08-28,2.1899986267089844,4.259998321533203,-1.7600021362304688,0.4399986267089844,4.539997100830071,-2.23999786376951,3.69000244140625,-1.779998779296875,6.629997253417969,-3.80999755859375,-4.489997863769517,0.2200012207031392,7.0,5.0,10-27,0.6574999491373733
08-29,2.539997100830078,4.149997711181641,-1.1599998474121094,0.5,4.3500022888183665,-2.2300033569335795,3.94000244140625,-2.5100021362304688,6.489997863769531,-4.619995117187514,-4.350006103515611,-0.9300003051757812,6.0,6.0,10-28,0.5141658782959002
08-30,1.8899993896484375,4.179996490478516,-1.3600006103515696,0.9499969482421804,5.4699974060058665,-4.170001983642571,3.589996337890625,-2.4200057983398438,5.519996643066406,-3.409996032714858,-4.3400039672851705,-2.7399978637695312,6.0,6.0,10-29,0.2633314132690406
08-31,1.0499992370605469,3.5199966430664062,-1.529998779296875,0.7699966430664134,5.79999923706054,-3.2900009155273438,4.489997863769531,-1.7100067138671875,5.3300018310546875,-4.349998474121094,-1.4500045776367045,-6.0500030517578125,6.0,6.0,10-30,0.214998245239259
09-01,1.2900009155273366,2.4099998474121094,0.06999969482421875,0.2999992370605469,5.640003204345696,-3.5100021362304616,6.049995422363281,-1.69000244140625,4.0500030517578125,-6.2199935913085795,-1.1399993896484233,-7.160003662109375,7.0,5.0,10-31,0.007500012715659328
09-02,1.4500007629394531,2.020000457763672,1.1399993896484304,0.6500015258788991,5.19000244140625,-3.5100021362304616,5.369995117187486,-6.140007019042969,3.2099990844726562,-5.009994506835909,-0.40000152587890625,-9.920005798339858,7.0,5.0,11-01,-0.4958343505859381
09-03,1.6000022888183523,1.0300025939941335,0.4099998474121094,0.2799987792968821,5.19000244140625,-3.1399993896484304,4.959999084472656,-8.019996643066406,3.8199996948242188,-4.419998168945298,-0.40000152587890625,-6.229995727539077,7.0,5.0,11-02,-0.40999889373779297
09-04,1.0100021362304616,1.2299995422363281,-1.3600006103515696,0.2799987792968821,4.94000244140625,-3.029998779296875,6.290000915527358,-8.839996337890625,4.160003662109375,-4.419998168945298,-2.690002441406236,-4.6300048828125,6.0,6.0,11-03,-0.5883328119913708
09-05,-0.02000045776366477,1.3299980163574219,-0.31999969482422586,0.6699981689453196,5.670001983642592,-2.9599952697753906,7.700004577636733,-8.540000915527344,4.160003662109375,-6.220001220703125,-3.0499954223632955,2.1300048828124716,6.0,6.0,11-04,0.04583485921223899
09-06,0.2500000000000071,1.4799995422363352,-0.31999969482422586,2.3300018310546804,5.380001068115234,-2.979999542236328,6.740005493164077,-8.540000915527344,4.560005187988281,-5.7699966430664205,-10.08999633789061,3.5,7.0,5.0,11-05,-0.2883316675821928
09-07,0.06999969482422586,1.4799995422363352,-1.2699966430664062,-2.0,4.930000305175788,-2.3999977111816335,5.210006713867202,-9.370002746582031,2.9899978637695312,-4.099998474121108,-10.430000305175781,2.990005493164034,6.0,6.0,11-06,-0.9916655222574869
09-08,0.06999969482422586,1.19000244140625,0.01000213623046875,-1.44000244140625,4.629997253417983,-1.0699996948242188,5.210006713867202,-8.339996337890625,3.1200027465820312,-6.68000030517581,-10.439994812011719,2.990005493164034,7.0,5.0,11-07,-0.8958314259847023
09-09,-0.14999771118163352,2.240001678466804,0.6799964904785156,-0.9500007629394531,5.220001220703132,-0.24000167846678977,5.4500045776367045,-6.049995422363281,0.7299957275390625,-4.4599990844726705,-9.610000610351577,1.1600036621093608,6.0,6.0,11-08,-0.4983326594034854
09-10,0.3899993896484375,2.4099998474121094,0.6299972534179759,-2.19000244140625,4.880001068115234,0.09999847412109375,6.539993286132798,-4.180000305175781,0.5999984741210938,-3.4499969482422017,-9.620002746582045,5.720001220703139,8.0,4.0,11-09,0.15249888102213363
09-11,-0.04000091552734375,1.6599998474121094,0.5299987792968821,-2.2700004577636648,4.860004425048828,0.009998321533203125,5.860000610351577,-2.7700042724609375,0.6100006103515625,-3.4099960327148438,-9.139999389648438,5.239997863769531,7.0,5.0,11-10,0.09499994913737216
09-12,0.12999725341797586,1.6100006103515625,-0.700000762939446,-2.3600006103515696,4.25999832153321,2.069995880126939,5.729995727539077,-3.4000015258789062,0.5300064086914062,-4.279998779296875,-8.650001525878892,4.089996337890625,7.0,5.0,11-11,-0.08083438873290778
09-13,0.049999237060546875,2.1599998474121094,-1.3199996948242188,-3.8699989318847656,5.240001678466797,2.7900047302246094,6.319999694824233,-2.4300003051757812,1.2300033569335938,-5.690002441406264,-9.400001525878906,8.529998779296875,7.0,5.0,11-12,0.30083370208740234
09-14,0.05999755859375,1.8800010681152344,-2.049999237060547,-4.439998626708984,4.400001525878892,2.5000038146972656,6.339996337890639,-2.2600021362304688,-0.1100006103515625,-7.680000305175781,-7.900001525878906,8.529998779296875,6.0,6.0,11-13,-0.06083361307779948
09-15,-0.8400001525878906,1.1199989318847585,-2.150001525878899,-4.510002136230462,4.080001831054673,2.4099998474121094,4.649993896484361,-6.470001220703125,0.20000457763671875,-9.530006408691392,-8.260002136230469,9.279998779296875,6.0,6.0,11-14,-0.8350013097127285
09-16,-1.1500015258789062,0.9699974060058736,-0.6300010681152344,-5.25,4.769996643066392,2.579998016357422,4.019996643066406,-5.75,0.149993896484375,-8.920005798339844,-6.860000610351548,9.840003967285156,6.0,6.0,11-15,-0.5191685358683257
09-17,-1.3400001525878835,0.7399978637695312,-0.3400001525878906,-6.360000610351555,5.579998016357408,3.6799964904785156,2.3800048828125,-5.099998474121094,0.1699981689453125,-9.22000122070311,-7.3899993896484375,11.650001525878906,6.0,6.0,11-16,-0.46250025431314984
09-18,-0.7000007629394531,0.7399978637695384,0.06999969482421875,-6.05999755859375,4.869995117187479,3.3499984741210938,4.369995117187514,-5.230003356933594,0.04000091552734375,-9.509994506835938,-8.680000305175753,12.569999694824219,7.0,5.0,11-17,-0.3475008010864234
09-19,-0.24000167846679688,0.0,-0.1399993896484446,-6.369998931884766,4.80999755859375,3.670001983642578,4.470001220703125,-5.040000915527344,-0.07999420166015625,-9.049995422363267,-7.379997253417969,14.16000366210936,4.0,8.0,11-18,-0.09916528065999408
09-20,-0.04000091552734375,0.05999755859375,0.25,-6.880001068115234,4.700000762939453,4.280002593994155,4.340003967285156,-5.150001525878906,-0.6399993896484375,-5.699996948242173,-8.090003967285142,14.16000366210936,6.0,6.0,11-19,0.10750039418538648
09-21,-0.3500022888183594,0.6599998474121165,1.700000762939446,-6.479999542236335,4.37999725341799,3.789997100830078,5.8000030517578125,-4.849998474121094,-0.04000091552734375,-4.040000915527344,-7.760002136230469,14.16000366210936,6.0,6.0,11-20,0.5808331171671549
09-22,-0.5,0.8999977111816406,1.9099998474121094,-5.710002899169922,3.9899978637695384,3.6300010681152344,6.69000244140625,-5.879997253417969,-0.06999969482421875,-5.199996948242173,-7.599998474121094,13.279998779296875,6.0,6.0,11-21,0.45333353678385596
09-23,-0.7600021362304688,1.3300018310546946,1.879997253417983,-5.710002899169922,3.4899978637695384,3.8900032043457102,6.75,-5.1399993896484375,-1.2900009155273438,-5.199996948242173,-7.400001525878892,15.470001220703125,6.0,6.0,11-22,0.6091664632161512
09-24,-0.40000152587890625,0.75,0.44000244140625,-5.680000305175767,3.479999542236328,3.8300018310546875,8.080001831054673,-3.8199996948242188,-1.2900009155273438,-6.06999969482419,-7.810005187988281,15.34999847412108,6.0,6.0,11-23,0.5716663996378593
09-25,-0.040000915527336645,1.4200019836425781,0.44000244140625,-5.020000457763665,3.6300010681152344,3.9099998474121094,8.760002136230455,-3.8199996948242188,-0.220001220703125,-4.450004577636719,-8.420005798339844,15.510002136230469,6.0,6.0,11-24,0.974999745686849
09-26,-0.6699981689453125,1.4200019836425781,0.8200035095214844,-4.840000152587891,3.529998779296889,3.7199974060058807,9.699996948242202,-2.5699996948242188,-0.20999908447265625,-4.2900009155273295,-7.619995117187514,15.25,6.0,6.0,11-25,1.1866671244303426
09-27,-0.6699981689453125,0.8500022888183594,0.21000289916991477,-4.66999816894532,4.549995422363288,3.589996337890611,9.699996948242202,-2.25,0.0,-4.839996337890625,-8.549995422363267,15.25,6.0,6.0,11-26,1.0975004831949875
09-28,-0.8400001525878906,0.020000457763671875,2.1800003051757884,-4.0900001525878835,4.109996795654304,3.589996337890611,10.129997253417983,-3.1200027465820312,-1.2300033569335938,-3.839996337890611,-7.5,15.25,6.0,6.0,11-27,1.2216657002766957
09-29,-0.8700027465820241,-0.1100006103515696,0.4499969482421804,-3.950000762939453,4.109996795654304,3.519996643066392,9.339996337890625,-1.1599960327148438,-0.05999755859375,-4.0799942016601705,-7.5,14.989997863769517,5.0,7.0,11-28,1.2233327229817672
09-30,-0.8500022888183594,0.8000030517578196,1.8400001525878906,-4.430000305175774,4.240001678466804,4.569995880126939,8.319999694824219,-1.3400039672851562,-1.1399993896484375,-5.469993591308608,-5.8899993896484375,14.41000366210936,6.0,6.0,11-29,1.255000432332355
10-01,0.40000152587890625,1.0699996948242116,5.369998931884766,-4.159999847412109,3.2800025939941406,6.009998321533189,7.6300048828125,-0.8899993896484375,-0.9699935913085938,-3.7399978637695312,-5.110000610351548,13.91000366210936,7.0,5.0,11-30,1.9000015258789045
10-02,-0.20999908447266336,0.5,5.829998016357429,-4.289997100830085,4.090003967285149,5.959999084472656,7.029998779296861,-1.6800003051757812,-0.31999969482421875,-4.120002746582031,-2.7900009155273295,14.760002136230469,6.0,6.0,12-01,2.0633335113525377
10-03,-0.5900001525878835,0.279998779296875,8.0,-4.449996948242195,5.219997406005859,5.1399993896484375,6.0699996948242045,-4.180000305175781,-0.8700027465820312,-3.970001220703125,-2.1599960327148295,13.059997558593764,6.0,6.0,12-02,1.795832951863608
10-04,-0.3999977111816406,1.4500007629394531,6.1399993896484375,-4.540000915527351,4.789997100830085,4.86999893188478,6.559997558593736,-2.9199981689453125,-0.5800018310546875,-3.2399978637695312,-5.209999084472642,13.059997558593764,6.0,6.0,12-03,1.6649996439615908
10-05,-0.23999786376952414,0.40000152587891336,5.130001068115234,-4.900001525878906,4.710002899169908,5.11999893188478,5.519996643066392,-2.9300003051757812,0.2700042724609375,-3.119995117187514,-4.549995422363281,13.059997558593764,7.0,5.0,12-04,1.5391677220662434
10-06,-0.3600006103515554,0.43000030517578125,4.100002288818359,-5.459999084472656,3.950000762939453,6.200000762939453,6.25,-2.55999755859375,-0.9800033569335938,-3.619995117187514,-3.849998474121108,13.050003051757798,6.0,6.0,12-05,1.4291677474975557
10-07,-0.5999984741210866,1.3499984741210938,5.0,-5.329998016357422,3.5500030517578196,7.479999542236328,5.25,-1.2900009155273438,-0.40000152587890625,-3.2099990844726562,-4.779998779296889,12.629997253417969,6.0,6.0,12-06,1.6375001271565754
10-08,-1.279998779296875,1.7800025939941548,4.009998321533203,-5.159999847412109,3.710002899169929,6.510002136230469,3.8300018310546875,-2.5699996948242188,0.5400009155273438,-4.729995727539077,-3.0,11.090003967285156,7.0,5.0,12-07,1.2275015513102219
10-09,-1.450000762939446,0.779998779296875,3.4699974060058594,-4.430000305175781,4.040000915527351,8.009998321533196,4.089996337890625,-2.149993896484375,-0.29000091552734375,-2.779998779296889,-4.700004577636719,10.800003051757798,6.0,6.0,12-08,1.2824996312459291
10-10,-1.3100013732910156,0.5399971008300852,3.4199981689453125,-3.9399986267089773,3.1500015258789062,8.760002136230469,3.6500015258789062,-2.4699935913085938,-0.3000030517578125,0.5200042724609233,-4.3600006103515625,9.569999694824219,7.0,5.0,12-09,1.4358339309692383
10-11,-1.2700004577636719,-0.04000091552734375,2.979999542236328,-3.5900001525878906,3.240001678466797,9.699996948242188,3.029998779296875,-1.589996337890625,-0.19000244140625,0.05999755859373579,-4.25,9.569999694824219,6.0,6.0,12-10,1.4708328247070301
10-12,-1.2400016784667969,0.010002136230475855,1.9500007629394531,-3.529998779296875,2.6699981689452983,10.080001831054688,2.5100021362304688,-2.1800003051757812,-0.1100006103515625,-1.8800048828125,-3.220001220703139,9.569999694824219,6.0,6.0,12-11,1.219166437784829
10-13,-1.3300018310546875,-0.3699989318847656,1.6199989318847656,-3.670001983642571,2.3600006103515767,9.209999084472656,2.9199981689452983,-1.3899993896484375,-0.9399948120117188,-3.0400009155273438,-3.909996032714858,10.050003051757798,5.0,7.0,12-12,0.9591671625773094
10-14,-2.1800003051757812,-0.24000167846679688,2.0900001525878906,-3.7099990844726562,1.2900009155273438,9.0,3.410003662109375,-1.279998779296875,-1.660003662109375,-3.4800033569335938,-3.279998779296875,11.169998168945327,5.0,7.0,12-13,0.9274997711181653
10-15,-1.3899993896484375,0.3000030517578196,2.4399986267089773,-3.8800010681152344,1.9699974060058594,8.75,3.7399978637695312,-1.589996337890625,-2.5100021362304688,-2.220001220703125,-2.6100006103515625,11.270004272460938,6.0,6.0,12-14,1.1891667048136394
10-16,-0.9099998474121094,0.05999755859375,2.1599998474121094,-4.540000915527344,1.559997558593757,8.029998779296882,3.0200042724609517,-1.8299942016601562,-2.25,-5.6699981689453125,-2.9000015258789062,11.260002136230469,6.0,6.0,12-15,0.6658337910970076
10-17,-0.9899978637695384,-0.07000350952148438,1.4900016784667969,-5.430000305175781,0.6500015258788991,5.939998626708984,2.5600051879882812,-3.149993896484375,-2.2900009155273438,-5.089996337890625,-2.370002746582017,12.459999084472656,5.0,7.0,12-16,0.3091675440470378
10-18,-0.8699989318847727,-0.17000198364257812,0.4200019836425781,-5.540000915527344,0.5100021362304759,3.8199996948242188,3.0699996948242188,-3.339996337890625,-1.9099960327148438,-3.9499969482421875,-3.80999755859375,12.459999084472656,5.0,7.0,12-17,0.05750115712483724
10-19,-0.7799987792968821,0.2799987792968821,1.4800033569335938,-5.420001983642578,0.8200035095214844,3.779998779296875,3.4599990844726562,-3.4300003051757812,-2.2699966430664062,-3.9800033569335938,-3.5800018310546875,12.459999084472656,6.0,6.0,12-18,0.2349999745686849
10-20,-0.31999969482421875,-0.7299995422363281,1.9799995422363281,-5.20000076293946,0.9200019836425639,5.220001220703125,2.9599990844726562,-3.0100021362304688,-2.2199935913085938,-5.3300018310546875,-4.5500030517578125,10.650001525878906,5.0,7.0,12-19,0.030833562215167493
10-21,0.13000106811522727,2.4099998474121094,2.6899986267089844,-5.020000457763665,1.5300025939941406,4.010002136230469,3.5799942016601562,-4.230003356933594,-2.4599990844726562,-6.029998779296889,-4.819999694824219,9.870002746582045,7.0,5.0,12-20,0.13833332061767578
10-22,-0.9599990844726562,2.0600013732910156,0.4299964904785156,-4.510002136230469,0.8400039672851562,4.670001983642578,0.970001220703125,-3.1999969482421875,-2.4499969482421875,-8.3800048828125,-3.5800018310546875,9.300003051757798,6.0,6.0,12-21,-0.4008328119913749
10-23,-1.029998779296875,2.0999984741210938,2.6099967956542898,-3.6399993896484375,1.7300033569335938,4.83000183105468,-0.29000091552734375,-3.0199966430664062,-2.6999969482421875,-8.090003967285156,-4.290000915527358,9.260002136230469,5.0,7.0,12-22,-0.21083291371663648
10-24,-0.7299995422363352,2.1800003051757812,2.6399993896484446,-3.3499984741210938,1.2199974060058665,5.209999084472656,0.3600006103515625,-3.6399993896484375,-2.7900009155273438,-4.4900054931640625,-4.079994201660142,10.150001525878906,6.0,6.0,12-23,0.2233333587646502
10-25,-0.6199989318847656,2.1800003051757812,3.8700027465820384,-3.1100006103515696,1.0800018310546733,6.719997406005838,1.0099945068359375,-3.6399993896484375,-2.1599960327148438,-6.279998779296861,-2.9199981689452983,10.150001525878906,6.0,6.0,12-24,0.5233338673909499
10-26,-0.6199989318847656,2.2900009155273438,3.270000457763679,-3.460002899169922,1.19000244140625,6.719997406005838,1.0099945068359375,-2.9099960327148438,-2.6100006103515625,-5.3499984741210795,-3.2399978637695455,10.150001525878906,6.0,6.0,12-25,0.5366668701171863
10-27,0.029998779296875,2.2600021362304688,2.9500007629394602,-3.520000457763679,1.6800003051757955,7.070003509521477,1.3600006103515625,-2.9199981689453125,-2.1699981689453125,-6.610000610351577,-2.8299942016601562,11.959999084472656,7.0,5.0,12-26,0.7716677983601882
10-28,0.8699989318847656,2.729999542236328,3.05999755859375,-3.2899971008300852,2.220001220703125,6.19000244140625,0.45999908447265625,0.0,-0.55999755859375,-10.460006713867188,-3.469993591308608,15.270004272460938,7.0,5.0,12-27,1.0850006739298486
10-29,0.4299964904785156,2.9899978637695455,4.610000610351555,-3.7399978637695384,2.3799972534179688,6.410003662109368,1.1200027465820312,2.1699981689453125,-1.0699996948242188,-8.390007019042969,-3.779998779296889,14.669998168945327,8.0,4.0,12-28,1.4833326339721673
10-30,1.059997558593757,3.259998321533203,4.54999923706054,-3.7399978637695384,2.8299980163574148,5.849998474121094,-0.2599945068359375,2.7299957275390625,-0.839996337890625,-9.60000610351564,-4.519996643066406,13.520004272460938,7.0,5.0,12-29,1.2366666793823218
10-31,1.4599990844726562,3.359996795654297,3.9199981689453054,-3.7399978637695384,2.6299972534179545,5.619998931884766,-2.0100021362304688,2.279998779296875,-1.4499969482421875,-10.19000244140625,-3.3300018310546875,9.419998168945327,7.0,5.0,12-30,0.6641654968261707
11-01,1.4300003051757812,3.1899986267089844,5.689998626708984,-5.360000610351555,2.8300018310546733,6.649997711181641,-1.6800003051757812,3.0999984741210938,-1.7900009155273438,-10.809997558593736,4.2299957275390625,9.419998168945327,8.0,4.0,12-31,1.4083325068155943
11-02,1.4300003051757812,3.0900001525878906,4.649997711181641,-1.720001220703125,2.6399993896484233,6.649997711181641,-1.6800003051757812,2.8000030517578125,-0.9799957275390625,-11.430000305175753,6.349998474121094,9.419998168945327,8.0,4.0,01-01,1.7683331171671572
11-03,1.1599998474121094,2.9399986267089773,3.029998779296875,-2.329998016357422,3.4499969482422017,6.36999893188478,-0.720001220703125,2.8499984741210938,-0.19000244140625,-9.180000305175753,7.0900039672851705,8.050003051757798,8.0,4.0,01-02,1.8766663869222047
11-04,1.3400001525878906,1.6199989318847585,3.7300033569335938,-1.9499969482421804,3.7299957275390625,5.789997100830085,0.80999755859375,2.279998779296875,0.43000030517578125,-7.809997558593736,6.950004577636733,8.559997558593764,10.0,2.0,01-03,2.123333295186365
11-05,0.6599998474121094,1.1500015258789062,3.6599998474121094,-0.9099998474121094,4.029998779296868,4.4599990844726705,0.17000579833984375,-0.8800048828125,1.160003662109375,-11.699996948242173,6.9599990844726705,4.6999969482421875,9.0,3.0,01-04,1.121666908264163
11-06,0.3000030517578125,1.779998779296882,3.770000457763679,-1.4000015258789062,3.4399948120117188,3.039997100830064,-0.6100006103515625,-1.3100051879882812,1.3400039672851562,-13.919998168945312,6.130004882812528,4.010002136230469,8.0,4.0,01-05,0.5474999745686873
11-07,0.21000289916991477,1.4799995422363281,3.8800010681152344,-0.15999984741210938,3.7199974060058594,1.8800048828125,-0.3699951171875,-0.09999847412109375,1.470001220703125,-14.930000305175781,4.279998779296875,4.44000244140625,8.0,4.0,01-06,0.48333454132080017
11-08,0.17000198364257102,1.5600013732910085,3.979999542236328,0.6800003051757812,2.599998474121108,-0.9500045776367045,-0.779998779296875,-1.5099945068359375,1.4599990844726562,-16.04000091552733,5.040000915527344,4.44000244140625,8.0,4.0,01-07,0.05416711171468336
11-09,0.7200012207031179,1.6100006103515554,5.209999084472656,1.5999984741211009,1.7799987792968892,-1.6400032043457031,-1.2699966430664062,-0.8799972534179688,1.25,-13.220001220703125,5.470001220703111,4.44000244140625,8.0,4.0,01-08,0.4225002924601231
11-10,0.7999992370605469,1.0600013732910085,4.450000762939453,1.3100013732910156,2.089996337890639,-1.2700042724609233,-1.8600006103515625,2.0400009155273438,2.0,-9.819999694824205,4.3300018310546875,0.0,8.0,4.0,01-09,0.427499771118167
11-11,0.7900009155273438,0.8500022888183594,3.25,3.8300018310546946,3.4899978637695455,-0.9800033569335795,-1.8799972534179688,1.6500015258789062,1.6100006103515625,-8.25,4.6399993896484375,0.0,8.0,4.0,01-10,0.7500003178914417
11-12,1.1500015258789062,1.3700027465820241,3.6100006103515625,3.2900009155273438,3.809997558593764,-0.8899993896484233,-1.0400009155273438,0.1699981689453125,0.8000030517578125,-8.289993286132812,5.0,0.0,8.0,4.0,01-11,0.7483342488606789
11-13,0.7799987792968821,1.4099998474120952,3.770000457763672,4.029998779296882,3.1200027465820455,1.160003662109375,-1.6399993896484375,-0.69000244140625,0.0800018310546875,-8.89999389648436,3.5999984741210795,0.0,8.0,3.0,01-12,0.5600007375081392
11-14,0.10000228881835938,1.7900009155273366,3.6199989318847656,5.1399993896484375,2.8300018310546875,0.6399993896484233,-2.279998779296875,-0.470001220703125,0.05999755859375,-8.599998474121094,4.19000244140625,0.0,8.0,3.0,01-13,0.5850003560384097
11-15,0.12000274658203125,2.170001983642571,3.2099990844726562,5.08000183105468,3.1100006103515625,-0.11000061035157671,-2.260002136230483,-0.339996337890625,0.18999481201171875,-10.209999084472656,5.8300018310546875,0.0,7.0,4.0,01-14,0.5658337275187139
11-16,0.18000030517578125,2.9099998474121094,3.4199981689453196,4.8500022888183665,2.3499984741210795,-0.31000518798829546,-3.1899948120117045,-0.529998779296875,-0.44000244140625,-11.549995422363281,5.860000610351577,0.0,6.0,5.0,01-15,0.29583358764648554
11-17,-0.020000457763671875,2.8500022888183594,4.090000152587891,4.290000915527351,3.470001220703111,-0.8800048828125,-3.059997558593736,-0.5400009155273438,0.5999984741210938,-11.220001220703125,5.7900009155273295,0.0,6.0,5.0,01-16,0.44749991099039654
11-18,0.29000091552734375,2.729999542236321,3.44000244140625,4.61000061035157,3.220001220703111,-0.3899993896484233,-4.519996643066392,-0.31999969482421875,1.089996337890625,-10.370002746582017,6.370002746582031,0.0,7.0,4.0,01-17,0.5125004450480167
11-19,0.4799995422363281,2.5999984741210938,4.029998779296875,4.6300010681152415,3.6100006103515625,-0.23000335693357954,-4.769996643066392,-0.7399978637695312,0.7699966430664062,-10.470001220703125,6.209999084472656,0.0,7.0,4.0,01-18,0.5099995930989613
11-20,0.4399986267089915,2.4500007629394602,4.229999542236328,4.599998474121087,4.1100006103515625,-0.15000152587889204,-5.540000915527344,-0.9000015258789062,1.3699951171875,-9.599998474121108,6.0100021362304545,0.0,7.0,4.0,01-19,0.5849994023640944
11-21,-0.4399986267089844,3.049999237060547,4.6399993896484375,4.619998931884766,3.900001525878892,-1.3199996948242259,-5.779998779296875,-0.7599945068359375,0.29999542236328125,-8.790000915527344,5.409996032714858,0.0,6.0,5.0,01-20,0.40249983469645123
11-22,0.20999908447265625,2.6499977111816406,4.259998321533203,3.950000762939446,3.8000030517578125,-0.8699951171875,-5.7299957275390625,-2.0099945068359375,0.9899978637695312,-9.19000244140625,8.09999847412108,0.0,7.0,4.0,01-21,0.5133339564005516
11-23,-0.26000213623046875,3.2199974060058594,5.170001983642578,4.420001983642571,3.0,-1.1299972534179545,-6.019996643066406,-2.5699996948242188,0.9899978637695312,-7.970001220703125,6.370002746582017,0.0,6.0,5.0,01-22,0.4350004196166986
11-24,-0.09000015258789062,2.1999969482421804,5.86000061035157,4.540000915527344,2.9300003051757812,-1.0,-6.4499969482421875,-3.339996337890625,2.3600006103515625,-6.0,4.680000305175753,0.0,6.0,5.0,01-23,0.47416718800862395
11-25,-0.40000152587890625,1.8900032043457031,5.040000915527344,4.229999542236328,2.75,-0.9300003051757812,-7.040000915527344,-4.430000305175781,0.720001220703125,-7.25,4.720001220703111,0.0,6.0,5.0,01-24,-0.058333079020183476
11-26,0.15999984741210938,1.6599998474121094,3.420001983642578,4.020000457763679,2.6199951171875,-0.950004577636733,-8.310005187988281,-4.0200042724609375,0.8600006103515625,-6.310005187988281,3.1100006103515483,0.0,7.0,4.0,01-25,-0.3116683959960955
11-27,0.15000152587890625,2.75,3.279998779296868,4.5,2.0400009155273438,-0.5400009155273438,-6.760002136230469,-2.9300003051757812,1.4599990844726562,-4.920005798339844,2.839996337890625,0.0,7.0,4.0,01-26,0.15583229064941348
11-28,-0.059997558593757105,2.6599998474121094,3.5999984741210938,4.229999542236335,1.3800048828125,-1.4900016784667969,-7.620002746582031,-3.0400009155273438,1.2899932861328125,-6.6500015258789205,5.25,0.0,6.0,5.0,01-27,-0.037500699361166547
11-29,-0.11999893188477273,2.950000762939453,3.1399993896484304,4.329998016357422,-0.43999481201170454,-1.329998016357436,-3.9900054931640625,-2.25,0.6399993896484375,-6.720001220703139,5.0,0.0,5.0,6.0,01-28,0.10083325703938566
11-30,0.09000015258788352,3.170001983642578,0.9699974060058594,4.36000061035157,-1.5699996948242116,-2.2099990844726705,-4.230003356933594,0.25,1.0199966430664062,-6.660003662109361,4.479995727539034,0.0,7.0,4.0,01-29,-0.027501106262208808
12-01,-0.10000228881835938,2.0,1.5699996948242116,4.090000152587891,-1.3000030517577983,-3.0099983215332173,-4.720001220703125,-0.7600021362304688,1.5400009155273438,-6.580001831054702,3.959999084472642,0.0,5.0,6.0,01-30,-0.27583408355713185
12-02,-0.26000213623047586,1.1800003051757741,1.329998016357429,4.969997406005859,-1.6100006103515483,-3.2599983215332173,-3.6800003051757812,-0.9099960327148438,-0.32999420166015625,-6.5199966430664205,3.930000305175753,0.0,4.0,7.0,01-31,-0.429999351501469
12-03,-0.14000320434570312,-0.4099998474121094,0.8800010681152273,4.909999847412109,-0.8499984741210938,-4.340000152587891,-2.7900009155273438,-0.6399993896484375,-0.3699951171875,-6.5,3.2300033569335795,0.0,3.0,8.0,02-01,-0.5849994023640969
12-04,-1.049999237060554,0.5400009155273509,1.1699981689453125,4.779998779296875,-0.45000076293946023,-3.5699996948242188,-1.4499969482421875,-0.40999603271484375,-0.6399993896484375,-4.9800033569335795,4.160003662109361,0.0,4.0,7.0,02-02,-0.15833282470703183
12-05,-1.0799980163574219,1.1699981689453054,2.2900009155273438,4.6100006103515625,0.12999725341796875,-3.1500015258789062,-1.910003662109375,0.5600051879882812,-1.5800018310546875,-3.6699981689452983,4.590003967285142,0.0,6.0,5.0,02-03,0.16333357493082623
12-06,-0.55999755859375,1.0799980163574219,2.8300018310546875,3.849998474121101,-0.8900032043457031,-2.339996337890625,-2.9000015258789062,0.1399993896484375,-0.75,-2.509994506835909,3.4300003051757955,0.0,5.0,6.0,02-04,0.1150004069010458
12-07,-0.6399993896484375,1.3199996948242116,2.8800010681152344,4.529998779296875,-3.1699981689452983,-2.4099960327148366,-1.0699996948242188,0.45999908447265625,-1.5400009155273438,-0.21999359130860796,4.6100006103515625,0.0,5.0,6.0,02-05,0.3958342870076497
12-08,-0.6800003051757812,1.8999977111816406,2.9399986267089844,4.430000305175774,-2.4599952697753835,-2.6599960327148366,-0.4499969482421875,-0.8699951171875,-2.0999984741210938,0.7399978637695312,4.319999694824247,0.0,5.0,6.0,02-06,0.4258343378702829
12-09,-0.7099990844726562,1.6500015258788991,2.770000457763672,4.770000457763665,-2.289997100830064,-3.0400009155273366,0.06999969482421875,-0.970001220703125,-3.9000015258789062,1.9599990844726562,5.240005493164091,0.0,6.0,5.0,02-07,0.4625005722045928
12-10,-1.210002899169929,1.539997100830071,3.5600013732910227,5.130001068115227,-1.9799995422363423,-2.1699981689453054,-1.19000244140625,-1.2600021362304688,-3.4899978637695312,2.4799957275390625,5.93000030517581,0.0,5.0,6.0,02-08,0.6116660435994472
12-11,-1.5500030517578125,2.5499992370605398,3.5,5.1699981689453125,-0.9099998474121094,-1.8699989318847585,-1.7399978637695312,-1.8799972534179688,-3.4300003051757812,2.9199981689453125,5.300003051757827,0.0,5.0,6.0,02-09,0.6716667811075858
12-12,-1.3899993896484375,2.9300003051757812,3.25,5.340000152587891,-0.9000015258788991,-0.30999755859375,0.4799957275390625,-1.05999755859375,-2.5800018310546875,1.6599960327148438,3.3499984741210938,0.0,6.0,5.0,02-10,0.8974994023640956
12-13,-1.1200027465820312,2.6000022888183594,3.529998779296868,5.66999816894532,-0.20999908447265625,-0.20999908447266336,1.8600006103515625,-0.8199996948242188,-2.8400039672851562,1.629997253417983,2.7299957275390767,0.0,6.0,5.0,02-11,1.0683323542277037
12-14,-1.4599990844726491,2.7300033569335938,4.19999694824218,5.590000152587891,-0.9600028991699219,-0.13000106811523438,1.6399993896484375,0.5,-4.9900054931640625,1.0500030517578125,1.4800033569335795,0.0,7.0,4.0,02-12,0.8041664759318022
12-15,-1.5799980163574148,2.8300018310546875,3.829998016357422,5.049999237060554,-0.5400009155273438,-0.18000030517578125,1.1300048828125,0.6100006103515625,-4.819999694824219,3.059997558593764,1.7300033569335795,0.0,7.0,4.0,02-13,0.9266672134399426
12-16,-1.6699981689453054,2.220001220703118,1.8600006103515625,5.329998016357429,-0.430004119873054,-0.1399993896484375,0.7400054931640625,1.8600006103515625,-3.970001220703125,3.6800003051757812,0.3899993896484375,0.0,7.0,4.0,02-14,0.8225002288818359
12-17,-1.1299972534179616,2.3699989318847656,2.4099998474121094,5.789997100830085,-0.5300025939941335,-1.5800018310546875,1.9300003051757812,0.6299972534179688,3.1500015258789062,4.160003662109361,1.3600006103515625,0.0,8.0,3.0,02-15,1.5466664632161464
12-18,1.970001220703125,1.8900032043457031,2.3200035095214844,5.60999679565429,-1.1400032043457102,-2.9300003051757812,3.2099990844726562,0.029998779296875,4.090003967285156,4.8600006103515625,1.6299972534179688,0.0,9.0,2.0,02-16,1.7950000762939442
12-19,1.8500022888183665,1.8500022888183594,2.4000015258789062,5.099998474121094,-0.8400001525879119,-3.05999755859375,3.6399993896484375,-0.600006103515625,4.0800018310546875,7.210006713867173,1.4499969482421733,0.0,8.0,3.0,02-17,1.9233338038126593
12-20,1.5800018310546946,1.8400001525878835,0.2200012207031321,4.979999542236335,-0.94000244140625,-2.529998779296861,2.2899932861328125,-0.7800064086914062,4.3300018310546875,7.790000915527315,1.2399978637695455,0.0,8.0,3.0,02-18,1.6683324178059908
12-21,1.270000457763679,1.759998321533196,0.18999862670897727,5.310001373291016,-1.080001831054716,-1.8399963378906108,1.7099990844726562,-0.160003662109375,4.900001525878906,8.219993591308608,1.299995422363267,0.0,8.0,3.0,02-19,1.798332214355467
12-22,1.1599998474121094,1.229999542236321,0.2200012207031321,5.119998931884766,-0.8699951171875,-1.2599945068359233,1.0600051879882812,0.18000030517578125,5.269996643066406,12.240005493164048,-0.1100006103515625,0.0,8.0,3.0,02-20,2.0200014114379883
12-23,1.2900009155273438,1.3199996948242045,0.1699981689453125,5.759998321533203,-1.330001831054716,-1.6100006103515625,-0.089996337890625,0.589996337890625,6.44000244140625,11.85000610351561,-0.3600006103515625,0.0,7.0,4.0,02-21,2.002500216166174
12-24,1.5300025939941335,1.4399986267089844,0.2999992370605469,4.279998779296875,-1.8700027465820455,-1.7299957275390625,0.0,-0.26999664306640625,5.669998168945327,12.560005187988295,0.2799987792968892,0.0,7.0,4.0,02-22,1.849167188008628
12-26,1.8300018310546946,0.4200019836425781,-0.06999969482421875,4.729999542236328,-1.9400024414062358,-1.69000244140625,-0.9099960327148438,0.09000396728515625,4.7700042724609375,10.490005493164077,0.1100006103515625,0.0,7.0,4.0,02-24,1.4858347574869821
12-27,1.6700019836425781,-0.2700004577636719,-0.06999969482421875,4.459999084472656,-2.0800018310546733,-2.1100006103515767,-0.839996337890625,0.09000396728515625,4.540000915527344,10.75,-3.0399932861328125,0.0,5.0,6.0,02-25,1.0916678110758464
12-28,2.0600013732910156,-0.3699989318847656,0.5600013732910156,5.479999542236328,-3.159996032714858,-2.0799942016601562,0.20000457763671875,0.5400009155273438,3.8600006103515625,9.350006103515597,-6.550003051757827,0.0,7.0,4.0,02-26,0.8241685231526645
12-29,2.0900001525878906,-0.20000076293945312,0.6699981689453125,4.379997253417962,-2.9300003051757812,-2.529998779296861,-0.12999725341796875,0.43000030517578125,4.709999084472642,7.4899978637695455,-8.819999694824247,0.0,6.0,5.0,02-27,0.42999966939290185
12-30,2.1300010681152344,-0.3899993896484375,1.0600013732910156,4.739997863769524,-2.589996337890639,-2.25,0.29000091552734375,0.910003662109375,3.7699966430664062,7.2399978637695455,-11.080001831054702,0.0,7.0,4.0,02-28,0.31916681925455553
12-31,2.6199989318847656,0.470001220703125,0.950000762939446,5.680000305175767,-2.8699951171875,-0.9899978637695028,1.6899948120117188,1.4600067138671875,2.4899978637695312,7.340003967285156,-10.940002441406264,0.0,8.0,3.0,03-01,0.6583340962727858
