,2009,2010,2011,2012,2013,2014,2015,2016,2017,2018,2019,2020,ups,downs,end_day_sum,avg
01-02,-9.07297325134277,-2.5235557556152344,7.159523010253906,5.75873947143554,1.5720558166503835,10.490188598632812,-2.1807937622070312,-4.472011566162131,-3.1505813598632812,-7.367591857910156,4.451866149902344,-23.22802352905274,5.0,7.0,03-02,-1.88026316960653
01-03,-11.196344375610352,-2.442119598388672,7.5054931640625,5.75873947143554,0.7837295532226634,11.606918334960938,2.3798294067382812,-4.208606719970717,-3.1505813598632812,-8.920677185058608,4.066078186035156,-20.879169464111328,6.0,6.0,03-03,-1.5580592155456567
01-04,-10.096366882324219,-1.9941787719726491,7.6009368896484375,5.694683074951172,-1.21221923828125,11.796699523925781,3.6018447875976562,-2.3460273742675852,-3.2262954711914205,-9.168739318847656,2.6041183471679545,-24.615951538085938,5.0,7.0,03-04,-1.780124664306643
01-05,-8.722511291503906,-1.4384994506835866,7.514568328857415,6.836063385009766,-1.8577919006347656,12.848762512207031,3.7137985229492188,-2.7682151794433665,-5.2536468505859375,-10.07354736328125,2.4131546020507812,-25.034549713134766,5.0,7.0,03-05,-1.8185345331827805
01-06,-8.92414665222168,-1.5875968933105398,8.384387969970703,5.32868957519532,-0.5156974792480469,12.352851867675781,6.013336181640625,-0.13191986083983664,-6.133522033691406,-10.244544982910156,1.1541442871093608,-23.428295135498047,5.0,7.0,03-06,-1.4776927630106602
01-07,-7.826387405395511,-1.4479713439941406,6.951519012451172,5.12687683105468,-0.10062789916992188,11.042686462402344,6.506752014160156,3.7296485900878906,-2.6395416259765483,-11.007904052734375,-2.2672805786132812,-24.253009796142578,5.0,7.0,03-07,-1.3487699826558428
01-08,-7.9153232574462855,-0.6875038146972656,6.27374267578125,4.906948089599609,0.751415252685554,11.075096130371094,2.6880416870117188,5.705253601074219,-3.1513519287109375,-11.141479492187514,-3.2357864379882812,-22.361003875732422,6.0,6.0,03-08,-1.4243292808532717
01-09,-6.436489105224609,-0.2808990478515625,5.1903533935546875,5.099395751953125,0.5257415771484304,11.237388610839844,1.1966171264648438,11.260112762451172,-7.605857849121094,-10.188674926757827,-6.75506591796875,-25.395347595214844,6.0,6.0,03-09,-1.8460604349772154
01-10,-5.846534729003899,0.026763916015632105,5.008262634277337,3.5667037963867188,0.7526473999023366,10.797027587890625,3.15008544921875,6.64129257202147,-7.9654693603515625,-10.474525451660156,-7.2549591064453125,-29.87005615234375,7.0,5.0,03-10,-2.6223967870076508
01-11,-4.728601455688473,0.3841857910156321,4.19929122924804,4.641883850097649,1.4856681823730469,11.9447021484375,1.7228546142578125,8.240467071533203,-9.403762817382827,-13.723983764648438,-9.816230773925795,-46.37308883666992,7.0,5.0,03-11,-4.285551230112714
01-12,-4.239217758178704,1.6129913330078196,3.3275680541992045,4.825160980224609,1.9231796264648366,10.345733642578125,2.0586776733398438,8.944099426269531,-9.164924621582031,-12.14876556396483,-11.561889648437514,-42.47914123535156,7.0,5.0,03-12,-3.879710674285889
01-13,-5.81192588806152,0.4886322021484446,2.26239013671875,5.471282958984375,2.5780754089355398,10.127883911132812,1.5466537475585938,7.610187530517571,-10.046356201171875,-12.156440734863281,-10.86991119384767,-45.14649581909179,7.0,5.0,03-13,-4.495501995086671
01-14,-4.21584320068359,-0.09954071044921875,2.3078956604003906,4.586887359619141,2.4858436584472585,7.7482757568359375,-1.1100616455078125,6.594238281250007,-9.980003356933594,-12.728950500488281,-9.341804504394545,-45.93240737915038,5.0,7.0,03-14,-4.973789215087891
01-15,-2.3391418457031286,0.3212394714355469,1.6615104675292969,6.016574859619141,2.20452880859375,6.8454437255859375,-0.7649307250976562,11.485858917236328,-10.321197509765625,-12.881622314453125,-9.418495178222656,-46.33020401000976,6.0,6.0,03-15,-4.460036277770996
01-16,-2.1281299591064453,-0.20811843872070312,1.1653404235839844,5.02220535278321,2.080005645751953,5.9370574951171875,-4.5894927978515625,12.981552124023423,-7.980216979980469,-12.881622314453125,-9.706832885742188,-53.07452201843262,5.0,7.0,03-16,-5.281897862752279
01-17,0.3546867370605469,-0.3936347961425781,0.7328872680664062,5.02220535278321,2.674957275390625,7.883613586425781,-1.33392333984375,11.880935668945312,-7.980216979980469,-13.015190124511719,-8.995643615722656,-49.170845031738274,6.0,6.0,03-17,-4.36168066660563
01-18,1.0640678405761719,-0.69677734375,0.7328872680664062,4.266117095947273,1.6741447448730469,8.342483520507812,-2.3600234985351562,13.226142883300781,-7.9044036865234375,-14.875869750976562,-11.72509765625,-51.53641891479492,6.0,6.0,03-18,-4.982728958129882
01-19,0.5746936798095668,-0.69677734375,1.3883781433105469,4.834323883056641,1.1207122802734446,9.236961364746094,1.240692138671875,13.226142883300781,-8.87109375,-13.282386779785156,-4.747703552246108,-51.74085235595703,7.0,5.0,03-19,-3.976409117380779
01-20,0.5746936798095668,-0.23526382446289062,3.3321342468261648,6.24110031127929,0.3551177978515625,8.481529235839844,1.240692138671875,13.922256469726562,-8.567825317382827,-17.509429931640625,-3.825073242187514,-52.84089279174805,7.0,5.0,03-20,-4.06924676895142
01-21,-1.4860954284668004,-1.4976348876953125,2.82684326171875,5.40251159667968,-0.11991500854492898,8.481529235839844,0.1119384765625,11.993831634521484,-6.861831665039077,-14.780441284179688,-0.932243347167983,-52.84089279174805,5.0,7.0,03-21,-4.1418666839599645
01-22,-0.2155075073242152,-1.0632667541503764,4.401859283447266,4.174468994140625,-0.11991500854492898,7.327484130859375,-0.774261474609375,9.040058135986328,-8.463569641113281,-11.488487243652344,-0.932243347167983,-51.916072845458984,4.0,8.0,03-22,-4.169121106465657
01-23,-2.0742454528808594,-1.57000732421875,5.2940826416015625,3.7620697021484304,0.6871719360351491,9.807037353515625,-0.1026153564453125,13.517745971679688,-8.349838256835938,-12.461753845214844,-0.6535263061523438,-47.321220397949226,5.0,7.0,03-23,-3.288758277893068
01-24,-0.862014770507809,-0.3755226135253906,5.617275238037109,4.243221282958977,-0.5026893615722656,12.101234436035156,-3.1063461303710938,13.461296081542969,-8.558357238769545,-13.062927246093736,-0.3555908203125,-43.767986297607415,4.0,8.0,03-24,-2.9307006200154624
01-25,-1.7599601745605433,-1.0858688354492188,6.463954925537109,3.2076263427734304,-0.13372039794922586,12.745437622070312,-3.255584716796875,13.461296081542969,-8.766860961914062,-12.557182312011719,-5.209014892578125,-40.983821868896484,4.0,8.0,03-25,-3.1561415990193695
01-26,-2.0473136901855433,-0.2578849792480469,5.366920471191406,2.5660972595214844,-0.12914276123046875,13.658462524414062,-2.2108078002929688,9.284626007080078,-9.07962036132814,-11.354904174804673,-5.1129150390625,-35.863277435302734,4.0,8.0,03-26,-2.9316466649373374
01-27,-1.4456996917724574,0.08144760131835227,5.599063873291016,3.487140655517578,2.1676101684570312,13.913368225097656,-2.8357925415039062,9.246997833251953,-7.6200714111328125,-8.597274780273438,-3.20037841796875,-35.97036361694336,6.0,6.0,03-27,-2.097829341888428
01-28,-2.927297592163079,-0.9456291198730469,6.832695007324219,3.1388816833496094,2.1676101684570312,11.540397644042969,1.735076904296875,5.371345520019531,-7.411552429199219,-9.780479431152344,-3.3733673095703125,-36.3694953918457,6.0,6.0,03-28,-2.501817862192789
01-29,-2.95422172546386,-0.375530242919929,5.485271453857422,2.7356414794921946,0.9039268493652344,12.731536865234375,2.2854232788085938,3.08544921875,-5.601310729980469,-9.780479431152344,-4.113372802734375,-34.5101203918457,6.0,6.0,03-29,-2.508982181549072
01-30,-3.7982959747314453,-1.1718635559082031,6.045177459716804,1.9795646667480398,1.1898727416992188,12.666679382324219,1.4272308349609375,5.1173934936523295,-3.980621337890625,-8.435066223144545,-4.670806884765639,-35.32785415649414,6.0,6.0,03-30,-2.413215796152754
01-31,-4.525627136230472,-0.9999313354492188,5.8266754150390625,1.5992355346679545,1.4850311279296804,14.793998718261719,-0.3544769287109375,5.982826232910156,-4.340782165527344,-8.272857666015625,-3.805847167968736,-35.931427001953125,5.0,7.0,03-31,-2.3785985310872406
02-01,-5.3786830902099645,-0.9999313354492188,5.376026153564453,1.7092018127441335,-0.24445343017578125,15.957283020019531,-0.7742156982421875,4.298980712890625,-3.7910690307617188,-12.11825561523439,-3.5271377563476562,-35.42520523071289,4.0,8.0,04-01,-2.909788290659589
02-02,-4.314619064331055,-1.6695671081542969,5.439750671386719,1.1639022827148438,0.5626564025878906,16.786888122558594,-0.7742156982421875,6.114498138427734,-2.4073333740234375,-7.213691711425781,-2.3450088500976562,-34.51012802124023,5.0,7.0,04-02,-1.930572350819905
02-03,-4.830951690673828,-1.7464752197265625,5.216693878173828,0.9210395812988281,0.8116950988769531,16.907394409179673,-4.3096160888671875,3.2641983032226562,-3.2129287719726562,-6.3263015747070455,-3.2003631591796875,-35.79513168334961,5.0,7.0,04-03,-2.6917289098103865
02-04,-5.140731811523434,0.018093109130859375,5.28497314453125,1.507598876953118,-0.548816680908196,13.737258911132798,-3.2648849487304688,3.8944854736328125,-2.5968856811523438,-4.2843246459960795,-5.237831115722656,-37.9854850769043,5.0,7.0,04-04,-2.88471253712972
02-05,-3.9329853057861364,1.2306785583496094,5.81756591796875,1.603809356689446,-1.2544517517089773,14.242439270019517,-4.636161804199219,4.684658050537109,-1.3742599487304688,-5.1430816650390625,-4.2479400634765625,-41.32454299926758,5.0,7.0,04-05,-2.8611893653869642
02-06,-2.366090774536133,2.8006973266601562,5.157524108886719,1.603809356689446,-1.6464614868163991,13.000389099121108,-2.8731002807617188,1.7684936523437358,-2.0092620849609375,-3.9121780395507812,-2.1623992919921875,-36.57392120361328,5.0,7.0,04-06,-2.2677083015441895
02-07,-4.50767707824707,2.6242294311523438,4.197032928466797,1.1134986877441406,-3.1868743896484375,10.6783447265625,-1.0074462890625,1.98486328125,0.36962890625,-1.536224365234375,0.6535263061523438,-33.5463752746582,7.0,5.0,04-07,-1.8469560941060383
02-08,-5.733362197875977,5.50184249877929,4.574855804443359,0.9805946350097656,-3.9339981079101562,10.038795471191406,-1.5671463012695312,2.6245346069335938,-0.5307540893554688,3.187004089355483,5.891357421875014,-33.36141204833984,7.0,5.0,04-08,-1.0273073514302549
02-09,-5.733362197875977,4.162559509277337,4.943561553955078,-0.8843841552734375,-2.974712371826172,10.761795043945312,-1.7817001342773438,5.296115875244141,-1.668052673339858,1.7748031616210938,5.064842224121094,-31.51178741455078,6.0,6.0,04-09,-1.045860131581626
02-10,-3.7848281860351562,7.013050079345696,4.743263244628913,-1.2143096923828125,-2.347492218017578,10.984260559082031,-1.1380691528320312,5.10797119140625,-3.8668899536132812,0.22899627685545454,4.1902694702148295,-31.51178741455078,6.0,6.0,04-10,-0.9662971496582055
02-11,-2.8689289093017543,7.194049835205078,5.171161651611342,-2.721893310546882,-2.176849365234368,10.738616943359375,0.7835693359375,5.540668487548842,-1.68701171875,4.312934875488281,4.3440399169921875,-32.57289123535156,7.0,5.0,04-11,-0.32854445775349667
02-12,-2.2673072814941406,6.239341735839844,3.536968231201172,-4.298198699951179,-2.5273551940917898,10.562484741210938,0.848876953125,5.427791595458999,-2.1826019287109375,5.973236083984375,2.9793167114257812,-33.147239685058594,7.0,5.0,04-12,-0.737890561421711
02-13,-1.0640621185302699,6.497241973876953,1.9710540771484375,-4.779338836669929,-2.2967567443847585,9.617019653320312,-0.30783843994139204,5.75701904296875,-2.1826019287109375,6.612541198730483,1.902923583984375,-29.584274291992188,6.0,6.0,04-13,-0.654756069183347
02-14,2.5726108551025355,6.587730407714844,2.6731033325195312,-4.948883056640625,-2.3382568359375,9.408432006835938,-1.6790771484375,9.049446105957031,-3.0166549682617188,2.519073486328125,1.7010955810546733,-29.301971435546875,7.0,5.0,04-14,-0.5644459724426284
02-15,1.9853229522705078,7.523410797119141,3.2876434326171804,-5.448352813720696,-2.2496261596679616,9.38702392578125,0.13195037841796875,9.462356567382812,-2.5617218017578267,2.185089111328111,4.863037109375,-30.411739349365227,8.0,4.0,04-15,-0.15380048751831174
02-16,1.4092903137207031,7.523410797119141,3.542552947998054,-5.602291107177727,-6.936130523681641,10.454345703125,1.5336837768554688,9.462356567382812,-2.3822479248046875,3.4036636352539205,2.5216598510742188,-31.44363784790039,8.0,4.0,04-16,-0.542778650919594
02-17,1.4092903137207031,7.505321502685547,3.0328025817871236,-4.97137451171875,-5.568981170654297,10.454345703125,1.5336837768554688,6.706146240234375,-3.0581893920898438,3.0983200073242188,2.7431564331054688,-33.37368011474609,8.0,4.0,04-17,-0.8740965525309227
02-18,1.2386913299560547,7.383922576904297,1.0528717041015625,-5.824115753173821,-7.5688934326171875,10.454345703125,2.6344070434570312,8.013778686523438,-3.3802642822265625,3.2225875854492188,2.7431564331054688,-33.37368011474609,8.0,4.0,04-18,-1.116932710011799
02-19,1.3008499145507777,5.8752899169921875,0.7789344787597656,-4.892345428466797,-7.5688934326171875,10.945602416992188,4.080345153808594,5.798866271972656,-4.24420166015625,4.8474349975585795,2.7431564331054688,-36.05076599121093,8.0,4.0,04-19,-1.3654772440592458
02-20,2.294651031494137,7.255599975585945,0.5965881347656321,-5.181522369384766,-5.719474792480469,10.310508728027344,5.8981246948242045,5.078071594238281,-5.7062530517578125,4.8474349975585795,3.6369400024414062,-38.10502243041992,8.0,4.0,04-20,-1.23286279042562
02-21,2.299306869506836,8.850532531738281,0.5965881347656321,-5.181522369384766,-3.9481658935546804,12.587890625,5.581787109374986,6.671287536621094,-5.7062530517578125,6.898941040039034,6.4422531127929545,-31.146862030029304,8.0,4.0,04-21,0.3288153012593546
02-22,2.7223396301269496,9.013668060302734,0.5965881347656321,-5.186107635498054,-5.411415100097649,12.477920532226577,4.507133483886719,6.897552490234375,-3.8675689697265483,6.8150100708007955,8.224319458007827,-27.61894607543946,8.0,4.0,04-22,0.7642078399658244
02-23,2.474821090698242,10.00906753540039,-2.1665191650390554,-5.667419433593757,-2.397815704345703,11.373443603515625,5.5444183349609375,10.83906173706054,-3.895996093750014,5.0877761840820455,12.055831909179688,-28.277027130126946,7.0,5.0,04-23,1.2483035723368328
02-24,1.419734954833988,8.755767822265625,0.8257560729980398,-6.5754241943359375,-2.1206817626953125,13.916481018066406,5.842933654785156,9.428009033203125,-2.4265060424804688,5.289566040039034,11.603195190429688,-25.67416763305664,8.0,4.0,04-24,1.690388679504392
02-25,2.003398895263672,9.027973175048828,0.12933349609375,-5.429401397705078,-0.7673988342285156,12.247978210449219,4.518302917480469,10.189537048339844,-3.800514221191392,5.050613403320298,9.041389465332031,-22.831584930419922,8.0,4.0,04-25,1.6149689356486003
02-26,3.9738464355468786,8.974163055419929,-0.8230781555175781,-5.039276123046875,-1.565265655517571,11.117088317871094,7.75616455078125,12.789443969726562,-2.347938537597642,5.824813842773423,9.84869384765625,-19.14206314086914,7.0,5.0,04-26,2.6138827006022147
02-27,5.961519241333004,8.140834808349616,-0.1939697265625,-4.130474090576172,-3.142555236816399,9.154800415039062,6.690177917480469,14.292194366455085,-3.259368896484361,8.258003234863281,8.762672424316406,-14.975940704345696,7.0,5.0,04-27,2.963157812754316
02-28,7.621915817260742,6.396369934082031,-0.17573165893554688,-4.584117889404297,-1.6931076049804759,4.130149841308594,7.9039077758789205,17.139255523681648,-2.3874282836914062,13.525138854980469,7.9708404541015625,-18.99420928955078,7.0,5.0,04-28,3.0710819562276215
02-29,0.0,0.0,0.0,-3.3239898681640625,0.0,0.0,0.0,18.770206451416023,0.0,0.0,0.0,-17.445812225341797,1.0,2.0,04-29,-0.16663297017415304
03-01,8.058439254760742,6.754310607910156,1.8180809020996094,-3.7623023986816406,-1.7087860107421875,3.2808151245117188,8.93182373046875,18.50680160522461,-5.287582397460923,15.876029968261719,1.600090026855483,-17.013641357421875,8.0,4.0,04-30,3.0878399213155134
03-02,9.11600303649902,6.672874450683594,1.4721107482910156,-2.1535415649414134,0.1471405029296946,4.728706359863281,10.127990722656236,16.644222259521477,-5.033790588378906,14.825096130371094,0.37775421142578125,-14.322383880615241,9.0,3.0,05-01,3.5501818656921356
03-03,8.016025543212887,6.224933624267571,0.4799041748046875,-1.4701728820800781,-0.20851898193358664,3.2251358032226562,8.90597534179686,12.057670593261719,-5.603294372558594,15.800590515136719,-0.5371780395507812,-13.903785705566413,7.0,5.0,05-02,2.748940467834471
03-04,6.642169952392575,7.3391876220703125,1.74609375,-0.8183975219726491,-1.28466796875,2.1730728149414062,8.794021606445298,10.7139892578125,-7.471160888671889,15.217552185058608,-4.543601989746094,-15.510040283203132,7.0,5.0,05-03,1.9165182113647443
03-05,5.292867660522461,6.742523193359375,1.1483802795410156,-1.7134323120117045,-2.6267623901367188,2.6689834594726562,8.895339965820312,7.0456085205078125,-7.623039245605483,14.3477783203125,-3.2845916748046733,-13.564895629882805,7.0,5.0,05-04,1.444063345591229
03-06,6.359685897827152,7.399501800537109,-0.12352371215820312,-1.4935035705566335,-3.0418319702148438,1.5880813598632812,9.800079345703125,5.0187225341796875,-7.727470397949233,15.111137390136719,0.13683319091796875,-10.056781768798828,7.0,5.0,05-05,1.9142441749572754
03-07,9.782611846923817,5.895175933837891,-0.9760055541992188,-1.6859512329101491,-3.55780029296875,2.0607528686523438,11.050918579101577,3.8025970458984375,-7.215660095214844,15.244712829589858,-1.9157333374023438,9.305343627929688,7.0,5.0,05-06,3.4825801849365257
03-08,9.319084167480465,3.597911834716804,0.10738372802734375,-2.9885025024414062,-2.0836753845214915,4.496543884277344,6.5186309814453125,8.42141723632814,-2.7611541748046875,14.90017700195314,4.469268798828125,8.627616882324219,9.0,3.0,05-07,4.385391871134442
03-09,12.253253936767575,3.2902488708496094,0.2894744873046946,-4.360454559326172,-1.1230125427246094,8.561691284179688,7.0232696533203125,6.822242736816406,-6.5857696533203125,11.50106811523436,4.9697113037109375,8.42135238647461,9.0,3.0,05-08,4.255256334940591
03-10,11.135320663452148,2.9328269958496094,0.7615890502929688,-4.026325225830078,3.334075927734375,9.638298034667969,8.45050048828125,8.622901916503892,-3.5587081909179688,12.816635131835938,5.489776611328125,4.52740478515625,10.0,2.0,05-09,5.010358015696206
03-11,10.64593696594238,2.1437301635742188,0.8865737915039062,-4.384346008300781,4.3548011779785085,11.237266540527344,8.114677429199219,3.4532012939453125,-2.9413528442382812,14.154762268066392,7.656723022460952,7.194759368896477,10.0,2.0,05-10,5.209727764129637
03-12,6.681789398193359,1.5409507751464773,2.254779815673828,-3.8748512268066406,3.6999053955078054,11.455116271972656,7.4217681884765625,3.791770935058608,-2.98883056640625,16.544265747070312,6.964744567871108,15.812196731567386,10.0,2.0,05-11,5.7753005027771005
03-13,8.108556747436516,4.413208007812507,2.0405120849609375,-5.304538726806641,3.7921371459960866,9.643989562988281,7.7202606201171875,4.819351196289077,-0.23561859130859375,17.116775512695312,5.436637878417983,16.657310485839837,10.0,2.0,05-12,6.184048493703208
03-14,5.559597015380859,3.620258331298828,0.14406585693359375,-4.31016921997071,2.0522003173828125,8.73623657226561,3.6126632690429688,5.375572204589858,0.1055755615234375,17.269447326660156,4.5624847412109375,18.677856445312504,11.0,1.0,05-13,5.450482368469238
03-15,5.343570709228523,5.2695770263671875,0.6402359008789062,-4.098320007324219,1.547821044921875,9.414512634277358,5.2947540283203125,6.476188659667969,-2.2354049682617188,19.561363220214844,6.10174560546875,18.559989929199222,10.0,2.0,05-14,5.989669481913251
03-16,4.025003433227539,5.4550933837890625,1.0726890563964844,-5.671783447265618,2.271942138671868,10.83450317382811,3.6033172607421875,5.1309814453125,-1.3164901733398295,16.371902465820327,1.7066268920898438,17.06703186035156,10.0,2.0,05-15,5.04590145746867
03-17,3.315622329711914,5.758235931396484,-1.3679962158203054,-7.415466308593736,3.6621742248535085,9.655807495117188,4.629417419433594,3.9272537231445312,-1.4864044189452983,19.475036621093736,2.5156097412109375,17.27146530151367,9.0,3.0,05-16,4.995062987009685
03-18,3.804996490478519,6.767017364501953,-1.06304931640625,-8.25540924072265,2.747657775878899,8.761329650878906,1.0287017822265625,3.0016021728515625,-1.2588958740234233,20.95654296875,2.5348663330078267,18.371505737304688,9.0,3.0,05-17,4.783072153727216
03-19,3.7207832336425852,6.5802040100097585,-2.97998046875,-8.374755859374986,3.5132522583007812,9.516761779785156,1.26983642578125,4.6143798828125,-2.113342285156236,22.17041015625,1.612236022949233,14.374626159667976,9.0,3.0,05-18,4.4920342763265015
03-20,2.9003925323486293,5.374809265136719,-2.5651321411132812,-7.14671325683593,3.9882850646972727,7.142425537109375,-0.0459136962890625,5.443977355957031,-2.948791503906236,19.441421508789062,-1.2805938720702983,12.86677169799804,7.0,5.0,05-19,3.5975782076517766
03-21,2.3062076568603445,5.198093414306641,-2.1046829223632812,-6.734313964843736,4.388523101806641,6.312507629394517,2.764129638671875,4.350410461425781,-1.3470535278320312,16.14946746826172,-1.4327163696289062,17.88280487060547,8.0,4.0,05-20,3.977781454722086
03-22,2.7427158355712855,4.921699523925781,-2.996906280517578,-5.887805938720703,4.828029632568359,7.0723876953125,1.3250350952148438,4.4068603515625,-1.460784912109375,21.0614776611328,-0.4471588134765625,16.134471893310547,8.0,4.0,05-21,4.308335145314533
03-23,2.9317302703857386,3.727214813232422,-3.320098876953125,-6.992912292480469,5.483188629150391,6.691864013671875,1.5119247436523438,5.87432861328125,-2.8086624145507812,19.219322204589844,1.0534439086914062,18.089069366455078,9.0,3.0,05-22,4.288367748260498
03-24,3.829675674438473,4.43756103515625,-4.281013488769531,-5.404483795166016,4.8689117431640625,8.798690795898438,1.661163330078125,5.600837707519531,-0.8433380126953125,19.174270629882812,2.9314651489257812,12.968524932861328,9.0,3.0,05-23,4.478522141774495
03-25,4.117029190063473,3.171337127685547,-4.794834136962891,-4.8858489990234375,3.3216209411621094,7.8856658935546875,0.6163864135742188,6.176383972167983,-0.10521697998046875,15.64736938476564,0.31188201904296875,13.075611114501953,9.0,3.0,05-24,3.7114488283793157
03-26,4.768030166625973,5.04280090332032,-6.389808654785156,-4.716011047363274,1.0248680114746094,7.630760192871094,-0.6895599365234375,6.5063247680664205,-0.6558685302734375,14.901832580566392,-1.6006546020507812,13.231365203857422,7.0,5.0,05-25,3.254506587982179
03-27,4.760709762573246,2.0544891357421875,-5.564685821533203,-4.312770843505859,1.3476943969726634,7.009674072265625,1.0192184448242188,7.656463623046889,-0.5229568481445312,16.0850372314453,-1.4276657104492188,16.3436508178711,8.0,4.0,05-26,3.7040715217590345
03-28,5.698474884033207,2.6661720275878906,-5.0449676513671875,-3.5566940307617045,1.4076499938964844,4.849357604980483,-1.6040496826171875,8.212699890136733,-2.3331985473632812,18.480064392089844,-2.0523529052734375,17.297317504882812,7.0,5.0,05-27,3.668372790018721
03-29,5.734479904174805,3.1328582763671875,-5.60487365722657,-3.277168273925774,1.4218292236328125,5.577346801757827,-2.6413345336914062,7.347267150878906,-3.953887939453125,17.096473693847642,-5.9048309326171875,16.47225570678711,7.0,5.0,05-28,2.9500346183776855
03-30,5.284442901611328,2.960926055908203,-5.386371612548828,-4.6479644775390625,1.1585617065429688,6.28271484375,-2.781524658203125,9.031112670898438,-4.1150054931640625,16.46189117431642,-9.223922729492188,17.73931121826172,7.0,5.0,05-29,2.7303476333618177
03-31,6.13749885559082,3.14190673828125,-5.0768280029296875,-5.238353729248047,1.2924880981445312,6.70965576171875,-2.361785888671875,10.047035217285156,-6.0416412353515625,14.340019226074247,-9.272079467773438,16.824234008789055,7.0,5.0,05-30,2.5418457984924334
04-01,5.0734348297119105,1.9474258422851562,-5.0085296630859375,-3.8109016418457102,2.0822982788085938,5.8800506591796875,-1.92333984375,9.819679260253906,-5.292579650878906,12.858520507812528,-9.926979064941406,18.109237670898438,7.0,5.0,05-31,2.484026432037355
04-02,5.589838027954102,4.024116516113288,-4.580013275146484,-5.587200164794922,1.8332595825195312,5.759544372558608,-3.173065185546875,10.75888061523439,-6.8115997314453125,16.251609802246108,-9.071624755859375,13.436725616455078,7.0,5.0,06-01,2.369205951690678
04-03,4.589246749877937,3.2674331665039062,-4.128684997558594,-5.68341064453125,3.1937713623046804,5.7056198120117045,-5.6178436279296875,10.560905456542983,-6.156517028808594,14.209632873535142,-7.034156799316406,11.23080062866211,7.0,5.0,06-02,2.0113997459411608
04-04,7.273298263549805,1.4504661560058594,-4.561767578125,-4.290393829345703,4.623394012451172,5.7139129638671875,-5.5524139404296875,9.985839843750014,-7.379142761230469,15.068389892578125,-9.163078308105469,12.503658294677727,7.0,5.0,06-03,2.139346917470297
04-05,7.043798446655266,4.585968017578125,-3.9017257690429688,-4.452049255371094,2.093616485595703,7.0296478271484375,-4.608604431152344,9.76947021484375,-6.744140625,13.004219055175753,-15.933219909667983,15.450286865234368,7.0,5.0,06-04,1.9447722434997512
04-06,5.405706405639648,4.7624359130859375,-2.941234588623047,-7.156810760498047,2.330608367919922,8.217636108398438,-5.3188018798828125,9.129798889160156,-7.104164123535142,15.858123779296875,-15.719635009765625,16.000320434570305,7.0,5.0,06-05,1.955331961313884
04-07,6.631391525268555,1.8848228454589915,-1.632965087890632,-7.739723205566399,2.519977569580078,7.9485015869140625,-4.759101867675781,8.668342590332017,-7.133758544921875,14.780410766601577,-14.438735961914062,14.15069580078125,7.0,5.0,06-06,1.7399881680806484
04-08,6.146505355834961,1.3250656127929688,-1.792522430419929,-7.065021514892578,0.8387489318847656,7.225502014160156,-4.544548034667969,6.032791137695298,-8.73626708984375,12.782775878906264,-16.605682373046875,10.295684814453125,7.0,5.0,06-07,0.49191935857136987
04-09,5.401906967163086,-0.7380218505859375,-1.5704803466796946,-5.665103912353523,0.21152877807617188,7.0030364990234375,-7.6255950927734375,6.9954986572265625,-7.188758850097656,12.362236022949247,-15.73110961914061,10.53714370727539,6.0,6.0,06-08,0.3326900800069197
04-10,5.2585353851318395,-2.66668701171875,-2.0309066772460938,-4.088798522949226,0.040885925292961645,9.201683044433594,-6.297172546386733,10.907852172851562,-9.733108520507812,8.27829742431642,-15.884880065917969,16.112564086914055,6.0,6.0,06-09,0.7581887245178208
04-11,5.344041824340817,-0.7545509338378906,-1.6251754760742116,-3.607658386230476,1.1861076354980469,10.037620544433594,-5.057456970214844,10.851287841796875,-9.237518310546875,6.617996215820327,-13.727554321289062,18.86275100708007,6.0,6.0,06-10,1.574157555898031
04-12,5.771566390991207,-1.4568748474121094,-0.05926132202147727,-4.484321594238281,3.949005126953118,8.863510131835938,-5.0761566162109375,7.558860778808594,-8.867279052734375,7.7754364013671875,-19.733604431152344,16.26971817016601,6.0,6.0,06-11,0.8758832613627107
04-13,6.041566848754879,-1.54736328125,-0.761310577392571,-4.337436676025391,7.1267051696777415,8.102447509765625,-3.8426132202148438,7.1459503173828125,-7.148872375488281,6.3560791015625,-16.295394897460938,12.498035430908196,6.0,6.0,06-12,1.1114827791849775
04-14,6.628854751586907,-2.483043670654297,0.02735519409178977,-4.975425720214851,5.967395782470703,9.967964172363281,-5.6536407470703125,6.38232421875,-5.373527526855469,6.6810531616210795,-15.04339599609375,13.52993392944336,7.0,5.0,06-13,1.3046539624532034
04-15,7.204887390136712,-0.7838706970214773,-1.5363121032714844,-3.9472923278808665,6.207561492919922,8.900642395019531,-7.0553741455078125,5.515007019042969,-5.563407897949219,7.120735168457031,-16.4591064453125,15.459976196289055,6.0,6.0,06-14,1.2552871704101551
04-16,8.329963684082031,1.0829391479492188,-2.352325439453125,-4.621994018554695,4.840412139892578,8.993461608886719,-6.86846923828125,3.72381591796875,-4.917816162109375,6.9104461669921875,-16.68060302734375,14.36972427368164,7.0,5.0,06-15,1.0674629211425775
04-17,7.8934478759765625,0.4349822998046804,-2.206439971923828,-5.553764343261719,6.840324401855469,8.520103454589858,-7.1955795288085795,5.222755432128906,-6.4653167724609375,6.7861785888671875,-16.189437866210923,10.539104461669929,7.0,5.0,06-16,0.7188631693522171
04-18,9.126508712768555,1.073871612548821,-3.1911277770996094,-5.26458740234375,8.322925567626953,9.735939025878892,-7.9618148803710795,4.713691711425781,-5.60137939453125,5.161331176757827,-16.738410949707045,10.84358978271485,7.0,5.0,06-17,0.8517114321390787
04-19,8.050939559936523,1.0874595642089773,-3.008781433105476,-4.360393524169922,8.452266693115227,9.745239257812472,-7.158157348632798,3.1204757690429688,-4.1393280029296875,3.335731506347642,-21.091537475585938,13.191066741943366,7.0,5.0,06-18,0.6020817756652797
04-20,7.776422500610359,-0.5074729919433594,-4.080081939697266,-2.9329261779785156,7.819484710693359,8.22311401367186,-8.148719787597642,2.8942108154296875,-5.943153381347656,0.20072174072265625,-20.80261993408203,11.108783721923835,6.0,6.0,06-19,-0.3660197257995594
04-21,7.353389739990245,-0.6706085205078125,-4.677299499511719,-4.071224212646484,8.600067138671882,9.290443420410156,-7.074066162109375,0.9615936279296875,-4.803901672363281,1.7013244628906392,-18.07708740234375,11.766864776611321,6.0,6.0,06-20,0.024957974751792438
04-22,7.600908279418952,-1.3366737365722656,-3.6880340576171875,-3.511272430419922,8.863319396972656,10.394920349121108,-8.111351013183594,-0.02829742431640625,-5.383026123046875,2.1409912109375284,-17.740005493164062,9.164005279541016,5.0,7.0,06-21,-0.13620964686075432
04-23,5.3912963867187464,-1.5858993530273438,-4.303474426269531,-4.892826080322266,8.586185455322266,7.851882934570327,-8.840248107910156,3.23358154296875,-5.591896057128906,4.387130737304702,-17.287368774414062,8.555042266845696,6.0,6.0,06-22,-0.3747161229451483
04-24,3.0376682281494105,-0.8473091125488352,-3.7153892517089844,-5.282951354980469,7.232902526855469,11.434387207031264,-7.8964385986328125,4.855072021484375,-6.284934997558594,4.6260833740234375,-14.725563049316406,8.780948638916016,6.0,6.0,06-23,0.10120630264282256
04-25,2.277130126953125,-2.732250213623054,-4.1028900146484375,-6.191753387451172,4.216907501220703,17.578567504882812,-8.672042846679702,3.6200942993164062,-7.737510681152344,3.8518829345703125,-10.237586975097656,7.739810943603516,6.0,6.0,06-24,-0.032470067342124175
04-26,2.191623687744144,-2.5555458068847727,-4.731998443603516,-10.116081237792969,5.209911346435547,17.9591064453125,-8.008560180664077,0.7730331420898438,-6.826080322265625,-0.9749069213867188,-5.306587219238281,7.7790985107421875,5.0,7.0,06-25,-0.3839155832926447
04-27,2.2051334381103516,-0.8110809326171875,-4.750236511230469,-9.822338104248047,2.5310478210449148,13.884666442871094,-8.429077148437514,-0.8579177856445312,-5.041252136230469,1.6439895629882812,-6.2022552490234375,4.33154296875,5.0,7.0,06-26,-0.9431481361389178
04-28,1.7686100006103516,-1.1690216064453125,-5.388477325439453,-11.43338775634765,3.7965660095214773,16.66901397705078,-9.456993103027344,2.4605560302734375,-4.471611022949219,-1.2807693481445312,-6.703056335449219,3.899372100830078,5.0,7.0,06-27,-0.9424331982930502
04-29,0.7110462188720739,-3.0222244262695312,-6.73785400390625,-11.864837646484368,4.581752777099595,15.221122741699219,-10.65316009521483,-1.4706802368164062,-4.405143737792969,1.443267822265625,-3.7656707763671875,1.2081146240234446,5.0,7.0,06-28,-1.5628555615742987
04-30,2.3176288604736364,-1.060283660888679,-4.8368377685546875,-11.052410125732422,4.937412261962876,16.724693298339844,-10.559707641601562,-3.9500808715820312,-3.8260116577148438,5.5054168701171875,-2.850738525390625,3.1627120971679688,5.0,7.0,06-29,-0.4573505719502782
05-01,0.6660175323486293,-3.6883277893066406,-3.8886337280273438,-11.70418548583985,6.01356124877929,16.98455047607422,-10.129844665527344,-0.971038818359375,-2.8576507568359375,6.088455200195298,1.1556854248046875,4.115459442138672,6.0,6.0,06-30,0.14867067337035866
05-02,-2.2861137390136648,-6.035411834716797,-3.5740776062011648,-10.809150695800795,5.23760986328125,17.430038452148438,-12.279174804687514,0.6222076416015625,-2.7057723999023438,6.958229064941406,2.8314666748046875,2.858226776123054,6.0,6.0,07-01,-0.14599355061849018
05-03,-1.8540878295898366,-6.882717132568359,-2.302173614501946,-10.350189208984375,3.5564155578613352,16.344154357910156,-11.064331054687514,2.6490936279296875,-2.6013412475585938,7.158950805664048,2.1765670776367188,3.8502540588378906,6.0,6.0,07-02,0.0567162831624343
05-04,-1.8540878295898366,-5.378391265869141,-1.4496917724609304,-6.967426300048828,4.281566619873047,16.0564422607422,-11.064331054687514,3.8652191162109375,1.329132080078125,9.338180541992202,1.7817001342773438,3.8502540588378906,7.0,5.0,07-03,1.1490472157796248
05-05,-1.3905601501464844,-3.081127166748054,-0.5698471069335866,-6.728759765625,4.281566619873047,16.0564422607422,-6.53204345703125,2.0551528930664062,-0.8354644775390625,10.074142456054702,1.7817001342773438,4.527980804443359,6.0,6.0,07-04,1.6365985870361353
05-06,-4.324729919433594,-1.8124313354492188,-1.317485809326179,-7.265785217285156,5.468578338623047,11.991294860839858,-7.03668212890625,4.46856689453125,-1.1108016967773438,8.133872985839858,-3.5441436767578125,4.734245300292969,5.0,7.0,07-05,0.6987082163492856
05-07,-2.9161758422851562,-0.7974700927734304,-3.7564010620117188,-4.534809112548821,1.0114898681640625,10.914688110351577,-7.2235870361328125,5.78839111328125,0.64556884765625,8.16253662109375,-4.064208984375,1.5224189758300781,6.0,6.0,07-06,0.396036783854169
05-08,-5.688316345214837,-3.692852020263679,-3.6834716796875,-4.176788330078118,-0.00923538208007102,13.457687377929688,-7.317047119140625,3.8840713500976562,-1.3196487426757812,6.8244094848632955,-6.231155395507827,-0.9134559631347727,3.0,9.0,07-07,-0.7388168970743809
05-09,-4.995281219482422,-3.0086555480957102,-4.125682830810547,-4.6862831115722585,0.9699058532714915,13.429878234863281,-6.09283447265625,3.8840713500976562,-1.2721710205078125,4.434906005859375,-6.780113220214844,0.5598602294921804,5.0,7.0,07-08,-0.6401999791463217
05-10,-5.917837142944336,-1.2188682556152415,-3.9114151000976562,-6.659923553466797,3.149951934814453,11.22091674804686,-4.569610595703125,2.8564910888671875,-4.025382995605469,4.081275939941392,-6.192634582519531,-1.6992225646972727,4.0,8.0,07-09,-1.0738549232482946
05-11,-5.3823127746582,-0.4259185791015625,-2.0149688720703125,-6.2376556396484375,2.8174324035644673,11.45297241210936,-6.653556823730469,2.3002700805664062,-5.364044189453125,6.633247375488267,-3.2263412475585938,-2.3573036193847727,4.0,8.0,07-10,-0.7048482894897475
05-12,-5.166286468505863,-2.075237274169922,-0.8980865478515625,-4.383338928222663,3.9536170959472514,11.991264343261719,-8.335647583007812,1.0464553833007812,-5.9431610107421875,7.120719909667983,-4.189430236816406,-2.2394371032714915,4.0,8.0,07-11,-0.7598807017008479
05-13,-3.8477191925048793,-0.8427886962890625,-1.6046905517578125,-5.365577697753913,3.9767112731933594,10.571273803710966,-6.6442108154296875,3.6672592163085938,-4.8513641357421875,7.9235916137695455,-2.73516845703125,-0.7464790344238281,4.0,8.0,07-12,-0.041596889495846355
05-14,-3.9332084655761754,-0.2356109619140625,-2.5939254760742116,-4.204338073730476,2.5864791870117188,11.74996948242189,-5.074272155761719,2.0834197998046875,-3.892486572265625,5.715698242187528,-3.5441513061523438,-3.1627120971679688,4.0,8.0,07-13,-0.37542819976806313
05-15,-2.5876502990722656,1.04669189453125,-2.64862060546875,-3.3643951416015625,3.500995635986328,11.341606140136719,-5.541496276855469,4.195167541503906,-3.949462890625,4.234191894531264,-3.563407897949233,-2.2394371032714844,5.0,7.0,07-14,0.03534857432047526
05-16,-3.2491855621337855,1.6221237182617188,-2.5527496337890625,-3.245048522949226,4.771121978759766,10.34854125976564,-7.092742919921875,3.1258773803710938,-3.0950164794921875,3.020324707031264,-4.179786682128906,-7.356746673583984,5.0,7.0,07-15,-0.6569406191507955
05-17,-2.871170043945309,1.6153335571289062,-2.9675979614257812,-2.88702392578125,4.369308471679702,12.427513122558594,-6.139564514160156,2.2962799072265625,-2.2595672607421875,-1.921157836914034,-2.0417251586914062,-5.068199157714844,4.0,8.0,07-16,-0.45396423339843367
05-18,-1.989395141601559,1.7920494079589844,-3.4280471801757812,-1.471588134765618,3.748912811279297,10.453109741210938,-7.8362274169921875,3.3898468017578125,0.27590179443359375,0.1624755859375,-4.7480010986328125,-4.8914031982421875,6.0,6.0,07-17,-0.37853050231933505
05-19,-2.4259033203125,2.0684432983398438,-4.159088134765625,-3.1145057678222585,4.220615386962891,13.853675842285156,-6.397132873535156,4.4471893310546875,-1.6797256469726562,-2.5392913818359375,-6.160614013671875,-3.1430702209472656,4.0,8.0,07-18,-0.41911729176839135
05-20,-2.614917755126953,4.555702209472656,-2.5054969787597585,-2.1948013305664062,4.807949066162109,14.234199523925781,-6.584022521972656,3.1546173095703125,-0.9866256713867188,-2.8168869018554545,-7.909477233886719,-5.097667694091797,4.0,8.0,07-19,-0.3297856648763003
05-21,-0.15496826171875,0.8330802917480398,-1.1695480346679616,-1.5234451293945312,5.4222259521484375,12.127372741699219,-8.3424072265625,2.0217819213867188,-1.1768569946289062,-3.5252151489257812,-9.787498474121094,-4.045864105224609,4.0,8.0,07-20,-0.7767785390218099
05-22,0.25036621093749645,2.1741180419921875,-0.023429870605461645,-2.0420799255371094,6.969516754150391,11.132751464843736,-8.972038269042969,0.8788299560546875,1.3056411743164062,0.0016860961913920391,-7.167915344238281,-4.659999847412109,7.0,5.0,07-21,-0.012712796529136186
05-23,1.4366855621337962,3.1451759338378906,-0.12388992309570312,-2.2119178771972727,7.293521881103516,11.31887054443358,-10.34112548828125,0.9449386596679688,1.856292724609375,0.7472229003906392,-3.0258865356445312,-3.3003196716308594,7.0,5.0,07-22,0.6449640591939291
05-24,1.5674877166747976,2.36016845703125,-0.9490127563476562,-1.0814628601074219,8.329105377197266,10.715705871582031,-10.902931213378906,-0.2052001953125,1.7233810424804688,2.4755477905273438,0.1573333740234375,-0.6074333190917969,7.0,5.0,07-23,1.1318907737731927
05-25,1.0307559967041016,1.7484855651855469,-1.4687309265136719,-1.0714607238769531,8.574413299560533,11.08734130859375,-12.063972473144531,-0.7614364624023438,2.6716232299804688,4.559120178222642,0.3697509765625,-0.8351402282714915,7.0,5.0,07-24,1.1533958117167125
05-26,1.0307559967041016,1.28179931640625,-0.6833229064941406,-3.4323997497558523,8.181316375732422,10.529869079589844,-12.063972473144531,-0.6117324829101562,1.7683792114257812,6.52880859375,0.736907958984375,-0.8351402282714915,7.0,5.0,07-25,1.03593905766805
05-27,1.4807929992675781,-1.4318389892578196,-0.6415519714355469,-4.214141845703118,6.067829132080078,10.529869079589844,-11.923782348632812,-0.40528106689453125,3.6678543090820312,9.170692443847642,0.8238754272460938,-2.102195739746101,6.0,6.0,07-26,0.9185101191202781
05-28,0.6146583557128906,-1.0699195861816406,-1.2572555541992188,-4.126770019531243,6.067829132080078,10.102928161621094,-11.848625183105469,-2.3137664794921875,5.151649475097656,11.81258392333983,0.8238754272460938,-2.3582305908203125,6.0,6.0,07-27,0.9665797551472975
05-29,0.7505645751953054,1.3777732849121094,-1.0928802490234375,-4.126770019531243,5.278018951416016,8.96163177490233,-12.504913330078125,-0.7079391479492188,5.0375213623046875,11.81258392333983,1.4787750244140625,-1.5120429992675781,7.0,5.0,07-28,1.2293602625528948
05-30,-1.0139122009277344,-0.056137084960930395,-2.2344131469726562,-2.3504714965820312,6.868804931640625,8.486885070800781,-14.414901733398438,-1.3408203125,5.0375213623046875,8.41949462890625,1.7222366333007812,-2.8123130798339844,5.0,7.0,07-29,0.5259977976481126
05-31,-1.4017982482910156,-0.056137084960930395,-2.2344131469726562,-0.7792510986328125,7.773105621337891,7.548065185546861,-10.9879150390625,-1.3408203125,4.382438659667969,10.74276733398439,2.5853195190429688,-4.089454650878906,5.0,7.0,07-30,1.0118255615234382
06-01,-2.5474205017089844,-0.056137084960930395,-1.80133056640625,4.373664855957038,6.072807312011719,8.337799072265625,-10.154594421386719,-0.7657546997070312,5.466903686523423,10.504211425781236,1.1973190307617188,-2.871715545654297,6.0,6.0,07-31,1.479646046956379
06-02,-2.317920684814446,-3.191638946533196,-3.3335418701171875,4.289817810058587,5.790718078613281,7.7710418701171875,-11.098403930664062,-0.40728759765625,5.617820739746094,10.916275024414062,3.2650375366210938,-5.8183441162109375,6.0,6.0,08-01,0.9569644927978521
06-03,-0.6798286437988281,-4.079715728759766,-3.826953887939453,3.5770530700683523,6.433540344238281,6.5830535888671875,-10.388206481933594,2.0283355712890625,5.8072128295898295,9.99733734130858,3.0621261596679688,-6.368377685546875,7.0,5.0,08-02,1.012131373087562
06-04,-0.06579971313476562,-2.4233551025390625,-3.3166351318359304,4.699077606201172,6.244171142578125,6.8521881103515625,-8.115913391113281,-2.2761611938476562,5.160423278808594,6.7715606689453125,1.7812271118164062,-8.053153991699219,6.0,6.0,08-03,0.6048024495442714
06-05,0.3088836669921946,0.6882667541503977,-4.417087554931626,4.024375915527351,7.9253997802734375,1.5391616821289062,-11.529281616210938,-1.1520538330078125,3.124969482421875,8.769195556640625,3.9481735229492188,-11.871841430664055,8.0,4.0,08-04,0.11318016052246449
06-06,1.4050788879394673,0.3207283020019531,-4.978717803955071,2.6244583129882955,9.989269256591797,-1.079559326171875,-11.698860168457031,1.1905441284179688,1.5774612426757812,9.189735412597642,-2.8276824951171875,-15.09724044799804,7.0,5.0,08-05,-0.782065391540525
06-07,1.7659149169921946,0.9106292724609375,-4.518291473388672,0.3900337219238281,9.491046905517578,2.2469406127929688,-11.41796875,-2.7218093872070312,4.1218109130859375,7.823455810546875,-1.8024520874023438,-13.028076171875,7.0,5.0,08-06,-0.5615638097127272
06-08,2.0230140686035227,-1.0015068054199219,-4.924022674560554,5.998821258544922,10.512443542480462,-0.70770263671875,-12.026580810546875,-2.6652450561523438,0.9068527221679688,4.702583312988281,-5.723419189453125,-10.760902404785156,5.0,7.0,08-07,-1.1388053894042975
06-09,1.595489501953132,-0.2991828918457031,-8.434040069580078,6.429405212402351,10.068496704101555,-2.556640625,-12.007881164550781,-0.16352081298828125,0.510833740234375,5.8038482666015625,-6.419105529785156,-8.167869567871094,5.0,7.0,08-08,-1.136680603027343
06-10,1.3254890441894602,-2.8007087707519602,-5.285686492919922,7.808952331542969,11.455886840820305,-1.7955780029296875,-13.241424560546875,8.27557373046875,-0.04117584228515625,6.311180114746108,-7.124443054199219,-4.396186828613281,5.0,7.0,08-09,0.04098987579345762
06-11,0.5876312255859375,-4.737583160400391,-7.278705596923828,7.422676086425781,12.615196228027344,-3.6610946655273438,-11.976936340332031,8.908149719238281,1.366546630859375,4.7222061157226705,-8.376441955566406,0.1427154541015554,7.0,5.0,08-10,-0.02213668823242128
06-12,-1.2250175476074148,-4.016693115234375,-6.246753692626953,6.394542694091797,12.375030517578125,-5.063148498535156,-14.600730895996094,8.643638610839844,0.6056137084960938,4.282524108886719,-6.960731506347656,-3.3112831115722656,5.0,7.0,08-11,-0.7602507273356114
06-13,0.05455398559569602,-3.6718406677246094,-8.01385498046875,7.069244384765625,11.757575988769531,-5.6832427978515625,-11.960861206054688,7.736839294433594,-0.03997802734375,4.4928131103515625,-5.651741027832031,-1.3241386413574219,5.0,7.0,08-12,-0.436219215393067
06-14,-1.0459823608398438,-5.282703399658203,-8.159740447998047,6.955825805664055,12.61214828491211,-5.209411621093736,-10.996429443359375,6.2378997802734375,1.5075225830078125,4.7406997680664205,-5.337028503417969,-2.353771209716797,5.0,7.0,08-13,-0.5275808970133445
06-15,-0.8520240783691406,-5.921592712402344,-7.175052642822266,6.221916198730469,11.840827941894531,-6.705284118652315,-8.533866882324219,6.7469635009765625,2.1319580078125,8.382926940917969,-7.0269775390625,-2.68048095703125,5.0,7.0,08-14,-0.2975571950276669
06-16,0.22354507446289062,-5.9351806640625,-3.7924728393554688,6.781299591064453,11.600349426269531,-7.021186828613281,-9.3375244140625,9.689926147460938,0.1656951904296875,4.8351287841796875,-6.447242736816406,-5.027957916259766,6.0,6.0,08-15,-0.3554684321085612
06-17,0.4980621337890554,-6.597900390625,-3.6230506896972656,7.264133453369141,10.749359130859375,-5.4990615844726705,-8.346961975097656,9.889610290527344,0.0792999267578125,6.337944030761719,-9.829010009765625,-2.9456748962402344,6.0,6.0,08-16,-0.16860421498616715
06-18,1.6380043029785156,-7.210361480712891,-2.0304527282714844,7.020404815673828,9.968776702880852,-6.566390991210966,-8.384803771972656,7.107322692871094,-0.84332275390625,-0.965538024902358,-12.554542541503906,-5.04102706909179,4.0,8.0,08-17,-1.4884942372640009
06-19,2.222154617309574,-7.423397064208984,-2.811267852783203,6.460453033447266,9.705524444580078,-10.912414550781264,-7.646087646484375,6.833366394042969,-2.7836761474609375,-1.4052047729492472,-12.891624450683594,-3.8777122497558594,4.0,8.0,08-18,-2.044157187143965
06-20,2.034761428833008,-6.937858581542969,-3.0760955810546875,7.842006683349609,11.917984008789062,-10.928840637207031,-7.393646240234375,6.795600891113281,-2.5748062133789062,-3.6513442993164205,-15.665542602539062,-5.411327362060547,4.0,8.0,08-19,-2.25409237543742
06-21,2.2557621002197266,-7.759185791015625,-3.6641807556152344,11.345069885253906,11.681793212890625,-11.01303100585936,-7.01910400390625,5.174110412597656,-1.8817672729492188,-0.49655914306640625,-15.604698181152344,-5.599433898925781,4.0,8.0,08-20,-1.8817687034606922
06-22,2.9278202056884766,-5.874244689941406,-3.2766799926757812,10.913799285888672,11.767890930175781,-9.526435852050781,-10.146469116210938,6.409088134765625,-3.9447479248046875,-3.413360595703125,-12.035369873046875,-6.332054138183594,4.0,8.0,08-21,-1.8775636355082195
06-23,3.0133266448974574,-6.0509490966796875,-5.647373199462891,11.41732025146485,12.660430908203125,-9.294143676757798,-10.809951782226562,6.9869537353515625,-3.3643722534179688,-1.8076095581054688,-13.117530822753906,-6.371341705322266,4.0,8.0,08-22,-1.865436712900796
06-24,2.99981689453125,-5.861865997314453,-4.81317138671875,11.0494384765625,11.374763488769531,-5.219703674316392,-10.389434814453125,10.258323669433594,-3.3650665283203125,-1.1184158325195455,-12.605430603027344,-2.923786163330078,4.0,8.0,08-23,-0.8845443725585938
06-25,2.2930202484130824,-8.258880615234368,-6.309368133544922,11.113822937011719,10.109245300292969,-8.00405120849608,-10.062957763671875,12.029571533203125,-2.8419570922851562,0.633270263671875,-12.104629516601562,-6.167072296142585,5.0,7.0,08-24,-1.4641655286153148
06-26,3.7803726196289134,-6.142627716064446,-5.113048553466797,11.545272827148438,9.32405853271485,-7.530799865722642,-12.19708251953125,12.067352294921875,-2.0144424438476562,-2.0907669067382812,-15.042015075683594,-4.935039520263672,4.0,8.0,08-25,-1.529063860575355
06-27,4.0684165954589915,-7.558372497558594,-4.6792564392089915,10.732845306396491,10.895957946777344,-8.775405883789062,-15.749122619628906,11.613945007324219,-2.5935745239257812,-6.152915954589844,-15.750442504882812,-4.878578186035163,4.0,8.0,08-26,-2.4022086461385093
06-28,3.427940368652351,-8.080223083496094,-5.627460479736335,10.120777130126953,11.613197326660156,-8.170463562011719,-16.59181976318358,8.634902954101562,-3.5619354248046875,-6.622535705566406,-20.394676208496094,-4.829074859619155,4.0,8.0,08-27,-3.3401142756144204
06-29,3.233989715576172,-5.7331390380859375,-5.942016601562514,8.722476959228516,10.163200378417969,-6.813941955566392,-14.129280090332031,7.041656494140625,-4.958412170410156,-6.496795654296889,-19.844139099121094,-5.93791580200196,4.0,8.0,08-28,-3.391193072001141
06-30,2.8019638061523438,-4.885833740234375,-7.36100769042968,9.379070281982422,9.783988952636719,-7.547943115234375,-15.344123840332031,6.6071014404296875,-5.55670166015625,-3.4174575805664205,-20.414199829101562,-6.929943084716797,4.0,8.0,08-29,-3.57375717163086
07-01,3.197998046875,-5.58869934082032,-5.964881896972656,9.218109130859375,11.250030517578125,-7.2602310180664205,-13.68072509765625,5.258872985839844,-8.368850708007812,-4.068351745605483,-19.57360076904297,-6.144176483154297,4.0,8.0,08-30,-3.4770421981811555
07-02,4.002510070800781,-3.991901397705071,-5.261554718017578,8.864032745361321,10.063018798828125,-6.963218688964844,-9.092826843261719,8.069976806640625,-8.606636047363281,-3.2930145263672017,-14.247756958007812,-5.119277954101555,4.0,8.0,08-31,-2.131387392679851
07-03,4.853328704833977,-5.511035919189453,-4.964756011962891,6.133056640624986,9.92447662353515,-7.445846557617173,-7.12762451171875,7.0592803955078125,-8.112045288085938,-3.3216781616210938,-13.901046752929688,-3.7637977600097656,4.0,8.0,09-01,-2.1814740498860687
07-05,3.667112350463867,-4.431064605712891,-4.786674499511719,7.459533691406243,7.8030548095703125,-5.319183349609389,-8.335517883300781,5.5668182373046875,-6.146827697753906,-4.0767669677734375,-13.336326599121094,-4.75382995605468,4.0,8.0,09-03,-2.2241393725077323
07-06,3.3513946533203125,-4.431064605712891,-4.344463348388672,7.090488433837891,8.08010101318358,-7.3353729248046875,-6.7530975341796875,5.5668182373046875,-4.56134033203125,-5.032379150390625,-15.138206481933594,-6.248779296875,4.0,8.0,09-04,-2.4796584447224945
07-07,4.273950576782227,-6.220851898193359,-4.927986145019531,7.808570861816399,8.718338012695298,-7.3074951171875,-8.276321411132812,6.6509552001953125,-3.1254501342773438,-7.384613037109375,-15.196189880371094,-3.989696502685547,4.0,8.0,09-05,-2.414732456207277
07-08,3.73842620849609,-7.3173675537109375,-4.719165802001953,8.27762222290039,9.689521789550767,-7.53955078125,-6.192375183105469,5.83087158203125,-3.6179580688476562,-7.911071777343736,-13.804832458496094,-3.331615447998047,4.0,8.0,09-06,-2.2414579391479497
07-09,3.355899810791012,-7.22705078125,-4.794376373291023,7.918941497802734,8.553337097167983,-8.077842712402358,-6.9493255615234375,5.831581115722656,-3.40869140625,-7.710052490234375,-12.841743469238281,-0.2867698669433594,4.0,8.0,09-07,-2.136341094970704
07-10,3.337741851806644,-6.832309722900391,-5.42906570434571,8.901180267333984,8.530242919921875,-9.500999450683594,-6.482574462890625,11.423614501953125,-1.5254287719726562,-8.512924194335938,-14.296005249023438,-1.8922271728515554,4.0,8.0,09-08,-1.8565629323323565
07-11,3.0594215393066406,-7.567420959472663,-3.735027313232429,7.739940643310547,8.355278015136719,-7.7555999755859375,-6.6985321044921875,10.941856384277344,-2.4843063354492188,-6.3050308227539205,-14.44036865234375,-1.4403305053710938,4.0,8.0,09-09,-1.6941766738891626
07-12,4.489217758178711,-6.859527587890618,-3.6803321838378906,9.900489807128906,7.953620910644517,-13.151725769042955,-5.977569580078125,8.830108642578125,-2.4273300170898438,-8.095741271972685,-13.686538696289062,-3.727302551269524,4.0,8.0,09-10,-2.2027192115783705
07-13,4.850046157836914,-7.434959411621087,-3.776203155517578,9.173938751220696,9.300315856933594,-13.244636535644531,-6.661109924316406,9.899398803710938,-3.0531845092773438,-10.82122802734375,-8.176162719726562,-2.707569122314453,4.0,8.0,09-11,-1.8876128196716309
07-14,4.4720306396484375,-7.428169250488274,-3.406341552734375,8.810665130615227,9.230934143066406,-12.594261169433594,-7.614288330078125,10.20169067382814,-4.841361999511719,-9.849647521972656,-8.079536437988281,-4.996116638183594,4.0,8.0,09-12,-2.174533526102701
07-15,3.5902557373046875,-7.632362365722656,-7.246479034423835,8.824455261230469,10.918991088867188,-10.619857788085938,-5.917625427246094,8.07635498046875,-3.77606201171875,-8.030967712402344,-7.180946350097656,-5.17291259765625,4.0,8.0,09-13,-2.013929684956869
07-16,3.4143257141113175,-4.573944091796875,-7.0364341735839915,9.077365875244134,10.447288513183594,-14.020423889160156,-4.063690185546875,9.190971374511719,-3.262451171875,-7.341789245605483,-5.768333435058594,-9.722114562988295,4.0,8.0,09-14,-1.9716024398803755
07-17,2.8685989379882812,-4.410614013671875,-6.744194030761726,8.157661437988281,9.859954833984375,-11.604736328125,-3.1366958618164062,6.753883361816406,-0.76092529296875,-7.064193725585966,-4.01947021484375,-8.029159545898438,4.0,8.0,09-15,-1.5108242034912138
07-18,2.1604652404785014,-4.451442718505859,-6.287574768066413,7.486305236816406,9.707328796386719,-13.676681518554688,-1.4044876098632812,4.91192626953125,-0.5706939697265625,-6.355865478515639,-5.555763244628906,-8.44497299194336,4.0,8.0,09-16,-1.873454729715986
07-19,3.4098358154296804,-4.732791900634766,-7.433692932128913,7.785198211669922,8.218147277832031,-13.230690002441406,-0.6366958618164062,6.054878234863281,-3.053192138671875,-5.5230789184570455,-7.391578674316406,-9.01919174194336,4.0,8.0,09-17,-2.1294043858846052
07-20,4.929824829101555,-5.703849792480469,-7.333232879638672,8.45657730102539,7.542953491210952,-10.155288696289062,1.8820266723632812,5.98876953125,-1.788177490234375,-4.336143493652344,-1.5169601440429688,-6.771816253662109,5.0,7.0,09-18,-0.733776410420735
07-21,4.799022674560554,-4.918842315673828,-6.92228698730468,8.829044342041016,8.454032897949233,-10.183174133300781,2.4438323974609375,8.935905456542969,0.2948455810546875,-5.09235382080081,-5.787651062011719,-9.464702606201172,6.0,6.0,09-19,-0.7176939646402994
07-22,5.33575439453125,-5.535938262939453,-7.4930458068847585,8.589935302734375,10.313163757324233,-10.5548095703125,3.6048736572265625,9.436561584472656,-0.247283935546875,-3.2640838623047017,-5.6910400390625,-9.236995697021477,5.0,7.0,09-20,-0.39524237314859906
07-23,3.9510879516601562,-5.998802185058587,-8.424545288085938,7.527698516845703,10.706260681152344,-9.997337341308594,3.1273574829101562,10.673988342285156,-0.17121124267578125,-2.574890136718764,-6.058197021484375,-7.583644866943359,5.0,7.0,09-21,-0.4018529256184902
07-24,3.233924865722649,-7.255733489990234,-8.716781616210938,8.309440612792969,12.819747924804688,-10.424743652343736,1.0299911499023438,11.00457763671875,0.8274993896484375,-5.216773986816406,-6.145164489746094,-8.246967315673828,6.0,6.0,09-22,-0.7317485809326166
07-25,3.1482391357421875,-6.3981170654296875,-10.401691436767578,8.222068786621094,10.803398132324219,-9.70932006835936,3.1179962158203125,13.951736450195312,-0.6562957763671875,-7.858665466308594,-3.7296066284179688,-9.652812957763672,5.0,7.0,09-23,-0.7635892232259103
07-26,4.388576507568359,-6.0623321533203125,-10.56606674194336,7.417320251464844,10.696998596191406,-10.824279785156236,1.9007415771484375,12.345909118652344,-0.5421676635742188,-9.237045288085938,-3.178863525390625,-10.009223937988281,5.0,7.0,09-24,-1.1392027537027982
07-27,3.567699432373047,-4.628421783447273,-9.42453384399414,5.950435638427727,11.168716430664062,-11.660461425781236,-0.14044189453125,12.978790283203125,-1.9879074096679545,-9.275329589843736,-3.6619796752929688,-12.058589935302734,4.0,8.0,09-25,-1.5976686477661108
07-28,3.955585479736328,-4.628421783447273,-12.182479858398438,6.276897430419922,12.662521362304688,-10.452621459960923,-3.5674285888671875,12.005851745605469,-0.8274993896484375,-5.657112121582031,-5.1789398193359375,-10.781448364257812,4.0,8.0,09-26,-1.5312579472859695
07-29,5.101207733154297,-4.950592041015625,-12.913074493408203,5.913619995117195,12.334159851074219,-11.242355346679688,-4.400749206542969,7.604034423828125,1.0938262939453267,-4.077720642089844,-6.908477783203125,-11.999187469482422,5.0,7.0,09-27,-2.0371090571085593
07-30,3.2249107360839844,-2.4457931518554688,-11.38797378540039,5.076705932617195,12.616249084472656,-10.67559814453125,-4.943824768066406,9.975013732910156,1.645500183105483,-4.393600463867202,-8.9761962890625,-9.831016540527337,5.0,7.0,09-28,-1.6763019561767567
07-31,2.214576721191399,-5.109416961669929,-10.506721496582031,5.789470672607429,11.973426818847656,-8.436416625976562,-4.119842529296875,9.31378173828125,2.0735015869140767,-3.4746627807617188,-8.773284912109375,-9.3062973022461,5.0,7.0,09-29,-1.5301570892333984
08-01,1.5696258544921804,-4.86891174316407,-12.479305267333984,4.667446136474609,9.25872802734375,-5.723388671875,-6.563713073730469,14.414619445800781,2.7202911376953125,-0.2488861083984517,-5.7779998779296875,-8.840988159179695,5.0,7.0,09-30,-0.9893735249837269
08-02,2.2506866455078054,-3.9432220458984446,-11.378852844238288,7.854183197021484,8.185783386230469,-9.235488891601562,-5.90826416015625,13.290512084960938,4.755744934082031,1.024200439453125,-7.227325439453125,-10.078525543212898,6.0,6.0,10-01,-0.8675473531087263
08-03,3.0941085815429616,-3.57568359375,-10.817222595214844,2.43719482421875,6.9833526611328125,-11.883491516113281,-3.4082489013671875,10.947914123535156,7.5331268310546875,4.939201354980469,-4.6185302734375,-10.326034545898445,6.0,6.0,10-02,-0.724526087443035
08-04,2.7332725524902344,-4.165584564208984,-8.378890991210945,3.885711669921868,8.310661315917969,-13.899681091308594,-3.6891403198242188,10.211128234863281,5.982749938964844,5.350799560546889,-7.169349670410156,-12.395198822021484,6.0,6.0,10-03,-1.1019601821899414
08-05,2.4761734008789062,-4.29718017578125,-11.374286651611328,4.322566986083977,8.407783508300781,-10.945037841796875,-3.0805282592773438,6.187126159667969,7.1431655883789205,5.8389739990234375,-8.88922119140625,-14.662372589111328,6.0,6.0,10-04,-1.5727364222208653
08-06,1.27642822265625,-1.4021492004394531,-9.21905517578125,2.455585479736321,8.851730346679688,-9.096099853515625,-3.829620361328125,5.1480560302734375,6.496376037597656,6.202713012695327,-8.193534851074219,-15.870208740234368,6.0,6.0,10-05,-1.4316482543945301
08-07,2.719745635986328,-1.9148826599121094,-6.8218421936035085,1.0760383605957031,7.4643402099609375,-8.36209869384767,3.0899200439453125,4.2317962646484375,6.3346710205078125,5.695381164550781,-7.488197326660156,-13.86044692993164,7.0,5.0,10-06,-0.652964591979981
08-08,2.8460235595703267,-1.1843414306640625,-5.3880653381347585,1.4623146057128906,6.113868713378906,-10.415458679199219,4.101142883300781,6.347694396972656,4.926948547363281,7.284355163574219,-9.198417663574219,-13.860446929931634,7.0,5.0,10-07,-0.580365180969236
08-09,3.7796821594238352,-0.64434814453125,-6.4200172424316335,0.9243011474609446,7.2839508056640625,-12.273689270019531,6.1517181396484375,6.612205505371094,5.6878814697265625,7.5810623168945455,-8.164566040039048,-14.325759887695312,7.0,5.0,10-08,-0.3172982533772745
08-10,3.8383140563964915,-0.9892005920410156,-4.652915954589837,-0.036777496337890625,6.506980895996094,-13.648788452148438,7.0225067138671875,7.519004821777344,7.0670394897460795,7.925666809082031,-7.884346008300781,-13.612937927246094,6.0,6.0,10-09,-0.07878780364990234
08-11,4.938850402832031,0.6216621398925781,-6.6665802001953125,0.239105224609375,5.873405456542969,-12.766136169433594,6.058074951171875,6.479942321777344,7.285820007324219,7.973533630371094,-8.879554748535142,-12.583305358886719,8.0,4.0,10-10,-0.11876519521077356
08-12,4.744892120361328,1.452056884765632,-8.789840698242188,0.8047332763671875,5.901145935058594,-11.270263671875014,3.5955123901367188,4.949699401855469,8.094291687011719,10.385688781738281,-9.01483154296875,-12.256595611572266,8.0,4.0,10-11,-0.11695925394694069
08-13,6.368625640869141,2.400432586669929,-7.707660675048828,0.09195709228515625,6.141624450683594,-10.954360961914048,6.89141845703125,6.366600036621094,8.360610961914062,4.757316589355469,-9.594566345214844,-9.652812957763665,8.0,4.0,10-12,0.2890987396240258
08-14,6.724941253662109,2.482105255126953,-7.374332427978516,-0.39087677001953125,6.99261474609375,-11.121589660644531,6.9007720947265625,5.1952972412109375,8.503288269042983,3.2545013427734375,-6.212799072265625,-10.306232452392578,7.0,5.0,10-13,0.38730748494466266
08-15,8.452404022216797,2.187164306640625,-7.004474639892578,-0.14714813232421875,8.449378967285156,-15.107498168945312,5.6367340087890625,5.4314422607421875,9.425910949707045,10.557983398437514,-5.826316833496094,-8.246967315673828,7.0,5.0,10-14,1.1507177352905298
08-16,8.023929595947266,2.1848793029785156,-6.223659515380859,-0.5334091186523438,10.868148803710938,-20.13406372070314,4.934486389160156,5.7053985595703125,11.366264343261733,5.465660095214844,-6.444694519042969,-7.821250915527344,7.0,5.0,10-15,0.6159741083780924
08-17,8.907115936279297,1.6993408203125,-5.958831787109375,-1.108215332031243,13.120353698730469,-20.05972290039064,5.5611724853515625,5.7431640625,12.62176513671875,7.092887878417969,-9.295028686523438,-8.831085205078118,7.0,5.0,10-16,0.7910763422648112
08-18,8.686115264892578,2.5206680297851562,-3.3109893798828196,0.39204025268553977,12.702766418457031,-15.872154235839858,5.1866302490234375,3.7187881469726562,11.91793823242186,7.4662246704101705,-8.270835876464844,-8.642978668212884,8.0,4.0,10-17,1.3745177586873354
08-19,8.014057159423828,3.4692344665527344,-1.5633125305175852,1.9994316101074219,13.77679443359375,-17.358749389648438,8.313995361328125,2.7252655029296875,13.02059936523436,7.379920959472642,-9.029579162597656,-7.910358428955071,8.0,4.0,10-18,1.9031082789103166
08-20,8.89935302734375,3.9827308654785227,-2.1820602416992188,2.6902732849121023,12.884254455566406,-17.59104156494142,9.908271789550781,2.620208740234375,13.249259948730469,5.34698486328125,-7.947418212890625,-5.580402374267578,8.0,4.0,10-19,2.190034548441568
08-21,7.744453430175774,4.42832946777343,-0.07290267944335938,3.058155059814453,14.169921875,-14.62136840820314,11.996986389160156,2.0051498413085938,12.49655151367189,4.657791137695327,-8.459518432617188,-5.537487030029297,8.0,4.0,10-20,2.6555051803588867
08-22,8.422130584716797,3.5875473022460866,0.7735176086425781,2.9937705993652344,12.569358825683594,-13.813102722167969,14.716720581054688,3.8314056396484375,11.973442077636733,2.9061050415039062,-8.175338745117188,-7.6981163024902415,9.0,3.0,10-21,2.673953374226888
08-23,8.449237823486321,3.87841796875,-0.4228019714355469,3.641803741455078,12.653724670410156,-13.931015014648438,14.77301025390625,3.7936248779296875,11.145927429199233,2.2620468139648295,-6.80303955078125,-7.608116149902337,8.0,4.0,10-22,2.6527350743611655
08-24,7.785144805908196,5.294162750244148,-0.8565940856933523,1.9943428039550781,12.672508239746094,-10.886688232421875,13.750411987304688,4.247032165527344,10.754486083984375,0.4035186767577983,-4.161918640136719,-8.768115997314446,8.0,4.0,10-23,2.6856908798217773
08-25,8.425621032714837,5.816013336181648,-0.3411102294921875,1.432628631591804,13.056739807128906,-14.573394775390625,14.59310913085936,4.558525085449219,11.888145446777358,-2.0972137451171875,-2.308738708496108,-8.817619323730455,7.0,5.0,10-24,2.6360588073730473
08-26,8.619571685791016,5.597248077392585,0.4335441589355469,0.5345306396484375,9.950340270996094,-15.929916381835952,12.130569458007812,3.6499862670898438,13.067764282226562,-7.0164947509765625,-0.00923156738282671,-7.708778381347649,8.0,4.0,10-25,1.943261146545409
08-27,8.406494140625,3.6585845947265554,-0.13225173950195312,0.7832298278808594,10.329551696777344,-15.195915222167969,9.53125,2.4971771240234375,12.600906372070327,-11.791976928710938,0.560829162597642,-7.571933746337891,8.0,4.0,10-26,1.139662106831868
08-28,7.241168975830085,4.561702728271484,-1.7610282897949219,0.9441909790039062,8.863510131835938,-13.753303527832031,7.7609100341796875,1.5982513427734375,12.286468505859375,-11.141082763671875,-0.2797698974609517,-8.239376068115234,7.0,5.0,10-27,0.6734701792399083
08-29,6.765876770019531,3.7845382690429688,-1.8067665100097656,1.2982673645019602,11.343780517578125,-16.3479766845703,4.910682678222656,1.0967254638671875,12.524253845214844,-11.916419982910156,-2.1348190307617045,-9.958045959472656,7.0,5.0,10-28,-0.036658604939775685
08-30,6.725227355957031,3.7890853881835938,-2.103565216064453,2.291534423828125,12.292884826660156,-17.74847412109375,4.2633514404296875,2.107421875,12.0296630859375,-11.101097106933594,-1.3597793579101562,-10.308044433593743,7.0,5.0,10-29,0.07318401336669982
08-31,5.5958099365234375,4.102180480957031,-2.281646728515625,1.1833114624023509,11.182426452636719,-14.890365600585938,6.224151611328125,3.599884033203125,11.507804870605469,-10.987197875976562,-2.6892547607422017,-12.378047943115241,7.0,5.0,10-30,0.014087994893390743
09-01,6.218229293823242,2.7091140747070312,0.7323570251464844,1.5064239501953125,12.41387939453125,-13.37286376953125,8.368362426757812,3.16473388671875,12.356895446777344,-14.795082092285156,-1.9518661499023438,-12.249343872070327,8.0,4.0,10-31,0.42506996790567914
09-02,6.533946990966797,2.540637969970703,3.204761505126953,2.2755775451660085,10.214836120605469,-13.37286376953125,6.785942077636719,1.9351882934570312,13.157600402832031,-11.467605590820327,-4.07672119140625,-10.754394531250007,8.0,4.0,11-01,0.5814088185628231
09-03,7.315395355224609,2.5139808654785227,1.2087249755859375,3.380939483642578,10.214836120605469,-13.400741577148438,7.7142791748046875,-4.0164337158203125,13.481559753417969,-11.630630493164077,-4.07672119140625,-8.730075836181648,7.0,5.0,11-02,0.33125940958658734
09-04,5.106779098510742,3.408142089843764,-0.4154815673828125,3.380939483642578,9.24365234375,-11.33978271484375,8.548194885253906,-3.3161849975585938,15.787353515625014,-11.630630493164077,-5.46807861328125,-8.469974517822259,6.0,6.0,11-03,0.4029107093811053
09-05,3.817035675048828,4.167125701904304,4.232913970947266,3.7396202087402344,7.933937072753906,-9.234672546386719,8.033622741699219,-3.5243759155273438,15.787353515625014,-11.831649780273438,-5.797859191894531,-5.273002624511726,7.0,5.0,11-04,1.0041707356770846
09-06,4.282356262207031,0.031387329101569605,4.232913970947266,2.139636993408203,8.068305969238281,-7.342529296875014,10.266510009765625,-3.5243759155273438,13.90409088134767,-8.057571411132798,-4.824195861816406,-5.40300369262696,7.0,5.0,11-05,1.147793769836427
09-07,5.321422576904297,0.031387329101569605,2.5388755798339844,1.1497611999511719,9.249786376953125,-10.172691345214858,8.408912658691406,-3.0426177978515625,13.819572448730469,-11.425186157226562,-5.7994842529296875,-4.383003234863288,7.0,5.0,11-06,0.474727948506672
09-08,5.321422576904297,-0.6765060424804759,5.012771606445305,2.1120033264160227,7.522956848144531,-4.7543716430664205,8.408912658691406,-3.0124053955078267,17.02751922607422,-7.445915222167969,-5.489006042480469,-4.383003234863288,6.0,6.0,11-07,1.6370315551757777
09-09,4.960594177246094,-0.4271888732910156,7.562171936035156,4.493122100830078,6.092445373535156,-4.661460876464844,9.092453002929688,-0.6513519287109375,18.27760314941405,-6.506156921386719,-8.001976013183594,-5.402736663818359,6.0,6.0,11-08,2.068959871927896
09-10,5.120460510253913,-1.56591796875,6.968112945556641,3.5811996459960938,6.161827087402344,-5.311836242675781,8.034378051757812,0.579315185546875,17.448654174804688,-4.7609100341796875,-8.098602294921875,-2.0212135314941335,7.0,5.0,11-09,2.1779556274414076
09-11,6.5609588623046875,-1.2204399108886719,7.3066864013671875,3.5674095153808523,4.4737701416015625,-3.6154708862304545,7.7606048583984375,0.5130691528320312,15.771705627441406,-6.57958984375,-8.9971923828125,-4.080741882324212,7.0,5.0,11-10,1.7883974711100272
09-12,6.972885131835945,-0.07061767578125,5.623020172119141,3.3144989013671875,1.7427444458007812,-1.4588165283203125,8.528587341308594,0.579315185546875,15.258094787597656,-7.268768310546861,-4.471534729003906,1.5304527282714844,8.0,4.0,11-11,2.5233217875162777
09-13,6.421730041503913,0.7883567810058594,5.330780029296875,0.3546295166015625,2.172576904296875,-2.9845733642577983,9.663780212402344,3.0164031982421875,12.756568908691406,-11.08586883544919,-4.2301483154296875,3.410449981689446,9.0,3.0,11-12,2.1345570882161495
09-14,6.001586914062507,0.8291854858398438,4.8741607666015625,-1.343109130859382,2.6953811645507812,-2.7518234252929545,6.605323791503906,4.858360290527344,12.538543701171875,-11.601608276367188,-11.122856140136719,3.130451202392578,8.0,4.0,11-13,1.2261330286661796
09-15,4.752216339111328,1.11053466796875,4.49223327636718,-0.6715316772460938,0.6815338134765625,-3.8596878051757812,5.837532043457031,1.7398452758789062,10.978340148925781,-15.418617248535142,-11.637092590332031,3.704669952392578,8.0,4.0,11-14,0.14249801635742246
09-16,3.232227325439453,1.4782218933105469,6.418170928955071,-0.43204498291015625,1.7740859985351562,-6.935089111328125,3.3188095092773438,0.5665206909179688,11.025688171386719,-18.036506652832017,-12.296852111816406,1.4572944641113281,8.0,4.0,11-15,-0.7024561564127598
09-17,2.9019546508789062,1.3996200561523366,7.404243469238281,-1.3163223266601562,0.863006591796875,-6.907203674316406,2.0517196655273438,2.637298583984375,9.129608154296875,-18.468009948730455,-8.026161193847656,-0.2894096374511719,7.0,5.0,11-16,-0.7183046340942377
09-18,3.059562683105476,2.1985244750976634,6.759159088134766,-1.0772132873535156,-0.996124267578125,-8.304100036621094,5.760643005371094,4.425712585449219,8.07199859619142,-20.296279907226562,-8.122772216796875,2.3657989501953125,7.0,5.0,11-17,-0.5129241943359352
09-19,4.238250732421882,1.5713577270507812,5.995082855224609,-0.01497650146484375,-0.40866851806640625,-5.586708068847685,7.900177001953125,5.040779113769531,7.995925903320327,-20.9854736328125,-8.655258178710938,6.926860809326172,7.0,5.0,11-18,0.33477910359700463
09-20,3.989776611328125,1.1714057922363281,6.287319183349609,1.2838096618652415,1.2431869506835938,-4.828208923339844,6.202064514160156,4.7101898193359375,6.997215270996108,-16.691146850585923,-6.969459533691406,6.926860809326172,9.0,3.0,11-19,0.8602511088053415
09-21,3.4295997619628906,0.31378936767578125,7.97222900390625,1.3347549438476491,-0.07621002197265625,-3.5993194580077983,8.2379150390625,1.763031005859375,7.3397216796875,-13.468711853027344,-8.282814025878906,6.926860809326172,8.0,4.0,11-20,0.9909038543701177
09-22,2.1892623901367188,-0.02199554443359375,9.343315124511719,2.5685462951660227,-0.36788177490234375,-2.98486328125,9.455169677734375,-0.1026153564453125,6.912040710449219,-17.31578826904297,-9.117240905761719,7.283271789550781,6.0,6.0,11-21,0.6534350713094081
09-23,3.0101394653320312,1.1727943420410156,11.102039337158203,2.5685462951660227,-0.8169631958007812,-2.148681640625,11.496353149414062,3.3654022216796875,5.066490173339844,-17.31578826904297,-7.506622314453125,9.332637786865234,8.0,4.0,11-22,1.6105289459228522
09-24,3.1621475219726634,0.451904296875,8.913188934326172,2.0112571716308594,-2.3107681274414062,-3.3565216064453125,8.944915771484375,6.212799072265625,5.066490173339844,-20.5281982421875,-5.989662170410156,9.065326690673821,8.0,4.0,11-23,0.9702399571736654
09-25,3.459503173828125,0.6330909729003906,8.913188934326172,2.3745346069335866,-1.9824066162109375,-0.6692962646484375,9.3662109375,6.212799072265625,5.2761077880859375,-22.107589721679688,-4.260124206542969,8.273303985595703,8.0,4.0,11-24,1.290776888529459
09-26,3.6952743530273438,0.6330909729003906,8.441944122314453,3.2114486694335866,-1.2042999267578125,0.05973052978515625,12.456031799316406,5.83428955078125,4.724433898925781,-21.79170989990233,-1.4143600463867188,8.283206939697266,9.0,3.0,11-25,1.9107567469278977
09-27,3.6952743530273438,-1.0939292907714844,7.560691833496094,2.3566780090332102,-0.186431884765625,-1.960540771484375,12.456031799316406,6.495521545410156,4.2964324951171875,-19.918899536132827,-1.6282577514648438,8.283206939697266,7.0,5.0,11-26,1.6963148117065423
09-28,3.8624267578125,-1.3344345092773438,9.533275604248047,3.2769813537597727,0.03972625732421875,-1.960540771484375,14.867164611816406,1.394683837890625,4.705284118652344,-25.546836853027344,-0.37969970703125,8.283206939697266,8.0,4.0,11-27,1.3951031366984055
09-29,3.181365966796875,-2.2601242065429688,8.224304199218764,1.2151870727539062,0.03972625732421875,-4.585945129394531,14.211715698242188,2.002105712890625,4.8480987548828125,-25.62024688720703,-0.37969970703125,9.520744323730469,8.0,4.0,11-28,0.8664360046386731
09-30,2.3379440307617188,-1.3744888305664062,9.150562286376953,0.4920921325683594,0.04433441162109375,-1.9379425048828125,11.711700439453125,-0.5310974121093608,2.6764068603515625,-26.18600463867189,-1.9417953491210938,9.768253326416016,7.0,5.0,11-29,0.3508303960164388
10-01,3.971538543701172,-3.2264862060546875,12.497238159179688,1.0770034790039062,-1.2829742431640625,0.0782470703125,9.461555480957031,-2.339447021484375,2.6954498291015625,-24.44076538085936,0.6090240478515625,10.837486267089844,8.0,4.0,11-30,0.828155835469565
10-02,2.981971740722649,-2.8859596252441406,13.705097198486328,0.6401481628417969,-1.380096435546875,-2.6025619506835938,4.7957763671875,-3.3140640258789062,3.324310302734361,-24.92893981933591,2.3288955688476562,10.886985778808594,7.0,5.0,12-01,0.295963605244955
10-03,1.8583602905273366,-3.0086593627929688,16.22601318359375,2.507129669189453,-2.4034576416015625,-8.990043640136719,2.7572021484375,6.224128723144517,3.971099853515625,-25.2926788330078,1.7509384155273438,9.253437042236321,8.0,4.0,12-02,0.40445582071939984
10-04,2.671527862548821,-1.7906570434570312,13.828800201416009,2.944896697998047,-4.355796813964844,-7.130851745605469,3.3388824462890625,7.140388488769517,4.132804870605469,-23.51889801025392,0.26677703857420454,9.253437042236321,8.0,4.0,12-03,0.5651092529296822
10-05,2.1293983459472585,-2.521198272705078,12.395023345947259,3.6300811767578125,-3.5418548583984375,-4.282051086425781,0.34607696533203125,5.024490356445298,5.657676696777358,-26.375099182128892,1.280845642089858,9.253437042236321,8.0,4.0,12-04,0.24973551432291727
10-06,1.19573974609375,-3.0611915588378906,11.046924591064453,3.4964599609375,-3.3196258544921875,-2.8855743408203125,-1.704498291015625,7.361328125,6.562232971191406,-25.207321166992173,-0.6693649291992188,9.71875,6.0,6.0,12-05,0.21115493774414182
10-07,1.1371078491210938,-2.0658607482910227,12.722721099853516,3.4688148498535156,-2.5557479858398438,-1.5104751586914062,-2.575286865234375,7.066818237304702,4.495155334472656,-20.60446929931642,2.503387451171861,9.005928039550781,7.0,5.0,12-06,0.9240077336629214
10-08,-1.21295166015625,-2.528800964355476,10.457500457763672,4.178092956542969,-1.9221725463867188,-2.39312744140625,-5.515144348144531,6.945220947265625,4.352226257324219,-24.478530883789062,3.4985961914062216,8.055500030517571,6.0,6.0,12-07,-0.04696591695150095
10-09,-1.077484130859375,-2.283294677734375,11.729408264160156,3.6124649047851562,-1.9499130249023438,1.1397857666015625,-6.227668762207031,6.481544494628906,2.4084930419921875,-26.89068603515625,3.6338729858398295,8.164398193359375,7.0,5.0,12-08,-0.1049232482910168
10-10,-1.4291343688964844,-3.0422630310058594,10.87841796875,4.3252410888671875,-4.304725646972656,1.0240859985351562,-9.072731018066406,6.065223693847656,2.1421737670898438,-21.262313842773438,1.9080886840820312,7.520881652832031,7.0,5.0,12-09,-0.4372545878092448
10-11,-2.3417091369628906,-3.274059295654297,10.545089721679688,4.007682800292969,-8.686958312988281,4.2805328369140625,-8.209571838378906,7.2365264892578125,1.9994964599609233,-18.48019409179686,4.849327087402344,7.520881652832031,7.0,5.0,12-10,-0.04607963562011719
10-12,-2.1429290771484375,-2.9791183471679688,10.17523193359375,4.025352478027337,-10.523887634277344,5.174278259277344,-7.018089294433594,7.0003814697265625,3.085235595703125,-17.59698486328125,6.407173156738281,7.520881652832031,7.0,5.0,12-11,0.26062711079915307
10-13,-1.7144546508789062,-2.9768333435058594,9.33797454833985,3.4450454711914062,-9.982231140136719,2.977142333984375,-6.3158416748046875,8.923149108886719,3.7521438598632812,-19.7922821044922,6.727348327636719,7.095165252685547,7.0,5.0,12-12,0.12302716573079368
10-14,-2.5976409912109375,-3.081371307373047,9.045162200927741,3.9056243896484375,-11.394233703613281,2.902801513671875,-6.942527770996094,11.326637268066406,3.811241149902358,-19.447082519531264,6.562416076660156,8.104999542236321,7.0,5.0,12-13,0.1830021540323893
10-15,-2.922924041748047,-4.22209548950196,8.985679626464844,4.831340789794922,-10.976646423339844,-1.2847671508789062,-8.406112670898438,11.402320861816406,2.925109863281264,-17.663467407226562,5.5382232666015625,7.269996643066406,6.0,6.0,12-14,-0.37694517771402936
10-16,-3.053936004638672,-4.83111572265625,7.819004058837891,3.2239494323730398,-12.050674438476562,-4.105628967285156,-11.830497741699219,13.46517944335939,2.6011505126953267,-17.577163696289034,6.296966552734375,7.930000305175781,6.0,6.0,12-15,-1.0093971888224242
10-17,-1.7889938354492259,-4.399356842041016,5.380435943603516,2.5331077575683594,-10.661834716796875,-4.515281677246094,-7.4585113525390625,9.869392395019531,2.3724899291992188,-15.544227600097642,9.644332885742188,9.159999847412116,6.0,6.0,12-16,-0.45070393880208215
10-18,-1.152008056640632,-5.0947265625,3.2712783813476562,1.7317352294921946,-11.467353820800781,-6.907905578613281,-7.0457305908203125,10.484451293945312,3.1251983642577983,-15.074356079101562,10.7213134765625,9.159999847412116,6.0,6.0,12-17,-0.687342007954916
10-19,-0.46983718872071023,-4.253944396972656,2.4248580932617188,2.726554870605476,-11.379386901855469,-6.786872863769531,-8.452987670898438,8.658195495605469,3.6968841552734233,-16.86751556396483,9.945121765136719,9.159999847412116,6.0,6.0,12-18,-0.966577529907226
10-20,-0.4969444274902344,-4.54481506347657,3.2483863830566406,4.080623626708977,-11.421089172363281,-1.508209228515625,-8.50927734375,8.525703430175781,1.6292953491210795,-19.21692657470703,10.818344116210938,9.069999694824212,6.0,6.0,12-19,-0.6937424341837595
10-21,0.16714859008789062,-3.767627716064453,3.2300872802734375,5.43928146362304,-10.333152770996094,-4.5525360107421875,-7.4866790771484375,9.576065063476562,2.801261901855483,-21.3265380859375,12.545387268066406,10.229999542236321,7.0,5.0,12-20,-0.28977521260579425
10-22,0.4879150390625,-2.5632591247558594,2.0542678833007812,4.76225280761718,-10.717384338378906,-0.8658294677734375,-11.727256774902344,9.330039978027344,4.2495269775390625,-22.314254760742188,10.692207336425795,8.419998168945312,7.0,5.0,12-21,-0.6826480229695632
10-23,1.7121810913086009,-2.7268829345703125,3.1523094177246094,5.660350799560547,-7.610984802246094,-0.8844146728515625,-13.134536743164062,9.02724456787108,6.259956359863281,-17.394973754882812,8.392700195312514,7.840000152587891,7.0,5.0,12-22,0.02441247304280658
10-24,3.5373611450195312,-2.640522003173828,3.2483863830566406,5.411651611328125,-7.45355224609375,2.718475341796875,-12.327674865722656,8.450035095214844,6.726814270019517,-12.619491577148438,9.003974914550767,10.419998168945312,8.0,4.0,12-23,1.2062880198160784
10-25,4.928794860839851,-2.640522003173828,4.877162933349609,5.50377273559571,-6.907279968261719,6.172416687011719,-12.740478515625,9.348960876464844,7.041252136230469,-16.666168212890625,9.877204895019531,10.419998168945312,8.0,4.0,12-24,1.6012595494588229
10-26,4.928794860839851,-1.8633575439453125,4.922901153564453,4.734619140625014,-6.43505859375,6.172416687011719,-12.740478515625,9.850486755371094,6.307594299316406,-16.12915802001953,11.264663696289077,10.419998168945312,8.0,4.0,12-25,1.7861185073852568
10-27,4.969444274902351,-1.8679046630859375,2.443145751953125,3.2608108520507812,-6.8517303466796875,7.42926025390625,-12.093147277832031,10.228965759277344,7.508125305175781,-14.172958374023452,11.963241577148452,10.7699966430664,8.0,4.0,12-26,1.9656041463216145
10-28,6.098861694335945,-1.2452735900878906,1.4411811828613281,2.8923492431640625,-6.5554351806640625,4.5711517333984375,-14.053947448730469,11.66726684570314,7.222282409667983,-18.39224243164064,12.380447387695327,12.840000152587898,8.0,4.0,12-27,1.5722201665242548
10-29,6.347316741943359,-1.9406204223632955,4.044452667236328,2.3304595947265625,-7.786888122558594,3.05364990234375,-11.09869384765625,10.985984802246094,9.413742065429688,-12.51400756835939,11.643058776855469,11.379997253417969,8.0,4.0,12-28,2.1548709869384743
10-30,8.547428131103516,-2.7041511535644602,4.383014678955078,2.3304595947265625,-5.5878448486328125,1.7036972045898438,-11.66159057617189,11.468582153320312,8.413291931152344,-15.841484069824219,13.767913818359375,11.10999679565429,8.0,4.0,12-29,2.160776138305662
10-31,8.113723754882812,-2.767761230468757,3.2071914672851634,2.3304595947265625,-4.805473327636719,-1.145111083984375,-14.616859436035156,10.62640380859375,8.089332580566406,-15.678459167480469,13.913475036621094,10.199996948242188,7.0,5.0,12-30,1.4555765787760417
11-01,7.815563201904297,-2.2178421020507884,4.831398010253913,2.187694549560547,-4.546195983886719,0.9403305053710938,-14.053939819335938,9.926155090332031,5.783538818359361,-17.356605529785156,11.633354187011719,10.199996948242188,8.0,4.0,12-31,1.2619539896647123
11-02,7.815563201904297,-2.976825714111328,0.18300247192383523,2.961437225341797,-6.6202392578125,0.9403305053710938,-14.053939819335938,10.134346008300781,5.1546783447265625,-13.003059387207031,9.168907165527344,10.199996948242188,8.0,4.0,01-01,0.8253498077392584
11-03,7.350242614746094,1.1589126586914062,-1.6425094604492045,0.8290061950683594,-7.45819091796875,-0.5771942138671875,-16.286827087402344,9.055610656738281,3.763580322265625,-18.056610107421875,8.441215515136719,10.329998016357422,7.0,5.0,01-02,-0.2577304840087879
11-04,6.311176300048828,1.5725021362304688,-1.6608161926269531,1.833038330078118,-7.2313385009765625,2.2529678344726562,-14.429229736328125,8.970436096191406,0.9051589965820455,-18.35387420654297,9.770462036132812,9.30999755859375,8.0,4.0,01-03,-0.06245994567871035
11-05,4.8700408935546875,1.2725334167480469,-1.2169990539550781,3.164081573486321,-5.504508972167969,-3.1653518676757812,-14.87957763671875,7.257713317871094,2.2295608520507955,-15.093505859375,9.459983825683594,9.75,7.0,5.0,01-04,-0.15466912587483664
11-06,3.1397781372070312,1.3134269714355469,0.12810897827149148,0.7829627990722656,-4.073997497558594,-6.423812866210952,-13.58486175537108,9.566574096679673,3.782646179199247,-16.03326416015625,11.972953796386719,10.7699966430664,8.0,4.0,01-05,0.11170927683512488
11-07,3.6051025390625,1.2179832458496094,0.19216537475585938,1.69488525390625,-3.0369949340820312,-6.805511474609375,-14.72006225585936,9.642288208007812,4.611595153808608,-17.77851104736328,9.120391845703125,5.039997100830078,8.0,4.0,01-06,-0.6013892491658505
11-08,3.0494232177734375,1.304351806640632,-0.1464080810546875,3.873371124267578,-2.9629135131835938,-11.00424957275392,-14.29787445068358,9.708534240722656,6.288543701171889,-14.268844604492202,9.983924865722656,5.039997100830078,7.0,5.0,01-07,-0.28601201375325463
11-09,3.1985206604003906,0.15452957153321023,1.5372581481933594,5.195194244384773,-3.4397659301757812,-13.303787231445327,-16.93416976928711,9.642288208007812,5.878837585449219,-11.113983154296875,14.185142517089844,5.039997100830078,8.0,4.0,01-08,0.003338495890299479
11-10,3.749675750732422,-0.7044448852538991,0.9653739929199219,5.172149658203125,-2.1296005249023438,-13.797203063964858,-18.06936264038086,10.92919921875,7.231819152832031,-6.463172912597656,15.009857177734375,3.1599998474121165,7.0,5.0,01-09,0.42119089762369794
11-11,4.169818878173828,-0.5862808227539062,-0.7228736877441406,4.320106506347649,-2.1620101928710938,-14.029953002929702,-15.010906219482422,13.058273315429688,7.86065673828125,-5.494667053222656,13.117851257324219,3.4399986267089844,6.0,6.0,01-10,0.6633345286051414
11-12,4.377620697021484,1.0044021606445312,-0.7320327758789062,4.545780181884773,-0.148162841796875,-12.922088623046875,-15.22665786743164,9.784202575683594,6.9078521728515625,-1.9753875732421875,13.632087707519531,4.859996795654297,7.0,5.0,01-11,1.175634384155274
11-13,4.766136169433594,1.1453018188476491,0.8006591796875,4.306293487548835,-1.2407150268554688,-8.350959777832031,-15.695777893066406,10.143814086914062,7.193702697753892,0.6425018310546875,14.291847229003906,2.6800003051757812,9.0,3.0,01-12,1.7235670089721669
11-14,3.4379386901855398,1.954273223876946,-0.2745208740234304,5.190570831298835,-1.2360763549804688,-9.961585998535142,-19.814395904541016,11.582107543945327,9.089782714843736,1.074005126953125,15.427055358886719,0.0,7.0,5.0,01-13,1.3724295298258475
11-15,2.2091331481933523,2.8259963989257812,0.37056350708008523,4.578029632568359,-2.1157150268554688,-11.022895812988281,-20.518028259277344,9.793693542480483,10.14739227294919,-2.3685379028320455,12.409553527832031,0.0,7.0,5.0,01-14,0.5257654190063453
11-16,3.3334922790527273,3.4531631469726634,1.1346397399902415,4.126659393310554,-2.3425750732421875,-10.510871887207031,-19.184116363525384,9.17862701416017,10.08071899414061,-7.987854003906236,13.835830688476562,0.0,7.0,5.0,01-15,0.4264761606852243
11-17,3.5819664001464844,3.8531150817871165,2.8137359619140696,2.78643798828125,0.0370330810546875,-7.854156494140625,-17.486003875732415,11.903861999511733,12.862907409667969,-6.904273986816392,14.621742248535156,0.0,8.0,4.0,01-16,1.6846971511840863
11-18,4.142143249511719,2.971416473388679,2.8372459411621094,3.0677528381347585,0.9398651123046875,-9.08304595947267,-19.52185440063476,11.723098754882812,13.587013244628906,-6.827583312988281,15.019538879394531,0.0,8.0,4.0,01-17,1.571299235026041
11-19,4.964370727539055,2.2983322143554688,3.289569854736328,3.1922760009765554,1.231536865234375,-9.697502136230469,-17.176418304443352,9.357505798339844,11.543159484863281,-6.53924560546875,15.853965759277344,0.0,8.0,3.0,01-18,1.52646255493164
11-20,5.2762451171875,3.745563507080078,3.6011695861816406,3.7495651245117188,1.6806182861328125,-10.73089599609375,-16.132286071777337,9.442802429199219,11.676727294921875,-3.3268356323242188,14.24334716796875,0.0,8.0,3.0,01-19,1.9355017344156906
11-21,3.9924697875976562,4.79254150390625,4.357257843017578,3.408740997314446,0.5741500854492188,-14.000885009765625,-18.23019027709961,9.366989135742188,11.467109680175781,-6.817329406738267,13.020828247070312,0.0,8.0,3.0,01-20,0.9943068822224941
11-22,4.209636688232422,4.137050628662109,4.828502655029297,3.0172538757324148,0.06475067138671875,-8.445266723632812,-20.10216522216797,9.745498657226562,11.5338134765625,-1.7350082397460938,13.893951416015625,0.0,8.0,3.0,01-21,1.7623348236083978
11-23,3.7481231689453125,5.864070892333984,6.370349884033196,3.3216400146484304,-0.01917266845703125,-9.35943603515625,-20.79827880859375,8.108467102050781,12.144592285156264,-1.3697967529296875,11.715057373046875,0.0,7.0,4.0,01-22,1.6438013712565105
11-24,3.5809707641601562,5.364139556884766,6.576019287109375,4.7498779296875,0.10595703125,-8.230682373046875,-23.20941162109375,8.874580383300753,12.268646240234375,-1.2120819091796875,10.478729248046875,0.0,8.0,3.0,01-23,1.612228711446124
11-25,3.0569190979003906,5.727657318115234,5.696216583251953,4.616130828857422,1.2600021362304688,-5.605278015136719,-21.698944091796875,9.139968872070298,16.3595733642578,-5.2389755249023295,9.553909301757812,0.0,8.0,3.0,01-24,1.9055983225504545
11-26,4.294948577880859,5.891536712646484,4.654823303222656,3.8090438842773438,1.2553939819335938,-3.11956787109375,-16.98044204711914,9.610061645507812,17.3328399658203,-5.517692565917969,11.116004943847656,0.0,8.0,3.0,01-25,2.695579210917154
11-27,3.1457061767578054,5.759738922119141,4.173671722412109,4.532138824462891,2.5377655029296875,3.5552444458007812,-14.84506607055664,9.81858062744142,17.93401336669919,-4.951934814453111,10.689102172851562,0.0,9.0,2.0,01-26,3.5290800730387364
11-28,3.8962554931640625,4.913059234619141,5.209266662597656,3.9472274780273438,2.0179519653320312,3.9563751220703125,-20.335182189941406,10.027084350585938,17.91497039794919,-6.697174072265639,10.869377136230469,0.0,9.0,2.0,01-27,2.9766009648640916
11-29,3.0682716369628906,6.010093688964844,4.001407623291016,3.4637718200683594,0.3309173583984375,4.908836364746094,-16.158512115478516,11.001701354980469,17.286109924316392,-7.683441162109375,8.941864013671875,0.0,9.0,2.0,01-28,2.9309183756510406
11-30,2.7289390563964915,6.132793426513672,1.4804916381835938,3.6021080017089915,-1.2587738037109375,5.533821105957031,-16.12088394165039,1.4635086059570455,14.578697204589844,-3.824546813964858,5.923721313476548,0.0,8.0,3.0,01-29,1.6866563161214192
12-01,1.915771484375007,4.914791107177734,1.0901260375976562,3.2836456298828125,1.11419677734375,0.96295166015625,-16.702564239501953,-0.18222808837889204,14.31233978271483,-9.388465881347642,6.322853088378892,0.0,8.0,3.0,01-30,0.6369514465332037
12-02,2.4579010009765696,4.3428802490234375,0.7877159118652344,4.547328948974609,-0.07694244384765625,-1.8858489990234375,-13.709758758544922,-0.6386795043945455,14.958610534667969,-8.64846038818358,4.463478088378892,0.0,6.0,5.0,01-31,0.5498520533243809
12-03,2.1636428833007812,4.069660186767578,1.5388984680175781,4.261383056640625,-0.29917144775390625,-3.2823257446289062,-11.423530578613281,-2.9312057495117188,13.61319732666017,-8.091026306152315,6.413688659667969,0.0,6.0,5.0,02-01,0.5027675628662145
12-04,1.5755767822265696,5.535900115966797,1.9192276000976634,4.289028167724609,-1.06304931640625,-3.6439361572265625,-8.7061767578125,-2.571044921875,13.45098876953125,-4.216964721679673,3.240936279296889,0.0,6.0,5.0,02-02,0.8175404866536494
12-05,3.806324005126953,5.986549377441406,1.8092613220214844,3.5797500610351562,0.43306732177734375,-1.4372711181640625,-6.487548828125,-3.120758056640625,13.593917846679688,-2.3566360473632812,5.3195037841796875,0.0,7.0,4.0,02-03,1.7605133056640625
12-06,4.475959777832031,5.922824859619141,0.537353515625,3.1275672912597656,2.4927444458007812,4.201622009277344,-8.30306625366211,-2.6570816040039062,15.537651062011719,-2.596908569335966,-0.7830886840820312,0.0,7.0,4.0,02-04,1.8296314875284807
12-07,4.552867889404297,6.681793212890625,1.3883438110351562,5.26226806640625,1.750244140625,7.737022399902344,-5.452766418457031,-2.2407608032226562,16.168609619140625,-4.3524932861328125,-2.81591796875,0.0,7.0,4.0,02-05,2.389934221903483
12-08,5.465442657470703,6.9135894775390625,2.752166748046875,4.483066558837891,4.920379638671875,6.692291259765625,-6.315925598144531,-4.788116455078125,12.00925445556642,-2.02117919921875,-0.6255645751953125,0.0,7.0,4.0,02-06,2.457117080688478
12-09,5.26666259765625,6.813468933105469,2.5206871032714844,5.188701629638672,4.415199279785156,5.798545837402344,-7.507408142089844,-5.060661315917969,8.10772705078125,-3.0110702514648438,2.7134933471679688,0.0,8.0,3.0,02-07,2.103778839111328
12-10,2.878376007080078,7.363178253173828,4.20045471191407,5.580711364746094,3.8735427856445312,7.9956817626953125,-8.965980529785156,-5.649208068847656,6.876823425292969,-5.096611022949219,2.3933181762695312,0.0,8.0,3.0,02-08,1.7875239054361984
12-11,3.1403656005859375,6.844211578369141,4.690765380859375,5.1201324462890625,5.285545349121094,8.863334655761719,-7.177516937255859,-8.028099060058594,4.5008697509765625,-5.441810607910156,2.5582504272460938,0.0,8.0,3.0,02-09,1.696337381998698
12-12,0.6005668640136719,6.466388702392578,4.82366943359375,4.194416046142578,6.9829254150390625,8.946372985839844,-7.73699951171875,-7.127716064453125,5.387001037597656,-7.225425720214858,-0.5697784423828125,0.0,7.0,4.0,02-10,1.2284517288207997
12-13,1.939849853515625,6.097682952880859,5.990345001220703,5.267593383789055,8.183662414550781,10.054527282714844,-10.408580780029297,-9.190574645996108,5.710960388183594,-9.236427307128892,-0.8657684326171875,0.0,7.0,4.0,02-11,1.1286058425903314
12-14,-0.9106407165527344,5.665924072265625,8.428913116455078,6.6653175354003835,6.784309387207031,9.410896301269531,-10.220436096191406,-5.59478759765625,1.4739227294922017,-7.0702972412109375,-3.8465652465820312,0.0,6.0,5.0,02-12,0.8988796869913743
12-15,-1.5476264953613281,6.361293792724609,8.319835662841797,5.78106689453125,7.0299530029296875,7.4892578125,-10.633216857910156,-3.73760986328125,1.5869064331054688,-1.715789794921875,-2.78546142578125,0.0,6.0,5.0,02-13,1.345717430114746
12-16,-2.22979736328125,6.316032409667969,6.553371429443359,6.131572723388672,7.206085205078125,7.36822509765625,-9.225959777832031,-2.2684478759765625,3.2204818725585795,-0.35106658935546875,-2.2111129760742188,0.0,6.0,5.0,02-14,1.7091153462727853
12-17,-1.8774337768554688,5.36094665527343,8.228988647460945,5.900974273681641,7.2477874755859375,2.0895614624023438,-6.880500793457031,-2.809478759765625,2.5811767578124716,0.7253265380859375,-3.0843353271484375,0.0,7.0,4.0,02-15,1.4569177627563452
12-18,-0.7912483215332102,6.184726715087891,8.39853286743164,4.542316436767578,6.15985107421875,0.8699493408203125,-5.342456817626953,-1.9754257202148438,6.6746444702148295,2.8349380493164062,-4.811378479003906,0.0,7.0,4.0,02-16,1.8953708012898745
12-19,-1.6135101318359375,5.5701866149902415,8.898002624511712,5.2193450927734375,4.618202209472656,-0.0301361083984375,-2.222332000732422,-2.430358886718736,5.22637939453125,3.8226547241210938,-5.451751708984375,0.0,6.0,5.0,02-17,1.800556818644207
12-20,-0.7809944152832031,5.315277099609368,7.7999610900878835,4.335060119628899,3.3081893920898438,1.91021728515625,-2.0435867309570312,-2.1275634765624716,3.2159500122070312,6.929573059082031,-6.52777099609375,0.0,7.0,4.0,02-18,1.7778593699137375
12-21,-0.7629051208496094,5.2289161682128835,7.703884124755852,4.578975677490234,4.4154510498046875,1.5090789794921875,0.7126235961914062,-1.5503540039062358,0.5385589599609375,9.509544372558608,-7.966194152832031,0.0,8.0,3.0,02-19,1.9931316375732433
12-22,-2.154338836669929,4.97895431518554,7.6352577209472585,3.0381088256835938,5.78729248046875,0.408355712890625,1.12542724609375,-2.0991744995117188,0.7018508911132812,16.8907470703125,-8.345855712890625,0.0,8.0,3.0,02-20,2.330552101135252
12-23,-3.112079620361328,5.319805145263672,8.93659591674804,4.057346343994141,5.2960357666015625,-0.8484878540039062,-2.5147171020507812,-1.6080169677734375,-1.5373382568359517,16.37176513671875,-5.668769836425781,0.0,5.0,6.0,02-21,2.0576782226562482
12-24,-2.754150390625,6.484180450439446,7.099617004394531,2.207927703857422,4.9997406005859375,1.3486557006835938,-3.5407333374023295,-3.1710586547851562,-1.23199462890625,15.477981567382812,-6.085975646972656,0.0,6.0,5.0,02-22,1.7361825307210292
12-26,-3.4694747924804688,8.35055160522461,7.699901580810554,2.769817352294922,5.653144836425781,-2.3830947875976562,1.7950363159179688,-4.592727661132827,-3.2835006713867045,9.599746704101562,-7.1865386962890625,0.0,6.0,5.0,02-24,1.2460718154907233
12-27,-4.464874267578125,11.113658905029297,7.699901580810554,1.1879730224609304,4.184486389160156,-2.0650177001953125,-2.146472930908196,-4.592727661132827,-2.283050537109361,6.495063781738281,-8.424507141113281,0.0,5.0,6.0,02-25,0.5587027867635097
12-28,-3.2115745544433594,11.177268981933594,8.875724792480469,3.178443908691399,6.134773254394531,-2.3635330200195312,-0.7354202270507812,-3.750549316406264,-1.147453308105483,7.885902404785156,-11.8828125,0.0,5.0,6.0,02-26,1.1800642013549776
12-29,-2.9134140014648438,10.627349853515625,8.52403640747071,0.5279426574707031,7.803276062011719,-1.0389022827148438,-1.29833984375,-3.362518310546861,1.0273742675781108,7.4335174560546875,-14.725395202636719,0.0,6.0,5.0,02-27,1.0504105885823574
12-30,-2.7056007385253906,8.451869964599616,8.79471206665039,1.3258094787597585,8.934165954589844,0.4786224365234375,-0.847991943359375,-4.395843505859375,0.3327331542968892,6.626213073730469,-18.4149169921875,0.0,7.0,4.0,02-28,0.7149810791015637
12-31,-1.7791061401367188,9.325626373291016,6.565223693847649,2.9030990600585866,8.707313537597656,1.0651473999023438,-1.9763946533203267,-5.178794860839844,-2.1004562377929688,7.7122344970703125,-19.744163513183594,0.0,6.0,5.0,03-01,0.458310763041176
