,2009,2010,2011,2012,2013,2014,2015,2016,2017,2018,2019,2020,ups,downs,avg
01-02,-40.66746223381166,-6.053878114278076,14.435283783009078,10.899353236944496,2.5527875122222397,11.975247667392097,-2.8087345171423115,-7.630526111232427,-3.4882536305012426,-7.769675631117626,4.661195562396108,-40.23333231608073,5.0,7.0,-5.343999566016671
01-03,-55.01205951396288,-5.852573357797583,15.033585058656989,10.899353236944496,1.2170859839627952,13.124274548972762,2.6723527045373396,-7.167031532915841,-3.4882536305012426,-9.37685102339355,4.2872327439328455,-34.35030053555915,6.0,6.0,-5.667765443093583
01-04,-47.10657123677025,-4.758920447836369,15.226794258910587,10.776395755038678,-2.2764252453315432,13.349881087202261,4.083216033260358,-4.000000455486241,-3.568215478191857,-9.656055162678868,2.5928231149927496,-40.69360735393035,5.0,7.0,-5.50255709423507
01-05,-38.29745651506266,-3.4752680459824297,15.05198292655398,12.625097659640394,-3.448556463313675,14.376693274757935,4.210407391466175,-4.67163769166861,-5.7987194208261466,-10.566783186964752,2.3757829566840147,-41.662665399785524,5.0,7.0,-4.9400935428751085
01-06,-39.17809172264416,-3.819665700027207,16.44612228404122,10.070237986868733,-1.0344835181213228,13.895742798775368,6.939992184275709,-0.47761148481226684,-6.736328913671585,-10.706219219390233,1.0366469777691278,-38.01498113963244,5.0,7.0,-4.298219955547422
01-07,-34.38356207333803,-3.5189140870843976,13.823363957631681,9.743815438740745,-0.3105090719637294,12.410099589448965,7.525690926466836,5.472925509786778,-2.9479334038558673,-11.583008316802712,-2.7953008772890984,-39.341445636874646,5.0,7.0,-3.8253981704277895
01-08,-34.278550164851,-1.7149372000842074,12.55296063083526,9.359477410846681,1.1624196673644687,12.446850769143408,3.024890272628024,8.248153923801379,-3.506478354840975,-11.737876490036882,-3.893837401126584,-36.29836741915259,6.0,6.0,-3.7196078629560847
01-09,-27.789516622834643,-0.7907945171475524,10.593220643389301,9.695953049215596,0.7722939749103583,12.592901636154947,1.2532467135329886,15.6353555861886,-8.636501796765419,-10.746501479854398,-7.885577341180143,-42.63779137471467,6.0,6.0,-3.9953092940920865
01-10,-26.080924243226676,-0.09178616531315426,10.255203960823842,6.735021025003833,1.144558727199748,12.168281820324061,3.65936963041794,9.764738701878372,-9.037224010700944,-11.04391700834559,-8.505751945537412,-56.0036127184078,6.0,6.0,-5.5863368521569825
01-11,-20.14741991713219,0.7082122361166473,8.572778292253094,8.81209234089435,2.370217280045979,13.536099404814417,1.9491823385408071,11.887633148820807,-10.640088730427905,-14.464662075225727,-12.06617308027706,-127.44680881284384,7.0,5.0,-11.410744797868384
01-12,-17.722221657081885,3.460135871771826,6.909267464209965,9.203746238650613,3.1089692881596025,11.928878589206597,2.3570200388177938,12.925551745316334,-10.104499589033122,-12.548631822500539,-14.201251677056051,-105.57692254788775,7.0,5.0,-9.188329838118884
01-13,-24.222225613064236,1.0926692044464912,4.8332209785123075,10.384416500963892,4.166665200377763,11.705286878084632,1.7215545241206098,11.19568741782379,-11.182612482056355,-12.657722474543482,-13.25591898632386,-120.07204143039954,7.0,5.0,-11.357585023504832
01-14,-17.388887758608217,-0.22499613770674975,4.798863815995616,8.801549143381965,4.019095337587185,8.928859905643256,-1.3749217447168538,9.699729946657577,-11.09005449935018,-13.333329266356545,-11.222764452586004,-122.15646030653437,5.0,7.0,-11.711943001382776
01-15,-8.85902932854126,0.7276071645314173,3.4262663735130587,11.23662595196857,3.680325091613822,7.978179594285832,-0.9567141565548927,16.241020264577,-11.512852775828554,-13.514866435567322,-11.313081943763342,-123.2115195609741,6.0,6.0,-10.506503313394981
01-16,-8.035256363621667,-0.47476425572338454,2.427925956669929,9.557027428764322,3.472437609083644,7.003442841900395,-5.7617967023217505,18.454131401886475,-8.67505255525768,-13.514866435567322,-11.403408048912198,-167.7538358248197,5.0,7.0,-14.558667912326579
01-17,1.2841367191954476,-0.90173620119902,1.5408179187166355,9.557027428764322,4.3996078064162845,9.14663354045421,-1.6268490106394033,17.157996146435455,-8.67505255525768,-13.65501999498655,-10.43594643278816,-145.14367651980334,6.0,6.0,-11.446005096224317
01-18,3.755941345793802,-1.607348872528176,1.5408179187166355,8.118239914386844,2.7833133755420634,9.61384415464814,-2.9147450349607325,18.73667537546859,-8.59262742331144,-15.803341202991142,-13.731012703607576,-170.22508001511403,6.0,6.0,-14.02711026399642
01-19,2.064181283572766,-1.607348872528176,2.9189352901889807,9.123926033866109,1.8847380856461353,10.536058124724224,1.467021594232023,18.73667537546859,-9.767296704066581,-13.857646810593987,-5.374241231300638,-172.06216437702494,7.0,5.0,-12.994763517317958
01-20,2.064181283572766,-0.5427453143842409,6.735369593549414,11.662951926320876,0.605010342874363,9.75844034068117,1.467021594232023,19.72281324159488,-9.374676850480245,-18.63511551400595,-4.285102793526564,-182.39247402278983,7.0,5.0,-13.601193847696777
01-21,-5.337851093186702,-3.548453689869034,5.753728404441462,10.043445759287565,-0.20595860316080872,9.75844034068117,0.13236569792042205,16.666666666666664,-7.524420881229152,-15.286684677649239,-1.0115770433593714,-182.39247402278983,5.0,7.0,-14.412731095187238
01-22,-0.7590125387358437,-2.5627112123482556,8.680429117138667,7.9417667884758165,-0.20595860316080872,8.430649848827898,-0.9270656119417027,12.706599179358385,-9.446736930595995,-11.490743515742707,-1.0115770433593714,-179.20025436442188,4.0,8.0,-13.98705124054215
01-23,-7.45762530264341,-3.792351060877732,10.259348262879213,7.213776698524088,1.1802898360133527,11.11753452348092,-0.12130636301429737,18.917850322647258,-9.307974027010394,-12.464208542417191,-0.7091462191094653,-146.327510006403,5.0,7.0,-10.957610156494221
01-24,-2.90556615578512,-0.881667555168854,10.817915640312338,8.136362978189648,-0.8797387606673859,13.624504640737289,-3.7415750910726824,18.85375637102177,-9.540410600868212,-13.065472991884794,-0.38195014627531476,-128.86213777868934,4.0,8.0,-9.06883162084589
01-25,-6.117350276113114,-2.592634259253536,12.44849389518012,6.150602012267095,-0.23203174775456936,14.50421894236957,-3.9284169709894066,18.85375637102177,-9.77284717472603,-12.618655592278852,-5.785651314356219,-121.88765882514838,4.0,8.0,-9.248181244981796
01-26,-7.187896393445395,-0.6157499154189677,10.335759574883474,5.07476080793457,-0.22595124550852638,15.38341081275172,-2.6345073040258624,13.003955926426084,-10.10442155652848,-11.241263420808325,-5.733994141861678,-92.56281622810587,4.0,8.0,-7.209059423642272
01-27,-5.075670090012821,0.19444777548794293,10.644744895634762,6.811062724164231,3.6462351984412127,15.625645313680439,-3.3792807319537386,12.951253798991091,-8.475649234446642,-8.375943257220246,-3.513772237005052,-93.09650300182761,6.0,6.0,-6.003619070505536
01-28,-10.277428434588085,-2.337289208322731,12.770122527919437,6.107351890030051,3.6462351984412127,12.96064674647537,2.0675862931090268,7.68092462436981,-8.374384155957998,-9.639800454707027,-3.7107540671554515,-94.12951805926191,6.0,6.0,-6.936358924970691
01-29,-10.614611773180654,-0.9264447650207702,10.17393009403146,5.3648465907548175,1.5205520154268741,14.29835619345465,2.681695415799494,4.414544110323299,-6.202115621715598,-9.639800454707027,-4.524798154555955,-89.31721337748736,6.0,6.0,-6.897588310573064
01-30,-14.264028113115412,-2.78614887348655,11.097183072192166,3.940527048302471,2.0015471868308,14.126951763977003,1.689486330106133,7.299077593594971,-4.329893761074435,-8.313736655376244,-5.137964688137713,-91.80369854838844,6.0,6.0,-7.206724803714604
01-31,-17.79032482086715,-2.367695308093813,10.739158309901287,3.183433322270478,2.511695528829552,16.189895301305356,-0.4124129107175357,8.429424609141419,-4.721651372221327,-8.153858760127621,-4.157915973640648,-102.52778795030382,5.0,7.0,-8.256503335376985
02-01,-21.877282522715973,-2.367695308093813,9.90855352469189,3.402349558503485,-0.41383520651725675,17.55110006481699,-0.9052177768133135,6.204191008708259,-4.123711340206185,-12.232707556899873,-3.855850133618609,-104.03088530749372,4.0,8.0,-9.395082582969843
02-02,-16.82127886571622,-3.953291821491451,10.02601252861903,2.32984164771973,0.9493375172805704,18.296625577031715,-0.9052177768133135,8.824327554769832,-2.6139764982923563,-7.181538357621122,-2.5170154224893206,-98.69155452319892,5.0,7.0,-7.688144036683485
02-03,-18.834234413376308,-4.1354197148008955,9.670069089441984,1.8091828657393414,1.36381409888426,18.403791495753914,-5.038711957871197,4.710834982605479,-3.4751402189600973,-6.4412680790447805,-3.466938152897034,-106.27169333537083,5.0,7.0,-9.308809444991347
02-04,-20.042010412861362,0.043039503417892006,9.806572067071652,2.9025151828991587,-0.9436974272846392,14.9530820336574,-3.8172100630454744,5.704049717834345,-2.8259054142342017,-4.273339561064759,-5.802189854716592,-112.77458379556225,5.0,7.0,-9.755806501990735
02-05,-14.520129688321578,2.8457848593798367,10.796659721341813,3.08207121807492,-2.1570252839106097,15.502974239881834,-5.4483678515618434,6.912830779629009,-1.4758238658953708,-5.1742339295301,-4.705629888837294,-122.68787991244281,5.0,7.0,-9.75239746684935
02-06,-8.346538364593252,6.331180346266993,9.690388306954326,3.08207121807492,-2.8310862315806236,13.934427534283572,-3.3221894741346567,2.6738690352694845,-2.1725713029376363,-3.9358726564165067,-2.395400822623035,-98.0940058953508,5.0,7.0,-7.115477358898936
02-07,-16.54035745409748,5.956043937102999,8.03066058423847,2.1398382858558955,-5.624290760036976,11.546554105118332,-1.138393770837185,2.991211487051607,0.39967143095946833,-1.5455511554684165,0.7259531530568962,-86.38756483264103,7.0,5.0,-6.6205187491414526
02-08,-22.028629246441717,11.72160813872703,8.753589091606985,1.8844658644381111,-6.837674372181864,11.058921471771201,-1.7821155882043411,3.9174401399986376,-0.5738855790998065,3.1998432896885727,6.2151449093805216,-86.91350843983624,7.0,5.0,-5.948733360012742
02-09,-22.028629246441717,8.868321898679387,9.459107082385513,-1.74629059337459,-5.083140499067866,11.761726996285473,-2.0310463782646457,7.905089562362874,-1.79499689144009,1.8247823062717243,5.29755136170653,-78.32081704110938,6.0,6.0,-5.490695120167232
02-10,-14.542004705297687,14.941199459397007,9.087742425899844,-2.427185856816013,-3.968808060733431,11.975744153200418,-1.2973215746765263,7.624263145333001,-4.1906345578030715,0.23215116090707985,4.423253143806695,-78.32081704110938,6.0,6.0,-4.705201525657672
02-11,-11.022941616510355,14.86537178569132,9.907552980574001,-5.528662208706799,-3.6697258590335546,11.707932735493099,0.8932411304841295,8.243526439777327,-1.8058220399795135,4.198406203521002,4.578146580345991,-80.95813598375251,7.0,5.0,-4.049259154341322
02-12,-8.552073331596448,13.162158755347658,6.896242805840404,-9.019228128286496,-4.260621360881882,11.515914092475217,0.9507847052758875,7.853551349656174,-2.523499478967228,5.722122531003481,3.139882505937272,-82.38566153843881,7.0,5.0,-4.791702257719564
02-13,-3.8630852575843844,13.398022550348983,3.9641139778284478,-10.13113221403923,-3.871879315335665,10.574864881720668,-0.3416521830068994,8.26915628960113,-2.523499478967228,6.3345522929782305,2.005472794096226,-67.10090257302126,6.0,6.0,-3.6071640196150816
02-14,9.246408632185126,13.559320107107084,5.1622810351365995,-10.490532658478351,-3.952914035052864,10.290980613540086,-1.900935025825045,12.411304968969104,-3.422564566325279,2.413162114100998,1.7927724220386485,-67.15751601755817,7.0,5.0,-2.670686034180172
02-15,7.072040229549985,15.069998245706993,6.382784124072273,-11.549295524142755,-4.076375815636247,10.004001692266277,-0.03109970929046976,12.715350404815013,-2.932164719162602,2.0821975319415977,4.804859629569753,-72.16446570359001,7.0,5.0,-2.7185141344916826
02-16,5.064145703916266,15.069998245706993,6.889072149475145,-11.78483309448878,-13.09061979127541,11.027595152380384,1.500613755044578,12.715350404815013,-2.7490002706952272,3.044494105223936,2.359972186927944,-76.4859095126338,8.0,4.0,-3.8699267471335794
02-17,5.064145703916266,15.033397536408561,5.870664675159513,-10.664856719042918,-10.281151669095715,11.027595152380384,1.500613755044578,8.948314725771423,-3.5445414170667098,2.7562580175819686,2.579383907187799,-86.83880651709815,8.0,4.0,-4.879081904071083
02-18,4.422691884450725,14.624437703266402,1.9362405512897105,-12.532845483635107,-14.439988021013328,11.027595152380384,2.705187373055964,10.731266850166962,-3.8959718405687758,2.86999765867167,2.579383907187799,-86.83880651709815,8.0,4.0,-5.567567565153812
02-19,4.711509132741823,11.938216884083467,1.4107609110859387,-10.353051677644128,-14.439988021013328,11.55177552632711,4.2857111716757155,7.924976981317304,-4.892965622751831,4.333185162399287,2.579383907187799,-93.73276500814197,8.0,4.0,-6.223604221061067
02-20,8.272305374887965,14.705063031347363,1.050517505303011,-11.020450761950729,-10.947569873047858,10.885063373974857,6.3252096200203844,6.753619824445116,-6.624504496223209,4.333185162399287,3.488031019098533,-108.07775715023315,8.0,4.0,-6.738107280831536
02-21,8.915493245730008,17.397543856360205,1.050517505303011,-11.020450761950729,-7.570898917500631,13.128352707552688,5.944339764250597,8.745100984628692,-6.624504496223209,6.238370412687025,6.3727396869071375,-77.36615395275666,8.0,4.0,-2.8991291637509886
02-22,10.41996190665151,17.663360732181808,1.050517505303011,-11.03005250564496,-10.4901213331963,12.875496946031358,4.824512071015377,9.021044997277276,-4.544964971764535,6.094356823782196,8.029270960580202,-69.80812915081151,8.0,4.0,-2.1578955015495467
02-23,9.54577893870196,19.629926294199194,-4.494380299700622,-12.062332652906212,-4.613397806522883,11.862419214445172,5.905830934798441,14.300120588069923,-4.576630764628868,4.509958177235445,11.506490828373254,-72.61729299286269,7.0,5.0,-1.7586257950664905
02-24,5.376151076088454,17.15384103893979,1.4755871314452162,-14.092986940206206,-4.076920207749065,14.160643912755377,6.233363897766436,12.410237826204204,-2.906605222784334,4.65865434058353,11.116321429402156,-62.01622523739974,8.0,4.0,-0.8756614129128479
02-25,7.682756891701302,17.511725105244246,0.10726981642602301,-11.60232089719915,-1.5342252423985168,12.447660452161417,4.77993686265857,13.46640117351571,-4.448480790878665,4.45064895462845,8.841641548533623,-55.24912049792804,8.0,4.0,-0.29550888529458536
02-26,14.487690018659173,17.296867708232433,-1.785391776405781,-10.694117879079403,-2.9767361675476867,11.286639135598618,8.283300771052568,16.584278883604213,-2.7710791561522576,5.121320263400557,9.649796559270854,-46.46581350648552,7.0,5.0,1.501396237845647
02-27,20.78517909451633,15.851708124931873,-0.5281026955281715,-8.634785694874555,-5.82839810387949,9.417281049913182,7.237386178301283,18.831499335728072,-3.817205170935315,7.331021640043464,8.562633554772198,-35.68520656645507,7.0,5.0,2.793584228877816
02-28,26.962509628413518,12.86936949370049,-0.4921218788926738,-9.564972541563282,-3.1593619356949607,4.371972729228677,8.525064708016584,21.792704978921932,-2.8416926885303946,12.11438749747202,7.915362153330798,-45.894828023666605,7.0,5.0,2.7165328433946754
02-29,0.0,0.0,0.0,-6.9811146141793765,0.0,0.0,0.0,23.393685685383854,0.0,0.0,0.0,-41.131565600030285,1.0,2.0,-2.059916210735484
03-01,28.080137889963886,13.498443511451551,3.4269879723034293,-7.731300477863612,-3.2572172296472557,3.4825627172658185,9.547025810770403,23.062365401134542,-6.086317083825426,13.977216508680959,1.4916215012681349,-39.751003223834786,8.0,4.0,3.3117102748056375
03-02,30.651047103679126,13.33393948276581,2.7469574410726993,-4.476247507867507,0.11481947781352929,4.993983102139928,10.707840920312742,20.71944349025607,-5.881721742691532,13.134689482861091,0.19587880557343898,-31.726737222043493,9.0,3.0,4.542824402822659
03-03,26.92424326651367,12.429170811283138,0.7947910272926967,-3.087150045549856,-0.5199713060218313,3.4234728131975443,9.394420811985114,15.435339460078486,-6.562161832242398,13.844462100237982,-0.7912488107120964,-30.82564691572299,7.0,5.0,3.371643448361622
03-04,22.269546494337206,14.434661944661714,3.2463562134178816,-1.771099102628763,-2.4909526540957256,2.2653073680644136,9.274112891634676,13.568141747533907,-8.736282757982638,13.397414364652354,-5.354225924066741,-34.28331976499161,7.0,5.0,2.1516384017113896
03-05,18.33648310268777,13.146633189512153,2.1272765083974354,-3.5871140306856932,-4.9398258240651245,2.8112216871611784,9.459323798915845,8.830632600132349,-8.925652229336901,12.721820637090067,-3.9286109852322353,-30.225218096551927,7.0,5.0,1.318914196502077
03-06,21.20157649518464,14.256776294538168,-0.39759620814511754,-3.1478792824236006,-5.6972115953440605,1.6371539562596724,10.444895522424904,6.399598423025009,-9.05623078152983,13.40762896276403,-0.054416206431525144,-24.074488704747225,6.0,6.0,2.076650572964588
03-07,30.011108372879136,11.67452409885907,-2.1640977400969335,-3.5322114325305436,-6.593130701405767,2.163608620382839,11.741622135637877,4.87773543712567,-8.467738079965116,13.527645583267356,-2.444768812314495,19.554991176982604,7.0,5.0,5.8624407215684755
03-08,28.995920782798844,7.41655943535659,0.07527458785619755,-6.220410950316853,-3.7909253037496233,4.760703752263066,7.213877331054791,11.066295922052856,-3.345683983601442,13.291962343240158,4.906489559522075,18.349621939057457,9.0,3.0,6.893307117961178
03-09,34.967110843797464,6.769986917514194,0.45163316997758457,-9.203155434655566,-2.0787073369969034,8.786061921118833,7.740850303546866,8.923612967548051,-8.013542433857857,10.343624831289658,5.458127843201709,17.975570791968266,9.0,3.0,6.843431198704359
03-10,31.755448625724913,6.018828507428667,1.4566331243822366,-8.552073113443354,5.180926120428472,9.795781372235309,9.350020212920123,11.06326022252932,-4.302380920200057,11.62525062316659,6.014378640754101,9.24956733061317,10.0,2.0,7.387970062211625
03-11,30.34954101609012,4.483739224514598,1.6660469795722104,-9.366290694537554,6.700500829108858,11.441929343463645,8.97139105492827,4.448398559258471,-3.555452524847776,12.6984120681681,8.263316754160345,15.226875041452795,10.0,2.0,7.610700637611008
03-12,20.008155524259898,3.232838779478411,4.302911362431537,-8.21123216756038,5.67077042171577,11.666187963845756,8.331551781312667,4.908444354412931,-3.611957202792887,14.551319514752633,7.497602375717056,32.72614556792755,10.0,2.0,8.422728189625078
03-13,23.260049992531393,9.014929727392978,3.8971581003970526,-11.179828896851237,5.815800847454814,10.100266575070938,8.673797444226269,6.208459010689668,-0.43367466547963596,15.060699317331459,5.806656551477926,32.36151852085541,10.0,2.0,9.048819377091421
03-14,16.560426343750713,7.494747598077324,0.1499706237210582,-9.115130323635146,3.1231628033606564,9.08779651924162,4.049775198946392,6.897411524622228,-0.05288282407353981,15.196537385814118,4.828093724005175,37.600320452938654,10.0,2.0,7.985019085564105
03-15,16.013651252199757,10.601585306284145,1.171618681597177,-8.562571527810759,2.365626305430052,9.672907743069919,5.898728102143876,8.354082557230196,-2.665534819825175,17.065990704645646,6.473685816714639,37.4497191916402,10.0,2.0,8.653290776109973
03-16,12.514219674702657,10.97988023441205,2.0620531702067892,-12.040674487350891,3.538837989474813,10.986973952984023,4.039298045717231,6.573703684459943,-1.6440422908641155,14.445112158139311,1.6898415305397727,35.477178653112716,10.0,2.0,7.385198526294526
03-17,10.267351041007661,11.598080839061632,-2.9946965150107547,-16.181708556980528,5.663280600615977,9.898944668973513,5.240169762360181,4.968944099378882,-1.8268251453895021,17.028984692032626,2.565187897906825,35.91286535123982,9.0,3.0,6.845048227933027
03-18,11.817408147546763,13.693562917303096,-2.3615305444944634,-18.324766125334165,4.27649392027501,8.9701631934075,1.0261952267142087,3.839801924819084,-1.572889064677177,18.09864553661395,2.5858440288506896,38.25726191323209,9.0,3.0,6.692182589521383
03-19,11.378922172692455,13.563955025332552,-6.39924047079851,-18.635677625186457,5.508950674767207,9.754573616349843,1.3226105293040467,5.861944743858853,-2.547159056813985,18.954731505594136,1.5684647598139665,30.15138717098739,9.0,3.0,5.873621920491792
03-20,9.230768112909216,11.36297876148982,-5.4824362106478635,-15.927238627884,6.2736687389345445,7.372977521652683,-0.23212013003112475,6.877529277111825,-3.5180251531173,16.600821538226597,-1.621448462696417,26.824666177988576,7.0,5.0,4.813511795328047
03-21,6.995075309261602,11.026834637986552,-4.483210144589961,-15.01768677984336,6.995946261390546,6.517073468464177,3.0501121554202206,5.534142985910147,-1.6998406486602398,13.761317877121915,-1.7755856650426634,34.13424519440152,8.0,4.0,5.419868720985039
03-22,8.247702150627052,10.495943465315213,-6.321513496664756,-13.365525606832376,7.593343174171095,7.331378080414563,1.3959695395627698,5.608757531192182,-1.828945275364911,17.32857736499283,-0.7095287958802252,31.819974300114872,8.0,4.0,5.633011035970692
03-23,8.77968028161777,7.913531939384861,-6.987428959225947,-16.01080488965696,8.620309998371841,6.958481087802372,1.6139720310070877,7.548821101570283,-3.402764787994565,15.843866889355947,0.9607189613012647,34.3969612260125,9.0,3.0,5.519612073295538
03-24,11.540585765597726,9.449284304903822,-9.019723917983152,-11.93613480851209,7.715222449010667,8.98617538524194,1.7908498374726411,7.217780528390818,-1.1192869407143582,15.598272051345209,2.9802348175004436,24.406461379687194,9.0,3.0,5.634143404328405
03-25,12.424079943919136,7.134700053236993,-10.004681884946729,-10.687853187954456,5.354002061387561,8.040514310241525,0.5527304942078254,7.89668751142005,-0.28997598678608,13.081772916895154,0.1399256029364669,24.615389408487918,9.0,3.0,4.854774270253781
03-26,14.425732206997152,10.935481062202284,-13.611513133243418,-10.285159319316953,1.5504459580347518,7.776503282192353,-0.9949165763736896,8.293340891068633,-0.9186193508426399,12.530495398820104,-2.001929725157868,24.919282747092,7.0,5.0,4.384928620122726
03-27,14.967739966607851,4.519311317065755,-11.67264300187548,-9.419864423329534,2.0850804859504026,7.133256570610717,1.016504893311444,9.6496536436071,-0.7661585178606058,13.538787665791832,-1.808193530904343,31.192660149114417,8.0,4.0,5.036344601507463
03-28,18.109556513753873,5.8251444163010735,-10.485080049573998,-7.797443995216198,2.1843622634613262,4.918979995283139,-2.0828686117029473,10.291288954403809,-2.8272394500381264,15.579771620675547,-2.507796910797413,33.091047515309874,7.0,5.0,5.358310188488329
03-29,18.204125027796568,6.797672873983204,-11.632464156434477,-7.197640033902419,2.1993908096564683,5.660288609344185,-3.3538954712205804,9.18392478893815,-4.672495863397693,14.400720629732119,-7.124369093712923,31.9984438645109,7.0,5.0,4.538641832107793
03-30,17.006001708707306,6.416685044068679,-11.184706935162541,-10.229186888523412,1.7732991605508466,6.34489072803129,-3.528089201852177,11.338466491733017,-4.855940529745253,14.210703929583197,-11.220741588321513,33.662052255059066,7.0,5.0,4.144452847844042
03-31,19.789071313665115,6.817721644280657,-10.55037827421666,-11.400489900856112,1.9905435536501463,6.754447373353056,-3.0224746532654336,12.638420520683209,-7.174254723716062,12.593411652539405,-11.284584734449586,31.87938843015982,7.0,5.0,4.085901850152297
04-01,16.317556939681733,4.170840306610807,-10.407531179092542,-8.096507547541838,3.252282816131652,5.903601996712363,-2.494383394048455,12.466587795601946,-6.292477293309652,11.427587026864778,-12.16013201332949,34.3827066669956,7.0,5.0,4.039177676773075
04-02,16.912269213706892,8.205807264922631,-9.449839183088336,-12.238836391525199,2.8457417203868225,5.780018718453214,-3.9932669631647015,13.80409731317547,-8.190131793061745,14.053107490687989,-11.130397677443872,25.832688439694245,7.0,5.0,3.535938179395284
04-03,13.731387780460262,6.743609253894091,-8.457030793981334,-12.446776869705968,5.066628972491792,5.643570588172185,-6.968091256124005,13.581616235081373,-7.363527522591642,12.26620088457911,-8.677542489318805,21.73828048988586,7.0,5.0,2.9048604394035764
04-04,20.88112643752229,3.0348161583052047,-9.409372470149528,-9.436576869872155,7.408246024711191,5.699438785215808,-6.883731932513743,12.928795593072756,-8.791941818240783,13.017705151300088,-11.56503000280332,23.895002393297275,7.0,5.0,3.398206454153757
04-05,20.35165792921951,9.262184089961572,-8.069133497124243,-9.949644461005974,3.3694855909051475,7.06964997382417,-5.681192262704123,12.643961714517221,-8.050054776874612,11.399711894991162,-20.456766685224554,28.06057413384765,7.0,5.0,3.3292028036944106
04-06,16.356619790273115,9.624132479426493,-6.1188603085324536,-17.20301580392449,3.6888050173446394,8.184889421708224,-6.583530468163344,11.801856073432662,-8.462390925611786,13.874100870846886,-19.927675728554316,28.78815050424347,7.0,5.0,2.8352567435407585
04-07,20.118504251781594,3.7215797087985654,-3.381119715246324,-18.849558216710093,3.9875939213308764,7.934570107621308,-5.9094420633598865,11.231210281341632,-8.563782648351015,12.884470507667531,-18.035126717835873,25.35668660225522,7.0,5.0,2.541298834941128
04-08,18.630288706929587,2.524381835158221,-3.7083992348522985,-16.947860269225355,1.2682888489148416,7.201281812842226,-5.651048936723341,7.828375279689434,-10.504487743445692,11.322700609291383,-21.27271100489256,18.20480081416955,7.0,5.0,0.7413008931546662
04-09,16.199973717616096,-1.728321988754055,-3.310105163363893,-13.190059538535772,0.21008735098431178,6.975656300411508,-9.533076325118389,8.93317928721156,-8.52141110617399,10.986742038305696,-20.163356286312403,18.7307371627313,6.0,6.0,0.4658371207501644
04-10,15.698545204965628,-5.971921051984435,-4.275793601759046,-9.565952387497374,-0.07780177513422973,9.073216660872145,-7.705169501784716,13.357523153006786,-11.820757786244881,7.301528992684742,-20.3584113448159,27.010622301178937,5.0,7.0,1.0554690719573048
04-11,15.915870031550714,-1.7274104824230654,-3.4238990673285863,-8.459754460808687,1.8218041135424907,9.778633800995506,-6.261925477314458,13.296624171702131,-11.037998365414134,5.803338986731791,-17.159140014107184,30.30107794216892,6.0,6.0,2.4039350982746197
04-12,16.98593442195713,-3.2463181059992583,-0.26620241328093186,-10.235730314123245,6.444072877857448,8.720667396095582,-6.285785535647046,9.196343038883635,-10.595571385382895,6.741284599058271,-24.47990479669784,27.20699507829014,6.0,6.0,1.6821487384175822
04-13,17.647838909364626,-3.438974837475712,-1.5329522044425437,-10.066046925978878,11.723137249810096,8.03202057304198,-4.7339880609811305,8.88003956988663,-8.546134067796403,5.651399362079646,-19.859162446471128,22.18227559887762,6.0,6.0,2.1616210599929
04-14,19.574750222240958,-5.278878225423795,0.054159197738646886,-11.791576527690188,10.006969334573315,9.701895356682831,-6.691732305391798,8.00426120347427,-6.283299198117434,5.923231392788917,-18.057806643447453,24.08772473232832,7.0,5.0,2.4374748783130493
04-15,21.27574527778499,-1.5905152250860841,-3.1299366619233613,-9.132418648551209,10.367971870059097,8.663050227882522,-8.350840743884923,7.172631987780995,-6.5198050616637095,6.28851565870905,-20.098793617113692,28.294088398801588,6.0,6.0,2.7699744552329384
04-16,24.010890369880666,2.1754955182689484,-4.927899634443375,-10.86299894966196,8.084550614965783,8.753383088657426,-8.108106288363166,4.853172352701315,-5.719965155502804,6.114167743707056,-20.369281363604223,28.602151772592432,7.0,5.0,2.7171300057665086
04-17,22.597269125064173,0.8811373211223671,-4.60821100974745,-13.052865697796612,11.424828072309918,8.22359628329622,-8.600474346725095,6.676308377209092,-7.6577055383158354,6.004227039425872,-19.769490532659695,20.410879978172705,7.0,5.0,1.8774582559463049
04-18,26.59671971055329,2.147519693253531,-6.804704785752115,-12.37324875761026,13.515340902263286,9.200138723567864,-9.549424486097589,6.065016802436076,-6.634433268449593,4.5665974848870245,-20.094814790246353,21.14537657368138,7.0,5.0,2.315006983540546
04-19,24.221499108871033,2.174111368012152,-6.415863028972623,-10.05716715231433,13.890999156446352,9.208103229328776,-8.503547820837277,4.015047416259901,-4.902733155728785,2.969452820571543,-25.71328166807932,24.597070843401642,7.0,5.0,2.1236409264132554
04-20,23.590442019517926,-1.0145871480882014,-8.700298152310047,-6.61216828436042,12.697817499941348,7.883264221431791,-9.795553302104393,3.7239199465165025,-7.192097966894337,0.18391932379696882,-25.272023125804044,21.551069877942044,6.0,6.0,0.9203087424654283
04-21,22.307167443806,-1.3407041988555277,-10.097433396910384,-9.363448540971973,13.790551146042157,8.81627801260792,-8.503707009984291,1.272133498608335,-5.7162284002239865,1.526330275055314,-21.25707360628766,22.827743229293908,6.0,6.0,1.188467371014985
04-22,23.058019644571246,-2.680360388038503,-7.911976858572739,-7.9729043972825835,14.152957688847637,9.864368933702416,-9.750618549199713,-0.037085893835120946,-6.438058576805602,1.9132263906148281,-20.778339370437692,17.77819759477811,5.0,7.0,0.9331188515285236
04-23,16.615811089838388,-3.1754672121547562,-9.355792536425822,-11.46976087012198,13.710448292633851,7.45111768209938,-10.65195287076917,4.123091963594611,-6.704609552592654,3.843258775480584,-20.248163157675958,16.455694377959297,6.0,6.0,0.04947299848881374
04-24,9.65389041299773,-1.6906271912695614,-7.975333889591994,-12.384327743150603,11.549521687197405,10.639032271283858,-9.572906875487533,6.065247089580643,-7.59870857263857,4.052586414567231,-17.247603668753282,17.093687872129014,6.0,6.0,0.2153714839053619
04-25,7.498525394587695,-5.664637465065686,-8.880994992334468,-14.514738013132982,6.970001145078938,16.053570013984206,-10.535874871002775,4.593297138730595,-9.35490546320503,3.37436051996914,-11.623843890152049,15.03242565560836,6.0,6.0,-0.5877345689111714
04-26,7.237334938805545,-5.278928502773404,-10.242752376073906,-25.485652671827445,8.650300366468377,16.480713312302072,-9.65198739323982,0.9808608968791486,-8.252978174170016,-0.8747892674178187,-5.965134072749386,15.097213700275319,5.0,7.0,-1.4421499369601107
04-27,7.278671342976304,-1.6754033853261268,-10.282224368350239,-24.42363983755886,4.3010777799414655,13.236594875965618,-10.210555406817573,-1.08852114679293,-6.055419558394752,1.451355319972023,-7.111310308107563,9.009192601996782,5.0,7.0,-2.130848507541321
04-28,5.837790141104134,-2.4148277045004862,-11.801117474694877,-29.340395270925747,6.315784845788327,15.480089298507982,-11.455742773493165,3.0887581187592454,-5.3650746501354725,-1.1469625240855208,-7.729896727791358,8.11031901700981,5.0,7.0,-2.5351063087047607
04-29,2.3470021363891194,-6.377288490183679,-15.040202415366846,-30.788469218673132,7.523705224974835,14.135489028618636,-12.904688700999214,-1.924506828242427,-5.309531321724734,1.2616996426972484,-4.200240429613034,2.5127671564155856,5.0,7.0,-4.063688684642303
04-30,7.504003959325754,-2.1315394364227904,-10.57510257820758,-28.088175969624118,8.107699618165746,15.531802417220048,-12.89217937894381,-5.331470462718578,-4.5795440673828125,4.6477867522363825,-3.179725889260085,6.347331460198902,5.0,7.0,-2.0532594646177444
05-01,2.190639107491804,-7.7214945276354,-8.329263230417107,-29.744545668372048,9.874860576220918,15.855134043215596,-12.309793626864895,-1.2599373447056574,-3.3812651648363232,5.140000589765173,1.289071861047813,8.593106585195704,6.0,6.0,-1.6502905666578684
05-02,-7.586621715221452,-13.288108518245052,-7.604271661801307,-27.46995742472303,8.655825367047793,16.21201603332063,-15.234781901041666,0.7909919017234531,-3.2015347236452865,5.874282870467188,3.191838477825224,5.861026702880025,6.0,6.0,-2.816607882617791
05-03,-6.065964160266715,-15.441694000094463,-4.898160161491567,-26.479561358211345,5.847501326800895,15.069314152298277,-13.523696088155537,3.367695476712792,-3.0779662957642793,6.064775598193941,2.425936074914165,7.737856653676165,6.0,6.0,-2.414496898448973
05-04,-6.065964160266715,-12.066681697434367,-3.0843844347621268,-16.846077241544208,6.850932532943261,14.843417073164018,-13.523696088155537,4.913717621706395,1.5555572509765625,7.851801510170063,1.9873225339983165,7.737856653676165,7.0,5.0,-0.4871832037940142
05-05,-4.54947592842837,-6.91267178255674,-1.2124151488845654,-16.269000037084393,6.850932532943261,14.843417073164018,-7.984006419322663,2.6126560898732407,-0.9777747260199495,8.470626769811975,1.9873225339983165,9.09988279557221,6.0,6.0,0.4966244794221952
05-06,-14.14900010221951,-4.066280256497181,-2.7642269778010076,-17.798508845430888,8.587179828828885,11.08537577009097,-8.600797849024962,5.682088189656765,-1.2925384906423867,6.952616037697686,-4.202832809255357,9.514409217019454,5.0,7.0,-0.9210430239647939
05-07,-9.665864616714542,-1.7763367726183281,-7.993789015714865,-10.412053237399197,1.5883393993694834,10.090091658777602,-9.012479491053451,7.242273505608749,0.7361700605784292,6.975415252993601,-4.819553835504812,3.108702804024315,6.0,6.0,-1.1615903573044177
05-08,-19.679275617356698,-8.287575584074643,-7.826425802252193,-9.590050092374463,-0.014497398436317244,12.475264201336717,-9.13972452247933,4.978253552724821,-1.5393126718409114,5.831903432043519,-7.3892204215441,-1.840855694277539,3.0,9.0,-3.5017930515442615
05-09,-17.723139229626085,-6.649974452798206,-8.849128140038298,-10.759826272679337,1.5197502938459766,12.394005328225374,-7.662480377329121,4.978253552724821,-1.4839383085320446,3.7899202630748334,-8.073395827875936,1.1307274281880022,5.0,7.0,-3.115768811901668
05-10,-21.70683580127909,-2.5915170837426995,-8.38955912064791,-15.771741452424406,4.8575444173152915,10.446732581521887,-5.6388368551833254,3.6611874106881026,-4.69545705479022,3.4653499676670085,-7.2597948823878475,-3.595925005796183,4.0,8.0,-3.9349044065882826
05-11,-19.362154460963257,-0.9055826439070889,-4.321898839760567,-14.993384883933711,4.364618692388543,10.639768589511286,-8.427036248790328,2.9482870691445666,-6.374818572682532,5.581017207214542,-3.7160270853233723,-5.059025285316301,4.0,8.0,-3.3021863718681854
05-12,-18.585072781545424,-4.412325690757864,-1.9024563334140498,-10.438302847025907,6.018842276136657,11.084418702437384,-10.557469551274382,1.3601281730792782,-7.078238731374252,5.906602006241056,-4.8794149183030076,-4.806076433380209,4.0,8.0,-3.19078051076506
05-13,-13.841669376231835,-1.751083213119973,-3.4536934219976128,-13.083382922263938,6.051873446114875,9.771791033131064,-8.415197999904825,4.712865697238748,-5.701852771418767,6.529102020813099,-3.132579112256951,-1.6020281581597486,4.0,8.0,-1.9929878981713216
05-14,-13.95720509029994,-0.4925609970347477,-5.746888889248503,-9.969529751774818,3.9361818621942732,10.861355780614854,-6.365768008098427,2.6658613314774917,-4.523895208836072,4.797050522429293,-4.059113751524449,-7.26206858281934,4.0,8.0,-2.5097150652433657
05-15,-9.2,2.1887412720818884,-5.875212452677927,-7.977799358044739,5.3278987864077605,10.629785419295173,-7.014431323582617,5.22668191231304,-4.5931364426703265,3.5536661118535546,-4.081178908873762,-5.022023574156132,5.0,7.0,-1.4030840465045074
05-16,-11.31129721696238,3.351740739153429,-5.821704431680278,-7.694819227436608,7.196100042805393,9.810823912166839,-9.013186141554835,3.757149372704311,-3.599428229231591,2.5348977773773833,-4.777635559497353,-16.662953807878257,5.0,7.0,-2.685859397502829
05-17,-9.865478681699102,3.197670716646546,-6.741457453364598,-6.908284541799796,6.5372166919819925,11.574033284708502,-7.708552664617166,2.7075342822271864,-2.6277986766450128,-1.6191414097896921,-2.3322278125418348,-10.913705542800422,4.0,8.0,-2.058349317307783
05-18,-6.874247087936664,3.5633937298453127,-7.762280286706067,-3.6371432716219765,5.524587603939477,9.820168503083773,-10.270273936045403,4.09111739694948,0.13069940134890726,0.13496202777145663,-5.554929921324824,-10.493046014123527,6.0,6.0,-1.777249321235005
05-19,-8.333322813460716,4.13540515562205,-9.595697308601098,-7.4646066537257,6.191198878939198,12.638766537331826,-8.420422986463043,5.376338851505185,-2.11167383695751,-2.279107875756415,-7.6781612703169895,-6.742521754464987,4.0,8.0,-2.0236504230290167
05-20,-8.965100456558643,9.322912984526546,-5.593434031185276,-5.207894997611593,7.00816093559615,12.988897764874046,-8.660659560928115,3.781213273332363,-1.316647512929499,-2.5176940645924835,-9.965955652611887,-10.935530007425221,4.0,8.0,-1.6718109437928008
05-21,-0.7220216606498195,1.6523293523428688,-2.689128691101121,-3.6194416860978227,7.920183025944545,11.050380000535556,-11.031548749469096,2.3783824107310436,-1.5376267274089468,-3.131570690926317,-12.254953061179146,-9.410288642237393,4.0,8.0,-1.7829420932929707
05-22,0.5747864887680281,4.558378030096493,-0.21147863432149505,-4.788009337053722,10.217382546929715,10.272611365717697,-12.124226256186937,0.9385717502048471,1.27239633051274,-0.1456548814604102,-9.062097663411793,-10.856655955154187,6.0,6.0,-0.7794996846132518
05-23,4.19088005642588,6.519443894429693,-0.42385362850806735,-5.170630980139747,10.612249050010629,10.401585315059341,-14.397537760509852,1.0230227268799428,1.8873913957966073,0.4855142136519364,-4.003275379525091,-7.840666255660351,7.0,5.0,0.2736768873259099
05-24,4.573632542107259,4.940439024659139,-2.1674213013347066,-2.5852426621143447,11.999728632281037,9.832111940524486,-15.285140844361736,-0.46279046473428315,1.7389454268934088,1.9691118920935933,-0.1378708011486516,-2.0230077247244003,6.0,6.0,1.0327079716784002
05-25,2.9832000522303836,3.622338557703238,-3.2655808393936203,-2.5395511012953365,12.288453877150065,10.141569614181092,-17.163892517477723,-1.1813435799449226,2.8187133416811907,3.751529542406546,0.11466400088392847,-2.490536031484973,7.0,5.0,0.7566304097199889
05-26,2.9832000522303836,2.6166767751303945,-1.5820441805266718,-7.880662451242909,11.786870522337383,9.676579462366862,-17.163892517477723,-0.9939933847371099,1.8189671454027376,5.412666036824527,0.5480029085597995,-2.490536031484973,7.0,5.0,0.3943195281152249
05-27,4.383760246388854,-3.207369463051759,-1.4825953228668567,-9.801047759530432,8.988694071409476,9.676579462366862,-16.966755530885163,-0.7285704043381086,3.954554612108537,7.4908481582288635,0.6500908905569102,-5.060771040100549,6.0,6.0,-0.17521517330944716
05-28,1.625791881769931,-2.452843215013228,-2.758685933934945,-9.583026371600683,8.988694071409476,9.279857516200726,-16.81079911210322,-3.3142864893353177,5.533888318759598,9.47967388648165,0.6500908905569102,-5.711363362693618,6.0,6.0,-0.42275065995855937
05-29,2.0083009117274275,2.7863472383681156,-2.41156019722597,-9.583026371600683,7.801766448077754,8.20137610119021,-18.001594092680694,-1.1311419473326136,5.414245122340864,9.47967388648165,1.4256386811693613,-3.9355633546994895,7.0,5.0,0.1712052021513278
05-30,-3.257063350669754,-0.2685006752348006,-4.87172067809314,-5.538713854259352,9.961317203076419,7.855771352586946,-21.273396878609343,-1.9804485525571383,5.414245122340864,6.71444338582983,1.766704240861419,-6.692751046311883,5.0,7.0,-1.0141761442533277
05-31,-4.466229126168387,-0.2685006752348006,-4.87172067809314,-1.929793592843422,11.417592124647571,7.064116923314605,-15.497727909675909,-1.9804485525571383,4.686018407816608,8.57520021683915,2.8591809656338727,-9.60440209765578,5.0,7.0,-0.3347261661647308
06-01,-8.208744103764069,-0.2685006752348006,-3.95887648569576,9.246612978671596,8.955846943945488,7.755602920193554,-14.175462535736413,-1.215845118507125,5.813712894240681,8.36236618874302,1.1558642062293025,-6.824745099569118,6.0,6.0,0.5531526761263629
06-02,-7.489418116099151,-7.149962824150631,-7.231947534432409,9.200478362129278,8.57044106899196,7.260406758261928,-15.474657975136651,-0.7384184313182152,6.015508251851579,8.645108741489318,3.6137586550988754,-13.010312109878397,6.0,6.0,-0.6490845960993765
06-03,-2.355427550076644,-9.097237382485101,-8.392154469209572,7.764514278628333,9.44395145672714,6.133938009136865,-14.4970473143186,2.4357379903333607,6.243433339828823,7.964948098343548,3.377986694726724,-14.16494625130881,7.0,5.0,-0.4285252583061611
06-04,-0.4252366969892359,-5.6307670397636365,-7.3213881233259075,10.004973347626517,9.162142640568534,6.3891531130152615,-11.255406461477339,-3.2655651772317142,5.568496916378976,5.494944288164486,1.8287707894339507,-18.398452893813822,6.0,6.0,-0.6540279414511607
06-05,0.702413415697424,1.3364576314820038,-9.928433187197488,8.541557453785753,11.664032290864453,1.4071645478551962,-16.180849162753294,-1.7273717160608448,3.379552379652954,7.159351664902555,4.449621156342515,-26.595524663789604,8.0,4.0,-1.3160023491015311
06-06,3.8486686482853174,0.5506367506370207,-11.308423986572654,5.505225432855173,14.092198923145155,-1.184745250324147,-16.57508865028789,1.335445024689246,1.613949164530885,7.509755776135811,-3.9472023686790343,-33.944364979581024,7.0,5.0,-2.7086621262638446
06-07,4.841833631712119,1.8058258352927792,-10.277607011442909,0.6970513724456618,13.298050229265746,2.05705703656596,-16.11936811431963,-3.7027987382091494,4.51689577852013,6.35273563139283,-2.5951969602330527,-28.167564555841235,7.0,5.0,-2.274423822070896
06-08,5.537041631247154,-2.2912627284966627,-11.18595499996692,12.056208661903556,14.63224713341,-0.8100938093182541,-17.111321985932797,-3.6299596504427725,0.888639934721906,3.8722370323980946,-7.848097402838213,-22.384237655865146,5.0,7.0,-2.3562128199316708
06-09,4.319399208134918,-0.7864053966929749,-20.243136960678697,13.060334629839806,14.097380192813253,-2.6913004154242683,-17.085031706758507,-0.40361345668004495,0.4090603976462651,4.753833185722909,-8.840059117087621,-17.182268415178587,5.0,7.0,-2.549317321195296
06-10,3.5503675496666074,-6.179221057009228,-12.249791726751862,15.458890830266045,15.74702721245114,-1.9223584616381688,-18.819829167330106,9.538604430125886,-0.234191021256632,5.159525960941633,-9.864595223005571,-9.615765651458576,5.0,7.0,-0.7859446937499026
06-11,1.4446495335945002,-10.679023016313284,-18.18284524582366,14.800742349269433,17.353732171625918,-3.8071995328498374,-16.69670593428015,10.225020844925535,1.3933123984648135,3.8771643210798685,-11.540936938801732,-0.510910079286322,6.0,6.0,-1.02691659403291
06-12,-3.867254462501369,-9.015403528850607,-15.243229563156287,12.724748065587905,17.020865529456145,-5.251744128833301,-21.380146673450646,9.946888843736424,0.5202005851032164,3.502480687414867,-9.645384182057121,-7.70333582410157,5.0,7.0,-2.3659428876376953
06-13,-0.06562080545984325,-8.19265168820247,-20.370159392868903,14.087121744841797,15.922562560505217,-5.789569432587665,-16.979159758248112,8.980092757467327,-0.23242843167597885,3.681678558815599,-7.628169744722892,-3.468093602360969,4.0,8.0,-1.671199769541408
06-14,-3.37581045506298,-12.146160820409238,-20.73801742561119,13.664202611496822,17.06118828350915,-5.290854631648207,-15.420436867206892,7.20196258542115,1.5716637442468158,3.9081014428170398,-7.307540911749623,-5.645489718533687,5.0,7.0,-2.209766013560903
06-15,-2.7766511535306653,-13.597528437458402,-18.25497789720761,12.137465890904037,16.017884577771436,-6.879741465862033,-11.622670937142209,7.805855368450619,2.333933760044078,6.996820536588127,-9.689429195555133,-6.3556710576222875,5.0,7.0,-1.9903925008850039
06-16,0.44480633534866154,-13.628407262806524,-9.09383860447446,13.330282971652565,15.741912789042138,-7.221439036545553,-12.698613145409501,11.187415386227539,0.011298019166818054,4.01645864478844,-8.851254297971787,-11.224278477095769,6.0,6.0,-1.4988047231731194
06-17,1.2670203672639837,-15.415265157461084,-8.603290858040673,14.154957257068427,14.75063488857864,-5.679361544134954,-11.372446269466625,11.30482226270785,-0.09092150584950609,5.2409173350419955,-13.92962549352839,-6.905682173785298,5.0,7.0,-1.2731867409671362
06-18,4.591770854460894,-17.04364804485115,-4.787621317394932,13.740663248792389,13.670070625561594,-6.760698208336924,-11.45832984243213,8.128106418886171,-1.2066227215161296,-1.0221762649171298,-17.70195548245041,-11.619574755358999,4.0,8.0,-2.622501290796396
06-19,6.38640261955137,-17.557662786100277,-6.682173369073769,12.6297603215489,13.30562555671655,-11.421151459374029,-10.43412524214713,7.832926575996973,-3.6361452292629375,-1.4206508618889406,-18.16849572476251,-9.026470515261636,4.0,8.0,-3.1826800095047862
06-20,6.069032855250053,-16.23580953517138,-7.3404271551903255,15.370603988640791,16.34842036108538,-11.20747236259107,-10.086238569377475,7.792062385478747,-3.3772593596318496,-3.456339032732388,-22.030950052002883,-12.634286931129388,4.0,8.0,-3.3990552839476487
06-21,6.7053758486685755,-18.48955802716522,-8.712768554687516,22.08306602268775,16.136092810018418,-11.362992812535797,-9.538611888609516,5.8856101604388416,-2.5182387680781764,-0.5952849540261691,-21.66755133611887,-13.096008402704312,4.0,8.0,-2.930905825175999
06-22,8.588453486996059,-14.033206950456172,-7.808506742436835,21.19794871597822,16.55642044343925,-9.698220126318766,-14.285717114087216,7.3376220982170794,-5.169111693406301,-3.258696177185975,-16.386069142848644,-14.930930645609694,4.0,8.0,-2.6575011539765825
06-23,8.84583961838558,-14.45098884228615,-14.298763895262697,22.51528542270376,17.597977179119358,-9.44258482296647,-15.206956360595658,7.881830472414454,-4.400053203438554,-1.7948987089325075,-18.08579303121637,-15.018632717506325,4.0,8.0,-2.988144907465132
06-24,8.805201878720323,-14.28103165890403,-12.218792949104698,21.945385541858528,16.089300095488024,-5.350482782515885,-14.623065638630415,11.660859120023872,-4.4210740115973355,-1.1602770734014745,-17.275312259790677,-7.322955728770261,4.0,8.0,-1.5126871222186693
06-25,6.702012600325108,-20.08313386357988,-16.189928898636136,22.04572704884017,14.284775398136427,-8.146903395990899,-14.231718612271562,13.798400881551995,-3.739318145488319,0.41765927808057124,-16.60191594426847,-15.034016547655604,5.0,7.0,-3.0648633500797167
06-26,10.858956666469027,-14.92422796360547,-12.768349392478276,22.908827232293095,13.16516775322566,-7.67795087236599,-17.632910553859794,13.836205320969494,-2.678884693862367,-2.0115927518670786,-20.551663903538845,-12.376121243195701,4.0,8.0,-2.487712033484687
06-27,11.69722079968287,-18.970767907465717,-11.576961603747634,21.28362824877976,15.148963934111281,-9.005363693543144,-24.530749840797256,13.380366548961698,-3.3956049452747146,-5.634163507965961,-21.98384055687405,-12.000901139366453,4.0,8.0,-3.799014471958277
06-28,10.012100807663805,-20.535100928969953,-13.890130946952798,20.41865062884931,15.923894278470296,-8.26384840391997,-26.170273888118434,9.897501404916834,-4.59405005836563,-6.099654966535863,-29.83972635834059,-11.87471908726451,4.0,8.0,-5.417946459880625
06-29,9.489056439469605,-14.61239299460021,-14.657473947466798,17.261961637687907,13.875630429041856,-6.819011865103102,-21.495989006105557,8.034829324152385,-6.357831575035346,-5.933936042082353,-28.844285588775953,-14.771159159211045,4.0,8.0,-5.4025501956690505
06-30,8.191409722909025,-12.474278271569652,-18.45683267759672,18.53072828327088,13.42376135951919,-7.595985593994828,-23.32723719722754,7.567869064880541,-7.111577748096376,-3.1605562172555746,-29.90509570279645,-17.105875665731276,4.0,8.0,-5.951972553640732
07-01,9.380916634894712,-14.38466715468249,-14.724544887715435,18.268698133770993,15.14486901948264,-7.310562928630975,-20.81983268637341,5.988025623868821,-10.75539695034629,-3.7551922177977723,-28.346888052702468,-15.256593954912676,4.0,8.0,-5.547597451762029
07-02,11.965454820567516,-9.999994026201252,-12.76897260768283,17.686256428144215,13.533175042302325,-7.015931041119774,-13.036016801780804,9.194642648165036,-11.088395732420503,-3.0476534633649037,-20.72245833759351,-12.391545273157355,4.0,8.0,-3.140953195345153
07-03,14.498292057180578,-14.036090975565704,-11.973971020546587,12.179549551521525,13.345047749979422,-7.494705224108634,-10.063379931425251,8.115907164829059,-10.397997810481366,-3.072909213158785,-20.22611114827807,-9.088943618591685,4.0,8.0,-3.184609368220458
07-05,11.314077269493614,-11.018452038814377,-11.502324167951844,14.854236555707983,10.624484582396395,-5.323995494852151,-11.931070896267226,6.475303272535274,-7.923993101356679,-3.7380051246305737,-18.917824520450885,-11.501882035484027,4.0,8.0,-3.2157871416395416
07-06,10.42619749962738,-11.018452038814377,-10.454693474498425,14.401737735292503,11.009237955394203,-7.44592362884635,-9.496843830091585,6.475303272535274,-5.928049710790592,-4.574884067340392,-21.512331256596923,-15.35468871241574,4.0,8.0,-3.622782521378752
07-07,13.358118682043884,-15.410273775988598,-11.837139159041103,15.521703337306981,11.784383659697879,-7.416006730635857,-11.594392282049029,7.774886901918264,-4.059306582365999,-6.681885876831506,-21.610690497796142,-10.091532655422942,4.0,8.0,-3.355177914930348
07-08,11.656175521471084,-18.100954344428537,-11.485451991145162,16.309917563875402,12.938394337756383,-7.648046831765347,-8.72474438189975,6.787128096108138,-4.635144366580776,-7.180486851061409,-19.293372885977757,-8.558347364930242,4.0,8.0,-3.1612444582148314
07-09,10.440502614748072,-17.968490574257505,-12.06565234433119,15.708497243359323,11.405966297780314,-8.18637448459632,-9.767087963847016,6.759646708677105,-4.367066356183696,-6.989564769217435,-17.970096448187203,-1.4645294701944265,4.0,8.0,-2.872020795520832
07-10,10.40711283530756,-16.838258359520577,-13.856949377440156,17.680120029058337,11.374817570353636,-9.893890080999505,-9.1542985754063,12.58040712308515,-2.0148028494073866,-7.702096766531984,-19.96824669607438,-5.263158825752541,4.0,8.0,-2.720770331110679
07-11,9.422448239858545,-18.9719332710494,-9.198195804245216,15.349183270299815,11.076002251907372,-8.05286289801078,-9.520093318936478,12.107716503281521,-3.164483582906145,-5.742645099254612,-20.158727739903842,-4.195645338199356,4.0,8.0,-2.5874363989298814
07-12,13.321561162278797,-16.915924271981037,-9.065844696926987,19.001868085119103,10.51817609351981,-14.081449821140682,-8.434194068367074,9.732824782525451,-3.096188125153337,-7.480518952076569,-18.916795686338077,-10.090616573891888,4.0,8.0,-2.9589251727027075
07-13,14.253090089166767,-18.322811045321767,-9.120993095258987,17.673633445838956,12.288421240682721,-14.194063003994877,-9.463146692340626,11.111114706151426,-3.623023859769331,-10.037562454128324,-10.9375,-7.3817489429844025,4.0,8.0,-2.312882467663204
07-14,13.12466946807422,-18.134489149600963,-8.358542391566,17.046266371889658,12.20795517667718,-13.410449974215894,-10.78903291151995,11.31719901207216,-5.865411429919833,-9.001050509968833,-10.79900335912437,-12.947917080548269,4.0,8.0,-2.9674838981459075
07-15,10.693174131392844,-18.820632402260408,-18.60056587358939,17.06840023954248,14.125038272495052,-11.20478390924002,-8.21526019726145,9.228281609223323,-4.514956450499911,-7.219066685187631,-9.527337204743464,-13.377922581148432,4.0,8.0,-3.363802587606417
07-16,9.854204276095892,-10.932757228520565,-17.895710049341655,17.472123302032635,13.514805362111208,-14.792663485820237,-5.559831031287751,10.464619279031268,-3.8770207503660767,-6.558917401073634,-7.367643231692184,-25.842104460063737,4.0,8.0,-3.4600746182412365
07-17,8.373931357345201,-10.53201985510845,-17.025932729759546,15.701898536078723,12.75500618841369,-12.119159508094265,-4.342188474224959,7.909293589814894,-0.8781592372749275,-6.310926200908702,-5.133905621102211,-20.768247807428217,4.0,8.0,-2.697534146854064
07-18,6.2135082548687,-10.639919211163592,-15.692303866742344,14.409635267276968,12.494794217991855,-14.52822864690067,-1.9625801308526505,5.879024451843725,-0.6586152405826334,-5.678124893981834,-7.216365434208585,-21.77687769400225,4.0,8.0,-3.2630044105377762
07-19,9.466563361901368,-11.388949657826895,-18.55270516159188,14.698732644833138,10.676522477651798,-13.973110933234153,-0.8802592947259303,7.247027986293483,-3.523599493126819,-4.947690368010647,-9.635976300153972,-23.607153600232973,4.0,8.0,-3.7017165281852904
07-20,13.132283869198286,-13.725703694582963,-18.301991519764975,15.635095188078333,9.83715154305652,-10.387759150705266,2.5143883848436746,7.167887571099145,-2.0483818999969077,-3.8448470472164464,-1.8332551448079402,-16.740088229110377,5.0,7.0,-1.5496016774924097
07-21,12.783859894145477,-11.836641320326763,-16.769906832772552,16.49484907727259,10.895868339855252,-10.419240260572952,3.264949375332605,10.401318748648407,0.33254404047883984,-4.526118473189014,-7.375028039574408,-23.39695892263839,6.0,6.0,-1.679208697778409
07-22,14.213626521581983,-13.406590053013392,-18.20097090303392,16.120124911915966,12.980958533379747,-10.799505986017445,4.816119572097299,10.981639804019249,-0.2794137542277645,-2.85475408056052,-7.242989930831639,-22.834062351907384,5.0,7.0,-1.3754848097164851
07-23,10.609182716007158,-14.835597722089352,-21.023241225088103,14.41402024352393,13.475752256376088,-10.22910377136799,4.1928242703230545,12.548587083626126,-0.1932785466384232,-2.2384975304937704,-7.71027627471262,-18.596747032773912,5.0,7.0,-1.6321979611089843
07-24,8.758854282293543,-18.226373249654948,-21.91229997251071,15.910891734947969,16.13597243451995,-10.687743601188943,1.442431737880183,12.887169611987062,0.923765920325873,-4.535245619272332,-7.820955034701455,-20.46180795477311,6.0,6.0,-2.29877830917891
07-25,8.587593297696952,-15.733093106448099,-27.304325417680314,15.743591882947594,13.68242323840435,-10.012452499034158,4.351796063443623,15.793410151027265,-0.7326422161503691,-6.831993708050868,-4.729813235489614,-25.122390247349855,5.0,7.0,-2.692324649723624
07-26,11.579192989273631,-14.785303807115127,-27.735825608300868,14.205199867286828,13.696920881635815,-11.45075857135199,2.6987486657181146,13.975620363533483,-0.6052237130783845,-8.094959818799158,-4.0617295253423995,-26.29388923210693,5.0,7.0,-3.072667292387249
07-27,9.621695804408343,-11.288177157309248,-24.739301587139014,11.355853583646232,14.301784797579774,-12.445461629833627,-0.20536900876053782,14.692042725589873,-2.2260133995863924,-8.11149747720969,-4.729815356839639,-33.47993388557318,4.0,8.0,-3.937849382585592
07-28,10.667798006000487,-11.288177157309248,-34.762215381336524,12.057240205164051,15.910273814094408,-11.014294171946267,-5.216316416808525,13.724218767634891,-0.9201428758402774,-4.766510310943225,-6.822811579587718,-29.934027130067463,4.0,8.0,-4.363747019245451
07-29,13.757447615310722,-12.166838279124386,-38.36136504478906,11.439246415059959,15.561907695814295,-11.846483793250712,-6.43482597115224,8.96936273176358,1.1943104319707838,-3.390635567916853,-9.31353632737806,-33.3150043321664,5.0,7.0,-5.325534535488198
07-30,8.931919117174726,-5.851698354068511,-32.5247813538713,9.981917782856517,15.917842223164014,-11.249263689474812,-7.207205330786731,11.830612743960483,1.7859020417903821,-3.6629131173227996,-12.101082873196118,-27.094133401779303,5.0,7.0,-4.270240350962788
07-31,6.219918305365992,-12.33972836847173,-29.271087593911645,11.383360317890537,15.106779467856645,-9.047431024146608,-6.044788392000571,11.133695666407299,2.2400332018206126,-2.8968198496014668,-11.8275397005306,-25.10012688833877,5.0,7.0,-4.203644571471693
08-01,4.342937535032311,-11.691004030993714,-36.788264227013165,9.177216696123073,11.633441478122625,-6.046332772062112,-10.096503104448201,16.240956029077118,2.9387593704479498,-0.20748714491745165,-7.963781660109187,-23.851497416469734,5.0,7.0,-4.359296603934207
08-02,6.112197331057598,-9.262420027363994,-33.5442157246451,15.088334507172766,10.367245001568957,-9.75752875627092,-8.99758368047098,14.974457036951328,5.137690110644252,0.8425194447434793,-9.975987453523324,-28.12931940169443,6.0,6.0,-3.9287176343191974
08-03,8.214585600370098,-8.399059133500174,-31.88854778497493,4.73003383079752,8.920135995040173,-12.916583871064939,-4.9999989520062895,12.335032408281418,8.180126207301257,4.044835027873874,-6.440310833575586,-29.02059183003052,6.0,6.0,-3.936695277957341
08-04,7.256622000922162,-9.78469445218109,-24.87123716145981,7.399951306571367,10.438572092839387,-15.446566154020203,-5.412080558857317,11.37296669217556,6.501965117246512,4.316938551354266,-10.366021205836539,-34.83584011174495,6.0,6.0,-4.452451990249222
08-05,6.574069396152288,-10.18608271094042,-35.079559616018315,8.163975660680775,10.547695445690582,-12.16313780577348,-4.5192213574411015,6.772821305315182,7.727929731062666,4.6923065185546875,-13.1805108108953,-41.20757356480501,6.0,6.0,-5.988107317368121
08-06,3.491673935221783,-3.2130643923449185,-29.513219896514116,4.807349549207727,11.104664261934873,-10.108416179421305,-5.5578260236700965,5.670582575831546,7.077722104719883,4.970089825320929,-12.148990482494694,-45.98393143612519,6.0,6.0,-5.783613846527797
08-07,7.466565898704565,-4.408693237448896,-20.282370444269795,2.1065933819879956,9.364121218666963,-9.272615110634868,4.282371563604164,4.708845655118326,6.913737709451944,4.563586711769701,-11.103151377018209,-40.21832647999236,7.0,5.0,-3.823277875838373
08-08,7.647563961481853,-2.6815992615329574,-15.36457676233543,2.8628018119880396,7.69499475312603,-11.60815897266019,5.430880099124422,6.900794599347469,5.377348911775752,5.836790884143687,-13.438741903730044,-38.39824561587065,7.0,5.0,-3.3116789579285015
08-09,9.907785175449911,-1.4413376438536394,-18.307287760286023,1.803980021421467,9.021135420335554,-13.892109814503554,7.930951213501118,7.1883345629836795,6.207830627286224,6.081546823909246,-11.91484037761416,-40.20560358757475,7.0,5.0,-3.134967944912077
08-10,10.046042059030494,-2.212749065627586,-13.268221884241843,-0.07278154762517568,8.140951903693496,-15.692770372422995,8.95308618902848,8.174162362890447,7.695494635243821,6.3182039037581825,-11.697241661173743,-37.45573506651456,6.0,6.0,-2.589296545330082
08-11,12.926451501106598,1.390575683991273,-18.589251723874984,0.47349903889220984,7.406982217273009,-14.530463037131625,7.723521368726366,7.061973083646722,7.963409364476752,6.416083889372802,-13.371154318566756,-34.62271697481094,8.0,4.0,-2.479257492241548
08-12,12.418836922162955,3.2467502308325535,-25.700934055854297,1.5758666833933954,7.439371179909498,-12.827839674272578,4.583975757158466,5.433435670377226,8.818655063451262,8.197964188252058,-13.60256936753998,-33.723784736763015,8.0,4.0,-2.845022678241038
08-13,15.743117808260209,5.318722063363864,-21.25676422991061,0.18264561483306094,7.74253640887362,-12.468275401785727,8.455882965229367,6.927739541930513,9.082456113243614,3.9297866472144354,-14.47733027460485,-25.88266650896145,8.0,4.0,-1.3918457710261622
08-14,16.640620855614458,5.494175728041671,-20.15223564871274,-0.776254314265839,8.815304337305346,-13.016530382637036,8.44215634472837,5.7261840970856115,9.223153217021995,2.6883857777035636,-9.374545339673276,-27.71565353246948,7.0,5.0,-1.1671032383547797
08-15,20.688899441752042,4.873124199534538,-18.949974732047547,-0.29223716422303087,10.44836109384033,-18.100850690637273,6.997555188289876,5.97092400600401,10.22387664387556,8.72143486426351,-8.750541951592574,-21.800581079939725,7.0,5.0,0.0024991515933094157
08-16,19.848266719487068,4.718991050237341,-16.83756071235834,-1.056174099404291,13.129224693441058,-25.87153488093326,6.179639679293459,6.272067210923173,12.32848128610198,4.694950629437592,-9.631766308946299,-20.445138847479637,7.0,5.0,-0.5558794650166795
08-17,21.434826750004852,3.6354393295094933,-16.121066761869955,-2.215484178299204,15.668836573361016,-25.751437154497793,6.726505858215287,6.313605024276988,13.729957644033533,6.064825375348663,-14.107632750788785,-23.710798077887336,7.0,5.0,-0.6943685307161029
08-18,20.898950240729764,5.4683559755735756,-9.237092894486846,0.6167803221549036,15.15808112144341,-19.57582226911022,6.2601949097760485,3.947640463943881,12.968335802634485,6.363713038409337,-12.361007304828519,-23.205741068847356,8.0,4.0,0.6085323614493724
08-19,19.26946880592304,7.564897819978181,-4.274822808272996,3.6662548331853166,16.23785832185792,-21.390496769902754,10.15388110098088,2.8789173624680005,13.908030830571166,6.126292624155362,-14.124372558395137,-21.238707882298414,8.0,4.0,1.5647668066875469
08-20,21.022119346535867,8.616556045276994,-6.068043962404265,4.920165111117139,15.1791097635913,-21.674039931059415,11.946288851995874,2.7831100920506233,14.120056375316443,4.469787559400241,-12.481669255117978,-15.808813953777252,8.0,4.0,2.2520521702437972
08-21,18.338537970891746,9.473994178078634,-0.38363385716463766,5.6143711737582835,16.70415166478509,-17.442759267975976,14.445713588169642,2.104584067729808,13.418167524638067,3.8704857245734066,-13.259021524001206,-15.954039318092757,8.0,4.0,3.0775459937825076
08-22,19.629037565004502,7.790510392518837,1.729832963411467,5.492879485422366,14.879544398247752,-16.498569634909806,18.33509712297782,4.092151787875553,12.849167523059462,2.347261286125158,-13.089719833124578,-22.492410923547858,9.0,3.0,2.922065177755057
08-23,19.68011980759154,8.3799432276133,-1.2518475472152883,6.745096177576946,14.78317599514017,-16.36481237126525,18.392836226201517,4.050072136545152,11.94910264242562,1.8135820080411318,-11.34388156679627,-22.188542785595477,8.0,4.0,2.887070329188591
08-24,18.40972687851878,11.496206372830347,-2.332986637402856,3.679133319132102,14.762372847568745,-12.402378229205018,17.331101521398548,4.55501190076427,11.633248894251716,0.17846442401668858,-6.78391381829185,-26.22438262891953,8.0,4.0,2.858467070388496
08-25,19.937592309596795,12.644829519385508,-1.0533613887280464,2.622426568013762,15.144474323779741,-17.236888019099407,18.40534542088797,4.909918325047725,12.732336501375718,-2.0645174416162635,-3.852235614391076,-26.36674948137164,7.0,5.0,2.9852642519067323
08-26,20.40025671015658,12.327935150766239,0.8497067414732498,0.8986977671139863,11.953598710613528,-18.822637002820482,15.266174626261655,3.9411983984772276,13.994018277816645,-6.776456617328942,-0.43091124280435916,-23.177675504592006,8.0,4.0,2.5353255012611102
08-27,20.21869708124133,8.128657107356284,-0.5160311937355044,1.382112756527199,12.413141029039586,-17.964593212067918,11.66666874148251,2.6490101305024263,13.557215356496652,-11.786322035206775,0.3892115232063394,-21.71676250064818,8.0,4.0,1.5350837320161628
08-28,17.844328183748946,10.158015205087521,-4.604669290753065,1.6982812152171622,10.636626018749054,-16.049247985950153,9.50486095935327,1.6510184628552131,13.260530210775212,-11.145658469080825,-0.8201227660106984,-23.193818054492105,7.0,5.0,0.7450119741249607
08-29,17.107990451223433,8.553527353949072,-4.724325062133907,2.393851824335094,13.415640919628238,-19.305102143180612,6.091859777235219,1.0853049778860167,13.520540607064923,-11.90879919194835,-3.4875671719572425,-29.80246136977445,7.0,5.0,-0.5882949189727137
08-30,17.02200900597435,8.563078941843767,-5.46785504394451,4.345074698459717,14.38617479198837,-21.802554238110098,5.308342867770502,2.24658097301526,12.979722474132863,-11.006348593380261,-2.3592701507636917,-31.116245667373395,7.0,5.0,-0.5751074950322606
08-31,14.56033835510537,9.283624886517128,-5.913976523945844,2.1680162264200487,13.150973431622399,-17.715845993959185,7.642414538229978,3.9613648253279337,12.309121471896953,-10.951582268874288,-4.33496702233281,-39.46478773749018,7.0,5.0,-1.2754421509568747
09-01,16.197928610701414,6.077693781318551,1.5295112289505457,2.757515143757965,14.399183537722344,-15.655537701113378,10.343205776348698,3.4772126512894936,13.01919319173202,-15.327321882911226,-3.230747491574836,-39.06490747041207,8.0,4.0,-0.4564225520158735
09-02,17.02859741991195,5.740472337780143,7.175879185916834,4.180906999891133,12.144406883437425,-15.655537701113378,8.350043347809597,2.081497055205038,13.724501356626403,-11.53444974177127,-6.478015410674994,-34.42018769344104,8.0,4.0,0.19484283663148716
09-03,18.732519673422082,5.631006394599422,2.761938065832896,6.155033307950058,12.144406883437425,-15.687749426853292,9.436389162298335,-4.877243697649164,14.01822330527487,-11.714452626050146,-6.478015410674994,-26.964967672210477,7.0,5.0,0.263090663281418
09-04,13.703161816778689,7.661081121818805,-1.2575708728399133,6.155033307950058,10.979871818726975,-13.435262660641689,10.436807505795807,-4.025886377262999,16.052398105368283,-11.714452626050146,-8.546389993548658,-25.992982695379812,6.0,6.0,0.0013173708929494765
09-05,10.16225656582128,9.238795760854162,9.454395818926601,6.8246176444602655,9.51233284825664,-10.65754542680222,9.771111958329163,-4.277544848489339,16.052398105368283,-11.913806235100083,-9.07517116879114,-16.159317378674725,7.0,5.0,1.5777103036799078
09-06,11.277109169098267,-0.07897077539058903,9.454395818926601,3.8244299250082867,9.64353275162147,-8.669099864703332,12.198975306292814,-4.277544848489339,14.11672921318187,-8.055010440186589,-7.434997613602647,-16.590523407611727,6.0,6.0,1.2840854361787575
09-07,13.669405914363672,-0.07897077539058903,5.59142304809561,2.0138886773292,10.798000704469304,-12.328317493691468,10.18850171645934,-3.716733189660685,13.938804176298836,-11.841722449704324,-8.56289503262138,-13.290790216000348,6.0,6.0,0.5317162566622641
09-08,13.669405914363672,-1.8388958310488472,10.776765881084867,3.775358381034751,8.946754694987641,-5.525499763060059,10.18850171645934,-3.638139017707188,16.956938967180022,-7.494124433525519,-8.093497758240463,-13.290790216000348,6.0,6.0,2.0360648779606563
09-09,12.731536016196838,-1.223243651439073,16.089693706972575,7.853747800794876,7.353943352609245,-5.421435137562129,11.032729016827195,-0.9259242329674761,17.791696841982727,-6.512622514227011,-12.01344448477657,-16.14872238340247,6.0,6.0,2.5506628609173947
09-10,12.73429426322911,-4.051457299585253,14.885833578295445,6.333332061767578,7.4388583758218,-6.149847820966306,9.725920600653126,0.48164074362874515,17.117538561200703,-4.736599264013324,-12.153459153895637,-6.7415776088404975,7.0,5.0,2.907039753107958
09-11,15.938020773739684,-3.1634270735711243,15.50387840642609,6.308333079020183,5.372512186342433,-4.1325616726728605,9.52268727202743,0.4070236192520284,15.71935324264253,-6.477324412265774,-13.455615873328547,-12.926538951167881,7.0,5.0,2.384695049703683
09-12,16.56926941034772,-0.3261257296712637,12.33839186846219,5.849997202555338,2.0923162953602805,-1.7779975779068213,10.472065308401529,0.48164074362874515,15.201763952840938,-7.136968214957248,-6.609583332355075,2.828090214606287,8.0,4.0,4.165238345109384
09-13,15.452954507706165,1.6936476186706777,11.686860393579813,0.5096280167560673,2.6438957036460526,-3.4619326518876905,11.723263237721811,3.2430683606976514,12.680919318258436,-11.225564562469694,-6.2784506465988725,7.1580956531527615,9.0,3.0,3.818865412436099
09-14,14.581721509262465,1.7895189117238732,10.668841493217622,-2.7069561599601464,3.295417904375939,-3.2000037084651898,8.2693223894436,5.330197303507569,12.406948035361713,-11.667138005266589,-16.011920541436904,6.5378231649790575,8.0,4.0,2.4411476913952512
09-15,11.512464697671398,2.449931284248658,9.6361448434895,-1.429068803694884,0.7779790570160019,-4.458800955691938,7.285165286914042,1.8136676616534853,10.862498002919567,-16.088889793113424,-16.850864128594388,7.921736356267786,8.0,4.0,1.119330292423817
09-16,7.778389632206545,3.3046441294034805,13.316025564522723,-0.9715499292520573,2.159803798597319,-7.851582465968004,4.056645782282608,0.48135042531306305,10.92283757679152,-19.305729720403438,-17.945184781391212,2.505366835799173,8.0,4.0,-0.12908192934152304
09-17,7.078551510604653,3.193918896182039,15.42834636672959,-2.6817227409663085,0.9972868962880516,-7.820833408928644,2.485002715911205,2.837718218340462,9.192932620988495,-19.853167412348512,-11.857871557604819,-1.7288143226095483,7.0,5.0,-0.22738768478444496
09-18,7.50282416909428,5.08492581707695,14.263382558679494,-2.223003378174185,-1.3749477634565432,-9.525305193695486,7.282672174795783,4.779524857409705,8.198497936616125,-21.800751830272862,-11.995591531823958,4.593389192828977,7.0,5.0,0.39880141742318975
09-19,10.217607560727554,3.6463477029615645,12.841394370508693,-0.18524972066159287,-0.6247407143473178,-6.326404699259179,9.753513602034266,5.42952961842772,8.119577059368234,-22.534922548069968,-12.79889748655998,14.421162780329787,7.0,5.0,1.8299097937883155
09-20,9.668820018960716,2.7059940795829545,13.477008010523106,2.2469012810499263,1.4645872879635597,-5.594187311893044,7.785016211773153,5.061961387347929,7.083662452585375,-17.34423012279428,-10.23407226390228,14.421162780329787,9.0,3.0,2.5618853176272416
09-21,8.406580193888434,0.6099539021092057,17.141723823350247,2.3313630439630217,-0.20175428985921656,-4.167093038933098,10.135061336657355,1.7853439989949265,7.4336989971817955,-13.555135503707566,-12.44736858164892,14.421162780329787,8.0,4.0,2.657794721860497
09-22,5.307639393572323,-0.21071580932080702,20.89259672687797,4.5527371200499145,-0.5777599763115683,-3.467910067340079,11.661773490582783,-0.2924022992950287,6.975596596287192,-17.292591937957873,-13.821016358873706,15.214989952246885,6.0,6.0,2.411911402543167
09-23,7.358574415700921,2.6490092554966678,24.652489799661325,4.5527371200499145,-1.162234880593941,-2.552623268683016,14.2219617068017,3.65002841672989,5.076894126509545,-17.292591937957873,-11.19900078856137,19.77948777908908,8.0,4.0,4.144560978686903
09-24,7.903814153141578,0.9143701403747875,20.133320905072953,3.5689969224426563,-3.0972910529944917,-3.8747050621842583,11.361160576274512,6.70011095996398,5.076894126509545,-21.131298480307485,-9.020261199307827,19.184117400151244,8.0,4.0,3.143269115761433
09-25,8.708220970273315,1.3513513513513513,20.133320905072953,4.241910811079362,-2.6719427047639104,-0.925179149595681,11.908503769777864,6.70011095996398,5.2823161057818595,-22.743257757408212,-6.536218767760629,17.42006169126943,8.0,4.0,3.5724331820868067
09-26,9.129057636536803,1.3513513513513513,19.267216682428028,5.792166067611902,-1.641957840283348,-0.13760506446628548,15.913769454055235,6.308381146850114,4.711785110148146,-22.42086441128967,-2.4140707179944974,17.442117119201107,8.0,4.0,4.441778877845739
09-27,9.129057636536803,-2.874862614984957,17.235209694680446,4.181481688613499,-0.3408767862827831,-2.3202141870571866,15.913769454055235,7.043139835106732,4.269136150840764,-19.81132075471698,-2.7264084825406645,17.442117119201107,7.0,5.0,3.928352396121001
09-28,9.508758337838037,-3.4723809887523625,21.783535175981722,5.832418637369233,-0.053192467989822544,-2.3202141870571866,18.45196053217581,1.3750368476465036,4.695340894787799,-26.683221013792746,-0.9521281414567848,17.442117119201107,7.0,5.0,3.800669228829276
09-29,7.803504713681885,-5.772269360470927,19.462942596072825,2.10887188366379,-0.053192467989822544,-5.3028788464898104,17.629788869901528,2.0103061322084557,4.839667146474477,-26.28243059977948,-0.9521281414567848,20.198456792979293,7.0,5.0,2.9742198932329527
09-30,5.691700442496268,-3.5300646561428604,21.855397832150484,0.7733745007712142,-0.04728240691349411,-2.3568315377757316,14.49377076151466,-0.7605706418078882,2.6447599656577885,-27.013250975282837,-3.212345210616263,20.74972472773491,6.0,6.0,2.440698566815521
10-01,9.653323064422757,-8.153396479187077,28.43393003144979,1.856464169353008,-1.743497045773933,-0.11370747651502015,11.89991929446778,-2.8244349579228327,2.664258944594271,-24.78559283235381,0.4589094899859826,23.131197831805085,7.0,5.0,3.3731145028605005
10-02,7.417174104910615,-7.2853619267735485,30.35732329812585,1.0399648477363648,-1.8676144911964812,-3.178481846996388,6.047304666516286,-3.9701407096690433,3.303482283407183,-25.277059078218834,2.9342240340662897,23.241449736419973,7.0,5.0,2.7301887431940224
10-03,4.601683230248178,-7.6110224898604955,34.056289694602846,4.529434217602138,-3.2265881225133297,-11.358392914516648,3.332133248385486,6.25243488353973,3.9800995024875623,-25.643258264019703,2.0870797070860787,19.603086414041453,8.0,4.0,2.550248258923608
10-04,6.546606319357706,-4.463608086742147,28.995560845452257,5.287318304126449,-5.812118992660984,-8.99816445018641,4.045212852384066,7.19859295266285,4.149251909398321,-23.475864435636034,-0.028204009359728097,19.603086414041453,7.0,5.0,2.7539724685698164
10-05,5.258921109481701,-6.220675268463039,25.968763607831473,6.5550067203146005,-4.745455655184659,-5.304532806479881,0.2597070033236835,5.01365544084426,5.639167963522083,-26.851230421751655,1.4550060262408488,19.603086414041453,8.0,4.0,2.219285011143405
10-06,2.882069827053033,-7.519370944204021,23.398028039978534,6.3288965405536874,-4.441628168529401,-3.5838705629213266,-2.448671422945286,7.264917050454953,6.529978604186358,-25.670317393454344,-1.4248377062032827,20.639464411438876,6.0,6.0,1.8295548562839812
10-07,2.732802105288978,-5.007454632089415,26.969575556895236,6.280935817702396,-3.4105168322342156,-1.9716748348834678,-3.598807829272154,7.0368185585945096,4.5027243091000075,-20.090649429358578,3.178349505248875,19.051818479285814,7.0,5.0,2.972826731189832
10-08,-3.2581185944839093,-6.1019856529289385,22.230924309622363,7.496631935956271,-2.5907986026152394,-3.0065298639258784,-7.470061996957098,6.863869645592491,4.360754667333073,-24.752572510588404,4.607910554062365,16.934951628627644,6.0,6.0,1.2762479599745615
10-09,-2.9057066591987915,-5.488451426065513,24.292111617700776,6.4605779060654065,-2.626697338234746,1.1182805543304772,-8.460685015191965,6.4249304864349845,2.3872148450143227,-27.17402372597285,4.802229795023981,17.17750245410797,7.0,5.0,1.3339402911678377
10-10,-3.7928329498237248,-7.388629642720346,22.92535707758716,7.76617345510546,-5.732250240442636,1.0137720869920799,-12.915075498859647,6.027236489272863,2.103987273126612,-21.523975777423722,2.3799302492376886,15.744210870751996,7.0,5.0,0.5506586160669823
10-11,-6.252201561354472,-7.9826473470310635,22.21682972032415,7.206825562107048,-11.840797926772492,5.023245472885761,-11.567887561069291,7.2249549074995905,1.9522560117946148,-19.08352689445688,6.368306034040345,15.744210870751996,7.0,5.0,0.7507972740599422
10-12,-5.706615999914509,-7.277664789548689,21.430653297737884,7.302939758208979,-14.493485681931533,6.0459891165383794,-9.760145182379816,6.983479003947283,3.0786197926628667,-17.922980007172118,8.482082289125477,15.744210870751996,7.0,5.0,1.1589235390021833
10-13,-4.59796323930065,-7.104125020128528,20.282218612523707,6.353523438078682,-13.652627162962835,3.491184177133459,-8.803268394575012,8.986943941436962,3.7553507978755194,-20.509291906518275,8.885614941054667,14.79602935003781,7.0,5.0,0.9902991278879587
10-14,-6.710234375278233,-7.351185658161596,19.05541845114834,7.142258163204524,-15.870986767936229,3.39901434095842,-9.441186253111548,11.244710131019188,3.952178674225152,-20.08425596286106,8.678178500657904,17.04520353324253,7.0,5.0,0.9215927314256157
10-15,-7.465099062412797,-10.236915609396522,19.435921619506352,8.68808849541754,-15.173433730557273,-1.5900417546499617,-11.460730429134411,11.386188078305285,3.061427734538455,-17.935148017814594,7.25860225238287,16.03086414041451,6.0,6.0,0.1666436430499544
10-16,-7.855891071578363,-11.719961676380757,17.35025008922906,5.797581682830632,-16.658133683831746,-5.0771310174148,-16.838030061587318,13.174708893150136,2.73164227560846,-17.63687268087293,8.691573621155749,17.48621956338328,6.0,6.0,-0.8795036721923832
10-17,-4.381014615789631,-10.561920506288777,12.622083007355563,4.555242750795497,-14.542813014987743,-5.615373763911366,-10.34347760227766,10.008636788031463,2.491500332535911,-15.597035540146523,12.957896701915464,20.198456792979293,6.0,6.0,0.14934844418429094
10-18,-2.777772698902397,-12.438968866873232,7.6741458263354225,3.1727297852110663,-15.57664969699761,-8.694640399281813,-9.71538707677342,10.632378781687974,3.281967879898631,-15.287368414648483,14.637694707985396,20.198456792979293,6.0,6.0,-0.4077844482815974
10-19,-1.1145653657039951,-10.386152158330402,5.688521548270067,4.975206551161613,-15.387505312253522,-8.529309478658957,-11.886535810142021,8.780348916865357,3.8940157338269175,-17.57593526785136,13.156205260178872,20.198456792979293,6.0,6.0,-0.682270715804845
10-20,-1.1788727170685702,-11.096315684898563,7.518007115597778,7.324130380214659,-15.452561459996165,-1.7774882131127636,-11.965698324089823,8.670125736711586,1.7351665762700073,-20.8294367594081,14.147943461354062,19.999999999999986,6.0,6.0,-0.2420833240354927
10-21,0.396522480836164,-9.159209722533992,7.2276797057090585,9.530340326904046,-13.777782298900462,-5.365371321479115,-10.527698425144068,9.730771871713504,2.9426507192905236,-23.657054949899265,16.044165855982303,22.557882880798893,7.0,5.0,0.49524142693979883
10-22,1.167191014052334,-6.152503002404436,4.698124807059821,8.444260184229476,-14.290119689187902,-1.0204085049416947,-17.05320529273871,9.5284115679253,4.397120251457863,-25.02688298874012,13.674149576658046,18.56670000496289,7.0,5.0,-0.2555968393055945
10-23,4.077453911314503,-6.560244981479156,7.032764421556867,10.036744460947281,-10.148149655189043,-1.0275874624079882,-19.59960792410296,9.247771012857541,6.345373417742506,-19.50957059015393,10.733334519854603,17.287762770404004,7.0,5.0,0.6596703251120192
10-24,8.269090325454233,-6.3393316550608025,7.231613823642248,9.595753607871915,-9.738093913032564,3.073035436860736,-18.704625465691727,8.707947381209449,6.818618404643069,-14.153576637544282,11.421536959134615,22.976843483007983,8.0,4.0,2.429900979207906
10-25,11.158838505993293,-6.3393316550608025,10.857612170477259,9.60842993787354,-8.853547229219656,6.974539684088818,-19.452803761605292,9.634329194340413,7.13733757417825,-19.367066298793944,12.315509138843899,22.976843483007983,8.0,4.0,3.0542242286769805
10-26,11.158838505993293,-4.473538904375676,10.959464354028151,8.265663891346934,-8.2482753050558,6.974539684088818,-19.452803761605292,10.151149051507439,6.3936668804773635,-18.74303554180819,14.045487655444521,22.976843483007983,8.0,4.0,3.3339999994207954
10-27,11.250895343853006,-4.484452309791856,5.4389936348407675,5.72954750225772,-8.829497364804686,8.27715284079992,-18.464403152040582,10.541204160210883,7.409494467774219,-16.937884961568432,14.787712410430329,23.748615226993405,8.0,4.0,3.205614816579558
10-28,13.807917012910508,-2.971806490082878,3.203499915815185,5.115255315641106,-8.415549818369982,5.092836298728493,-21.458249363725304,11.955778658038811,7.076838565830541,-23.147477870980918,15.224907384008803,28.31312146551675,8.0,4.0,2.8164225894442594
10-29,14.065475160282972,-4.669222979720409,8.995620881110861,4.162900091276532,-9.996438769368556,3.402143225911435,-16.05373023439189,11.379006909002701,9.030257336728452,-14.664572834056507,14.318100882428123,25.09371033366616,8.0,4.0,3.75527083357249
10-30,18.810894635620944,-6.602304446187822,9.675791964809068,4.162900091276532,-7.173426671976017,1.9457754084788097,-16.929992665722153,11.819780220761372,8.148765025210938,-18.563888829113832,16.931148103292955,24.498339954728316,8.0,4.0,3.893648565931592
10-31,17.972579835509553,-6.768166382182455,7.26877017707411,4.162900091276532,-6.177829639375122,-1.3110246865641753,-22.102429143443768,11.047715876398257,7.834992447350054,-18.37284960850377,17.14286157287011,22.49172500868506,7.0,5.0,2.765770462424532
11-01,17.42721467450721,-5.351460821106541,10.949818457754827,3.905286612893119,-5.805150066705334,1.0707114561911975,-21.07188652216785,10.31972228854212,5.601697730374832,-20.385176582373273,14.421455318488224,22.49172500868506,8.0,4.0,2.797829796256966
11-02,17.42721467450721,-7.182799919949505,0.4147672291090495,5.28652507635823,-8.453536735741341,1.0707114561911975,-21.07188652216785,10.53615240895597,4.992620553374699,-15.271987181861169,11.366366391167888,22.49172500868506,8.0,4.0,1.800489369885786
11-03,16.389641576766184,2.7963625216441024,-3.7225178836673845,1.5175811841288407,-9.62653123561083,-0.6688271488597645,-24.419751729680094,9.41465769913226,3.642228731576027,-21.515085184302798,10.559530298206633,22.77838669002871,7.0,5.0,0.5954729599468241
11-04,14.072724955898686,3.7711161683625685,-3.702189842362178,3.29497750373968,-9.30648874927929,2.610569847479607,-21.634555739335482,9.36018546781117,0.8803674778951893,-21.94702395433946,12.022444410216211,20.529212506823978,8.0,4.0,0.8292783377425565
11-05,10.90982597474958,3.0631254125181155,-2.700229392987245,5.554659386829351,-7.084127531623532,-3.667747182103185,-22.46140840285796,7.5865462756744035,2.1409001847667466,-17.371148612453872,11.640400849252877,21.499449455469822,7.0,5.0,0.7591872014362586
11-06,7.142861623488045,3.1293984162417625,0.2759968336319664,1.3745124062479857,-5.243090588516161,-7.49429949902215,-20.454860206624133,9.764342786320586,3.578834589183619,-18.452710636879726,14.73257360621231,23.748615226993405,8.0,4.0,1.0085145464397922
11-07,7.9497867562128555,2.9086176719433197,0.4134247308646307,2.9754206792492868,-3.975274141771734,-7.92498412541653,-22.517224989507937,9.834010974046597,4.363115436734864,-20.461318607925577,11.171858324300592,11.11355517179597,8.0,4.0,-0.3457510099561382
11-08,6.80786676361089,3.1084183793622775,-0.31499885397613203,6.772430054309517,-3.889164590558911,-13.63636323628212,-21.731079552297146,9.901565203894876,5.949696615851492,-16.538843004921414,12.107308123505529,11.11355517179597,7.0,5.0,-0.029134077142097443
11-09,7.117010044372122,0.36824863050179596,3.307405356903074,8.966618549325842,-4.5299307902949195,-16.969482330943585,-26.812244702290982,9.834010974046597,5.561062044754818,-12.340294072873407,16.530984105601032,11.11355517179597,8.0,4.0,0.17891191507486326
11-10,8.34338839131062,-1.678755974899087,2.0655903855439592,8.91340258587976,-2.7569617479502377,-17.71032461851888,-28.609628971390567,11.086583814479035,6.766511956663243,-7.131518052506459,17.32556956219375,6.968026358844015,7.0,5.0,0.29849030747076283
11-11,9.27824994518386,-1.3897876748207705,-1.5425186237892023,7.555983002687324,-2.8000948573726814,-18.009081787601414,-23.76708269835321,13.116619658254464,7.319670008884375,-5.998747443789323,15.479731176953393,7.585443754032349,6.0,6.0,0.5690320383557638
11-12,9.832574471171869,2.3445778001135915,-1.56601595653881,7.919437803659919,-0.19187392166984107,-16.586994745218085,-24.79377266105616,10.036882813844027,6.490018851864557,-2.0768197478477237,16.086553711324107,10.71664158583742,7.0,5.0,1.5176008337904061
11-13,10.651189022422319,2.6540249858460463,1.6584534265287911,7.5022054723383675,-1.6069120723023973,-10.324587366800628,-25.534194465963928,10.367505863160096,6.740472196916173,0.6754771467372601,16.86512061501972,5.909592933514913,9.0,3.0,2.129862313118061
11-14,7.7542293230890795,4.445366383262499,-0.5815629395849852,9.04276409486747,-1.5988012987696483,-12.234169551387932,-33.17104343326838,11.666029429451878,8.517097342721659,1.129148824493303,18.016998896180063,0.0,7.0,5.0,1.0821714225879167
11-15,5.124711259153955,6.152906579382708,0.7851095986910304,7.882628812284766,-2.7396483370929174,-14.01017162300446,-34.758428771500114,9.86465750547881,9.50808081668101,-2.491922440340885,14.825540493585676,0.0,7.0,5.0,0.011955324443298535
11-16,7.395666120033866,7.5540612989987865,2.4037954556109895,7.132053872769524,-3.095556925707922,-13.272985233452664,-32.13340086483119,9.245136406334055,9.445586670185877,-8.599147275191,16.674456345400333,0.0,7.0,5.0,0.2291388225125551
11-17,7.958263716540515,8.447558001100152,5.9610367694375785,4.853203011413613,0.047450669133172294,-9.813085046708087,-29.31277189453197,11.990089640297166,11.724856758348832,-7.308899393063889,17.456271719205766,0.0,8.0,4.0,1.8336644959310704
11-18,9.22668174647885,6.477812358410989,5.814402267255158,5.187848075883142,1.080063589632801,-11.317529686510484,-32.69441164965895,11.597229668952938,12.324973969718513,-7.221830825695684,17.846433143624633,0.0,8.0,4.0,1.5268060548409919
11-19,11.08838352128858,5.007154603839832,6.822591922393434,5.392041148706747,1.4498715730534228,-12.069756354140608,-28.798510026881818,9.222887633546982,10.538845588293686,-7.134895151688634,18.83790262890436,0.0,8.0,3.0,1.6963764239429988
11-20,11.765304876833547,8.033407918033998,7.433473769506387,6.357183573500739,2.0192547717079696,-13.334858516640091,-26.61660212778967,9.30034591939879,10.649164509720183,-3.7397410660615726,16.924141880002832,0.0,8.0,3.0,2.3992562923510925
11-21,8.970787854873764,10.08942217197921,8.882984119173527,5.766932438813174,0.6163436534373969,-17.57771790020154,-31.12592995738587,9.231502102535153,10.45538205304032,-7.4288050745719785,15.47152236505959,0.0,8.0,3.0,1.1127019855627285
11-22,9.419618194840554,8.813093677289869,9.860490764754658,5.08894053046229,-0.02938729639923091,-10.242498339121905,-35.40505135234397,9.611010186110173,10.517046216672387,-2.057361727950043,16.12272962597817,0.0,7.0,4.0,1.808219206691079
11-23,8.460501786528072,12.559153377902327,13.058747060416895,5.585972374605625,-0.13612435984839832,-11.451914830234248,-37.068388768553824,7.969640801016925,11.011899892244138,-1.665819127357535,13.820186675576421,0.0,7.0,4.0,1.8453212401913657
11-24,8.076402607093872,11.474762529084071,13.52302896541548,7.997475602515467,0.023632504368316504,-9.962443728581317,-41.3346564033751,8.755584058097982,11.11305305520989,-1.4745154069974336,12.517853590976399,0.0,8.0,3.0,1.7258481144839688
11-25,6.872212831670359,12.273088364736843,11.913532841450879,7.78656005859375,1.4733279532447674,-6.847798636568041,-38.66201270235895,8.997817155525643,14.552302725911748,-5.864134079479607,11.517631624277874,0.0,8.0,3.0,2.0010440114171058
11-26,9.690437245917218,12.583565570339985,9.479168826582487,6.4929847487944645,1.4675077186973124,-3.8988278590700682,-28.658818263633577,9.655903684681974,15.291918875656144,-6.182045396675189,13.455281223406384,0.0,8.0,3.0,3.281423031224761
11-27,7.2514614285243635,12.297259140292583,8.570068342735002,7.751501538232715,3.0806012737694384,4.028330417288026,-24.23508151099002,9.847607112673751,15.742383163426304,-5.5710855031786135,12.925741168761956,0.0,9.0,2.0,4.3073988809612915
11-28,8.92913893643814,10.663864256520617,10.504635780511162,6.7334681570171595,2.464975003889787,4.482872181718579,-35.46030215697315,10.038498702599084,15.72550408614061,-7.455728457072865,13.356959624346262,0.0,9.0,2.0,3.331990509594615
11-29,7.139791249148292,12.768867534673166,8.032950470721023,5.880469317338575,0.32018291742001925,5.512838585878986,-26.351661135172556,11.029835337989162,15.16839793664389,-8.463598866449596,11.208512359762697,0.0,9.0,2.0,3.520548808996138
11-30,6.385974201597342,13.03285294304569,2.874262489464135,6.106804583288684,-1.7890152913581414,6.193550684118784,-26.275163751380354,1.3282048725175188,12.882075475987847,-4.248233248532356,7.633087840174537,0.0,8.0,3.0,2.0103667332436403
12-01,4.437708086596725,10.41259449842177,2.119332907592482,5.603864134854271,1.3275931135612693,0.9761641603253638,-27.213566580873028,-0.34486120553350724,12.610392497226613,-10.203875934688337,8.124596869938285,0.0,8.0,3.0,0.6541618789518252
12-02,5.736554915868563,9.094430401596549,1.498276168686993,7.641408847549144,-0.2125758375282262,-2.4971675547564782,-22.38535036149843,-0.8163229596059387,13.321323156095538,-9.34560292008179,5.789191521766722,0.0,6.0,5.0,0.6520137815077208
12-03,5.081413416378747,8.573101550940649,3.038644974292916,7.188095197111304,-0.5041007359991222,-4.199778253938972,-18.00961839574604,-3.2213460815594215,12.260133143767698,-8.707897363351732,8.464201040741191,0.0,6.0,5.0,0.8302373743864351
12-04,3.7049309245304194,11.288657021459702,3.7968709275213266,7.23559168122998,-1.5062320548200632,-4.600153154232353,-13.334274385139203,-2.835201025304083,12.130432128906262,-4.645553432230323,4.112318822185557,0.0,6.0,5.0,1.278948954508935
12-05,8.665626524581329,12.106537839929219,3.578848782736964,6.016464924384015,0.45145366758343697,-1.9319344538765688,-10.276460384789202,-3.4257416677947092,12.260868238366168,-2.6948219079086884,6.897920572387729,0.0,7.0,4.0,2.6373968446333076
12-06,10.058747046292805,11.991794914699708,0.9537319373726858,5.2968495509443985,3.1469450703004083,4.680063076920413,-13.445500724996897,-2.940595268022896,14.034782077955162,-2.953629430759445,-1.4401253183710285,0.0,7.0,4.0,2.4485885776946095
12-07,10.21605001743301,13.549047993972192,2.710106426089791,8.748061505019619,2.2257981830399896,8.431103024633984,-8.548225945723148,-2.5049492864325495,14.418122130424019,-4.815379069000832,-4.399606653789592,0.0,7.0,4.0,3.3358440271388727
12-08,12.294235929457297,14.024618813059991,5.493995040463819,7.5104073295890625,6.192906826438925,7.353713436774837,-9.858951315355831,-5.235183300203249,11.025438482251566,-2.3445380312430695,-1.2089097479553648,0.0,7.0,4.0,3.7706444552731644
12-09,11.841558506390545,13.843997451974715,4.895037599369562,8.608914249921963,5.5824262922346355,6.345205127235104,-11.668321024562758,-5.458682755664102,7.621393446687005,-3.4163707803571364,3.2965617325428473,0.0,8.0,3.0,3.4576433204810315
12-10,6.706139133052778,15.012173592949004,8.186438948482824,9.207985640946227,4.883878241262683,8.824457727112124,-14.231439971248196,-6.148450421713441,6.520733146292076,-5.749634811551655,2.8682759589024682,0.0,8.0,3.0,3.0067130987072406
12-11,7.333617826656148,14.101714088520346,9.070453028693953,8.436797228729922,6.704884242652,9.699554625479927,-11.676114100978328,-8.889802626414504,4.320287150276139,-6.123933635849111,3.0889095243951488,0.0,8.0,3.0,3.005530612680136
12-12,1.2994129914973658,13.421157790455714,9.30712195979717,6.886712756439612,8.59451624222132,9.834009895513377,-12.319158654947673,-7.835747390698855,5.199470659359142,-8.057808250581743,-1.1071521121415369,0.0,7.0,4.0,2.1018779905761584
12-13,4.389677898974196,12.746513120724106,11.595762323882662,8.676891242593584,9.903680298888986,11.05784361418466,-17.18250480515791,-10.05706420212502,5.520889019932222,-10.58178749686691,-1.53328771088709,0.0,7.0,4.0,2.04471777534529
12-14,-2.4365385062658316,11.832607776301888,16.379465356234938,10.721789500606654,8.300798914120783,10.41361072420862,-16.826264691860715,-6.185041504559523,1.3855913630180507,-8.194596574113175,-5.712356700399565,0.0,6.0,5.0,1.6399221381076776
12-15,-4.0344574729981435,13.304468117056553,16.01600266394445,9.277032741054887,8.578945001377598,8.433477325880771,-17.4950630431044,-4.117824577581779,1.5189333943258092,-2.1229169084342265,-4.171684327301939,0.0,6.0,5.0,2.0989094095182987
12-16,-5.7456933562618655,13.171523416071743,12.653135378872465,9.791203792099065,8.77733713872131,8.293987103703298,-15.215081314686485,-2.5236568385065543,3.1316615732530617,-0.6065061672204237,-3.356336562584165,0.0,6.0,5.0,2.364297846955121
12-17,-4.861741862404057,11.258474868568346,15.708236011671659,9.453596037283525,8.828740026258258,2.2102978820243586,-11.415111767323301,-3.119088121979081,2.4982897707592944,0.5581404811652132,-4.550279159130978,0.0,7.0,4.0,2.21412951390777
12-18,-2.0755539647717187,12.81220423823406,15.982417850703984,7.245514590074249,7.486722953946795,0.8047210563928514,-8.953634785199254,-2.2226611927163287,6.41625921417668,2.8320391356790875,-6.911646689183739,0.0,7.0,4.0,2.7846985339447223
12-19,-4.077818144188859,11.675522560093164,16.779865253886648,8.345814854704583,5.5850601023404565,-0.2320607428551436,-3.766622107394382,-2.7096807512988526,4.992508171977539,3.8966373571745803,-7.7872153893132,0.0,6.0,5.0,2.725167597093878
12-20,-2.0146549803170486,11.195260722840526,14.689999699713823,6.908684831782126,3.960789251662797,1.9191092091327768,-3.4762124489154216,-2.392063188197891,3.0161119860172683,7.24548024416586,-9.223048795966019,0.0,7.0,4.0,2.6524547109932333
12-21,-1.9707105524730122,11.010774418007726,14.507137377204879,7.320184506258072,5.278035286120823,1.4820192111463353,0.8048569574702729,-1.786603525317914,0.38404238844638316,10.00412235956339,-11.292043901810137,0.0,8.0,3.0,2.978484543718068
12-22,-5.287525307389996,10.476746421336834,14.37651953441293,4.96942927240178,6.8363734865137555,0.26230196873765255,1.4261538274255081,-2.3622801522758854,0.5385846577264685,17.346632807629366,-11.874411135210522,0.0,8.0,3.0,3.059043781775658
12-23,-7.570534926868401,11.204972477805022,16.451288600295445,6.5677303305026,6.284247710392518,-1.1541350663023149,-4.052531430315414,-1.856844009535182,-1.6443741011681536,16.899005745498055,-7.893372891402358,0.0,5.0,6.0,2.7696210365751512
12-24,-6.614379621994783,13.529071492008521,13.414951064789285,3.6266604668477984,5.926426292823208,1.321996158966806,-5.701121705539856,-3.544382691605432,-1.3430942848583867,16.11662114363374,-8.449791514549359,0.0,6.0,5.0,2.3569130667101277
12-26,-8.48984870590196,16.802065176807613,14.395643263612934,4.584344427248023,6.671107364478339,-3.0083419067689348,2.3819432800311136,-5.136883214330527,-3.4023307689068387,9.91091418962359,-10.080278822802162,0.0,6.0,5.0,2.052361190257599
12-27,-11.144473623560886,21.21688676681877,14.395643263612934,1.9429245762023408,4.966290077466643,-2.610683691843503,-3.6312868900367965,-5.136883214330527,-2.409983092897907,6.879913648214894,-12.033419236416957,0.0,5.0,6.0,1.0362440486024174
12-28,-7.822615425256012,21.339274554558475,16.617673017591,5.369391993116379,7.2339180900732245,-2.969109488681496,-1.3952837565332115,-4.2243440973533595,-1.2699604602287027,8.3848029295342,-17.851516340719485,0.0,5.0,6.0,1.9510192513417504
12-29,-7.110483724850185,20.281490577874436,15.836907251710045,0.8047924403017248,9.048909726350205,-1.3974019873330563,-2.2583425929736687,-3.802397351723534,0.8453534443319202,7.9577846074167224,-22.98850875797348,0.0,6.0,5.0,1.4348419694275938
12-30,-6.614153251222691,16.719613756095654,16.197363182665292,2.194331242487981,10.239216953395056,0.35472625538517444,-1.567899913576711,-4.9844187645388445,0.1735270944548885,7.134495065875525,-30.36392151115609,0.0,7.0,4.0,0.7902400091554366
12-31,-4.376745095073599,18.201339004823826,12.255669833703365,4.829811961751077,9.976403057257615,1.031924214844015,-3.343067029966925,-5.750175715289801,-2.2068454801510184,8.238638210887734,-32.53164734983267,0.0,6.0,5.0,0.5271088010794683
