,2009,2010,2011,2012,2013,2014,2015,2016,2017,2018,2019,2020,ups,downs,end_day_sum,avg
01-02,-10.174999237060547,-2.864997863769524,7.790000915527344,6.2050018310546875,1.6199989318847656,11.224998474121094,-2.519996643066392,-4.94000244140625,-3.4899978637695455,-7.880004882812486,4.430000305175781,-24.139999389648438,5.0,7.0,03-02,-2.061666488647459
01-03,-12.539999008178711,-2.7749977111816335,8.170001983642585,6.2050018310546875,0.7649993896484375,12.430000305175781,2.3799972534179688,-4.660003662109389,-3.4899978637695455,-9.510002136230469,4.029998779296875,-21.729999542236328,6.0,6.0,03-03,-1.7270833651224784
01-04,-11.314998626708984,-2.279998779296868,8.275001525878913,6.135002136230469,-1.4000015258788991,12.634994506835938,3.690002441406264,-2.6800003051757812,-3.569999694824247,-9.76999664306642,2.5,-25.580001831054688,5.0,7.0,03-04,-1.9466663996378586
01-05,-9.784999847412106,-1.6650009155273438,8.180000305175788,7.380001068115234,-2.099998474121101,13.769996643066406,3.809997558593736,-3.1299972534179688,-5.709999084472656,-10.72000122070311,2.2999954223632812,-26.01000213623047,5.0,7.0,03-05,-1.9733339945475257
01-06,-10.010002136230465,-1.8300018310546875,9.134998321533203,5.7350006103515625,-0.645000457763679,13.235000610351577,6.279998779296861,-0.31999969482421875,-6.6399993896484375,-10.900001525878892,0.989997863769517,-24.360000610351562,5.0,7.0,03-06,-1.6108341217041018
01-07,-8.784999847412106,-1.6750030517578054,7.55999755859375,5.5149993896484375,-0.19499969482422586,11.819999694824233,6.809997558593736,3.7900009155273438,-2.9499969482421875,-11.699996948242173,-2.569999694824247,-25.209999084472656,5.0,7.0,03-07,-1.4658333460489918
01-08,-8.885000228881836,-0.8350028991699219,6.81500244140625,5.275001525878906,0.7299995422363281,11.855003356933608,2.7099990844726562,5.890007019042983,-3.4899978637695312,-11.83999633789061,-3.5799942016601705,-23.259994506835938,6.0,6.0,03-08,-1.5512477556864397
01-09,-7.2350006103515625,-0.384998321533196,5.625,5.4850006103515625,0.4850006103515696,12.029998779296875,1.1100006103515625,11.800003051757812,-8.189994812011719,-10.83999633789061,-7.25,-26.380001068115227,6.0,6.0,03-09,-1.9787489573160777
01-10,-6.575000762939453,-0.044998168945319605,5.425003051757805,3.8100013732910156,0.7299995422363352,11.555000305175781,3.2099990844726562,6.8899993896484375,-8.569999694824219,-11.139999389648438,-7.770004272460952,-30.96999740600586,6.0,6.0,03-10,-2.787499745686851
01-11,-5.329999923706058,0.34999847412109375,4.534999847412102,4.9850006103515625,1.5249977111816335,12.794998168945312,1.6800003051757812,8.590003967285156,-10.089996337890625,-14.550003051757812,-10.430000305175795,-47.91999816894531,7.0,5.0,03-11,-4.488333225250247
01-12,-4.784999847412109,1.7099990844726562,3.6550025939941264,5.26500320434571,2.0,11.069999694824205,2.0400009155273438,9.340003967285156,-9.670005798339844,-12.899993896484403,-12.250000000000014,-43.91999816894531,7.0,5.0,03-12,-4.0370823542277074
01-13,-6.540000915527344,0.5399971008300852,2.4850006103515625,5.970001220703125,2.7099990844726562,10.834999084472642,1.4900054931640625,8.090003967285156,-10.599998474121094,-12.739997863769531,-11.52999877929689,-46.659996032714844,7.0,5.0,03-13,-4.662498792012534
01-14,-4.694999694824219,-0.1100006103515625,2.5349998474121094,5.005001068115234,2.6100006103515625,8.264999389648423,-1.1899948120117188,7.0099945068359375,-10.530006408691392,-13.33999633789064,-9.940002441406264,-47.470001220703125,5.0,7.0,03-14,-5.154167175292971
01-15,-2.6049976348876847,0.354999542236321,1.8250007629394602,6.564998626708984,2.390003204345703,7.3850021362304545,-0.8199996948242188,12.20999908447265,-10.890007019042969,-13.5,-10.019996643066406,-47.87999725341797,6.0,6.0,03-15,-4.5820829073588065
01-16,-2.3699989318847656,-0.22999954223632812,1.2800025939941548,5.479999542236328,2.2550010681152273,6.404998779296875,-4.919998168945327,13.799999237060547,-8.42000579833983,-13.5,-10.099998474121094,-54.519996643066406,5.0,7.0,03-16,-5.403333028157552
01-17,0.3950004577636754,-0.43499755859375,0.8050003051757955,5.479999542236328,2.9000015258789062,8.504997253417969,-1.4300003051757812,12.630001068115234,-8.42000579833983,-13.639999389648438,-9.360000610351548,-50.509998321533196,6.0,6.0,03-17,-4.423333485921219
01-18,1.1849994659423864,-0.7700004577636648,0.8050003051757955,4.654998779296868,1.8149986267089844,8.999999999999986,-2.529998779296875,14.060001373291016,-8.340003967285142,-15.58999633789061,-12.200004577636705,-52.94000053405762,6.0,6.0,03-18,-5.070833841959632
01-19,0.6399993896484375,-0.7700004577636648,1.5249977111816406,5.2749977111816335,1.2149963378906108,9.965003967285156,1.3300018310546875,14.060001373291016,-9.360000610351548,-13.920005798339844,-4.94000244140625,-53.150001525878906,7.0,5.0,03-19,-4.010834376017253
01-20,0.6399993896484375,-0.26000213623046164,3.6599998474121094,6.80999755859375,0.3849983215332031,9.150001525878906,1.3300018310546875,14.799999237060547,-9.040000915527344,-18.349998474121094,-3.980003356933608,-54.28000068664551,7.0,5.0,03-20,-4.094583988189698
01-21,-1.6550006866455078,-1.654998779296875,3.104999542236328,5.895000457763672,-0.13000106811522727,9.150001525878906,0.12000274658203125,12.75,-7.239997863769531,-15.489997863769531,-0.970001220703125,-54.28000068664551,5.0,7.0,03-21,-4.199999491373697
01-22,-0.2399997711181605,-1.1750030517578054,4.834999084472656,4.555000305175781,-0.13000106811522727,7.904998779296875,-0.8300018310546875,9.610000610351577,-8.930000305175781,-12.040000915527344,-0.970001220703125,-53.32999610900879,4.0,8.0,03-22,-4.228333791097003
01-23,-2.3099994659423793,-1.7350006103515625,5.814998626708984,4.104999542236335,0.7449989318847727,10.580001831054688,-0.1100006103515625,14.369998931884766,-8.80999755859375,-13.05999755859375,-0.6800003051757812,-48.61000061035156,5.0,7.0,03-23,-3.3083332379659005
01-24,-0.9599990844726562,-0.41500091552734375,6.1699981689453125,4.629997253417983,-0.5449981689453196,13.055000305175781,-3.3300018310546875,14.310001373291016,-9.029998779296875,-13.69000244140625,-0.3699951171874716,-44.95999908447265,4.0,8.0,03-24,-2.92791652679443
01-25,-1.9599990844726562,-1.2000007629394531,7.099998474121087,3.5,-0.14499664306640625,13.749999999999986,-3.4900054931640625,14.310001373291016,-9.25,-13.159996032714858,-5.4199981689453125,-42.099998474121094,4.0,8.0,03-25,-3.1720829010009797
01-26,-2.2800006866455114,-0.2849998474121094,5.895000457763672,2.799999237060547,-0.1399993896484375,14.735000610351562,-2.3700027465820312,9.870002746582017,-9.580001831054673,-11.90000152587892,-5.319999694824219,-36.84000015258789,4.0,8.0,03-26,-2.951250235239666
01-27,-1.610002517700206,0.09000015258789062,6.150001525878899,3.805000305175774,2.3499984741210938,15.009994506835952,-3.0400009155273438,9.830001831054688,-8.040000915527344,-9.010002136230469,-3.3300018310546875,-36.95000076293946,6.0,6.0,03-27,-2.062084356943768
01-28,-3.2600002288818395,-1.045001983642571,7.505001068115234,3.4250030517578054,2.3499984741210938,12.449996948242202,1.8600006103515625,5.709999084472656,-7.819999694824247,-10.25,-3.5100021362304688,-37.360004425048835,6.0,6.0,03-28,-2.4954174359639505
01-29,-3.289999008178711,-0.41500091552734375,6.025001525878913,2.9850006103515554,0.9799957275390554,13.735000610351577,2.4499969482421875,3.2800064086914062,-5.909996032714858,-10.25,-4.2800064086914205,-35.45000076293946,6.0,6.0,03-29,-2.511666774749758
01-30,-4.229997634887685,-1.295001983642571,6.6399993896484375,2.159999847412095,1.2899971008300781,13.665000915527344,1.5299987792968892,5.440002441406264,-4.199996948242202,-8.839996337890625,-4.860000610351577,-36.29000091552734,6.0,6.0,03-30,-2.4158329963684073
01-31,-5.039999008178722,-1.1050033569335866,6.400001525878913,1.7449989318847585,1.609996795654311,15.959999084472656,-0.37999725341796875,6.360000610351577,-4.5800018310546875,-8.669998168945312,-3.9599990844726847,-36.910003662109375,5.0,7.0,03-31,-2.3808337847391767
02-01,-5.989999771118171,-1.1050033569335866,5.905002593994155,1.8649978637695241,-0.2649993896484233,17.214996337890625,-0.8299942016601705,4.570007324218764,-4.0,-12.699996948242188,-3.6699981689453125,-36.3900032043457,4.0,8.0,04-01,-2.949582576751707
02-02,-4.804998397827159,-1.845001220703125,5.975002288818359,1.2699966430664062,0.6099967956542969,18.110000610351562,-0.8299942016601705,6.499999999999986,-2.5400009155273438,-7.560005187988281,-2.4399948120117188,-35.45000457763672,5.0,7.0,04-02,-1.9170835812886589
02-03,-5.379999160766605,-1.9300003051757812,5.729999542236328,1.0050010681152344,0.8800010681152202,18.23999786376953,-4.619995117187528,3.470001220703125,-3.3899993896484375,-6.629997253417983,-3.3299942016601562,-36.770004272460945,5.0,7.0,04-03,-2.727082411448167
02-04,-5.72500038146973,0.02000045776367898,5.805000305175781,1.6450004577636648,-0.595001220703125,14.819999694824219,-3.5,4.1399993896484375,-2.7399978637695455,-4.4899978637695455,-5.449996948242173,-39.020004272460945,5.0,7.0,04-04,-2.924166520436607
02-05,-4.379997253417962,1.3600006103515625,6.39000320434571,1.75,-1.3600044250488423,15.364997863769531,-4.970001220703111,4.980003356933594,-1.4499969482422017,-5.389999389648452,-4.4199981689453125,-42.450004577636726,5.0,7.0,04-05,-2.881249745686851
02-06,-2.635002136230476,3.0949974060058594,5.665000915527344,1.75,-1.7849998474121094,14.025001525878906,-3.0800018310546875,1.8799972534179688,-2.119995117187514,-4.099998474121094,-2.25,-37.570003509521484,5.0,7.0,04-06,-2.2604169845581072
02-07,-5.019998550415043,2.8999977111816335,4.61000061035157,1.2150001525879048,-3.4550018310546875,11.519996643066406,-1.0799942016601562,2.1100006103515625,0.3899993896484517,-1.6100006103515625,0.6800003051757955,-34.459999084472656,7.0,5.0,04-07,-1.849999904632565
02-08,-6.384998321533214,6.079998016357429,5.024997711181655,1.0699996948242259,-4.2649993896484375,10.830001831054688,-1.6800003051757955,2.7900009155273438,-0.55999755859375,3.339996337890611,6.1299972534179545,-34.269996643066406,7.0,5.0,04-08,-0.9912500381469748
02-09,-6.384998321533214,4.599998474121101,5.430000305175788,-0.9650001525878906,-3.2249984741210938,11.610000610351562,-1.909996032714858,5.630004882812514,-1.759994506835966,1.8600006103515625,5.2700042724609375,-32.3699951171875,6.0,6.0,04-09,-1.0179144541422547
02-10,-4.215000152587887,7.75,5.210002899169915,-1.3250007629394531,-2.5449981689453125,11.849998474121108,-1.2200012207031392,5.430000305175781,-4.080001831054673,0.23999786376951704,4.3600006103515625,-32.3699951171875,6.0,6.0,04-10,-0.9095830917358402
02-11,-3.1949996948242223,7.950000762939446,5.680000305175788,-2.969997406005845,-2.3600006103515625,11.58499908447267,0.840003967285142,5.8899993896484375,-1.779998779296875,4.5200042724609375,4.5200042724609375,-33.459999084472656,7.0,5.0,04-11,-0.23166529337565014
02-12,-2.5249996185302805,6.894996643066406,3.884998321533203,-4.689998626708977,-2.7400054931640625,11.39499664306642,0.909996032714858,5.7700042724609375,-2.470001220703139,6.260002136230469,3.100006103515639,-34.04999542236328,7.0,5.0,04-12,-0.6883333524068173
02-13,-1.1850013732910085,7.180000305175781,2.1650009155273438,-5.2150001525878835,-2.4900054931640625,10.375,-0.3300018310546875,6.120002746582031,-2.470001220703139,6.930000305175781,1.9800033569335938,-30.389999389648438,6.0,6.0,04-13,-0.610833485921224
02-14,2.8649997711181605,7.279998779296868,2.854999542236328,-5.400001525878906,-2.535003662109375,10.14999389648436,-1.7999954223632812,9.620002746582031,-3.350006103515639,2.6399993896484233,1.7700042724609375,-30.099998474121094,7.0,5.0,04-14,-0.5004172325134322
02-15,2.139999389648441,8.235000610351562,3.529998779296882,-5.944999694824219,-2.5300025939941335,10.0,-0.02999877929686079,9.889999389648438,-2.8700027465820455,2.290000915527358,5.059997558593764,-31.23999786376953,7.0,5.0,04-15,-0.12250041961669537
02-16,1.5,8.235000610351562,3.8100013732910085,-6.20000076293946,-7.604995727539055,11.150001525878906,1.4700012207031392,9.889999389648438,-2.6800003051757955,3.3799972534179688,2.410003662109389,-32.29999923706055,8.0,4.0,04-16,-0.5783325831095372
02-17,1.5,8.21500015258789,3.25,-5.509998321533203,-6.124996185302734,11.150001525878906,1.4700012207031392,6.959999084472656,-3.3899993896484375,3.05999755859375,2.6399993896484375,-34.63999938964844,8.0,4.0,04-17,-0.951666196187336
02-18,1.310001373291012,8.080001831054688,1.0750007629394531,-6.44000244140625,-8.289997100830078,11.150001525878906,2.650001525878892,8.349998474121094,-3.730003356933608,3.19000244140625,2.6399993896484375,-34.63999938964844,8.0,4.0,04-18,-1.2212495803833034
02-19,1.3800010681152344,6.415000915527344,0.7750015258789134,-5.424999237060554,-8.289997100830078,11.680000305175781,4.199996948242202,6.0,-4.6399993896484375,4.8899993896484375,2.6399993896484375,-37.38999938964844,8.0,4.0,04-19,-1.4804162979125965
02-20,2.4850006103515625,7.9399986267089915,0.5750007629394531,-5.740001678466797,-6.284999847412109,10.995002746582045,6.150001525878906,5.230003356933594,-6.180000305175781,4.8899993896484375,3.5699996948242188,-39.46999740600586,8.0,4.0,04-20,-1.3199993769327782
02-21,2.495000839233395,9.700000762939446,0.5750007629394531,-5.740001678466797,-4.36500167846679,13.449996948242202,5.809997558593736,6.9199981689453125,-6.180000305175781,7.0400009155273295,6.489997863769531,-32.369998931884766,8.0,4.0,04-21,0.31874926884968957
02-22,2.965000152587887,9.880001068115241,0.5750007629394531,-5.745002746582031,-5.94999694824218,13.330001831054673,4.659996032714844,7.160003662109375,-4.239997863769531,6.950004577636719,8.34000396728517,-28.740005493164077,8.0,4.0,04-22,0.7654174168904623
02-23,2.690000534057617,10.979999542236335,-2.4599990844726562,-6.270000457763672,-2.68499755859375,12.139999389648423,5.7699966430664205,11.35000610351564,-4.2699966430664205,5.1399993896484375,12.319999694824219,-29.41000366210939,7.0,5.0,04-23,1.2745836575826004
02-24,1.5149993896484375,9.595001220703132,0.8250007629394531,-7.260002136230462,-2.384998321533203,14.880004882812486,6.089996337890639,9.85000610351564,-2.720001220703111,5.349998474121108,11.849998474121094,-26.760002136230483,8.0,4.0,04-24,1.7358334859212274
02-25,2.16500091552734,9.895000457763665,0.06000137329102273,-6.010002136230476,-0.9199981689453125,13.080001831054688,4.669998168945327,10.660003662109375,-4.170005798339858,5.099998474121108,9.190002441406236,-23.839996337890625,8.0,4.0,04-25,1.6566670735677071
02-26,4.354999542236335,9.834999084472663,-0.9850006103515696,-5.585002899169929,-1.7849998474121094,11.860000610351562,8.139999389648452,13.419998168945312,-2.6400070190429688,5.910003662109389,10.02999877929686,-20.049999237060547,7.0,5.0,04-26,2.7087491353352875
02-27,6.564998626708984,8.915000915527344,-0.2949981689453196,-4.595001220703132,-3.4949989318847656,9.745002746582031,7.0,15.020004272460938,-3.600006103515611,8.45999908447267,8.900001525878892,-15.779998779296868,7.0,5.0,04-27,3.070000330607097
02-28,8.414999008178711,6.989997863769524,-0.27499771118165484,-5.090000152587891,-1.9249992370605469,4.3300018310546875,8.300003051757812,18.040000915527344,-2.680000305175753,13.980003356933594,8.080001831054688,-19.89999771118164,7.0,5.0,04-28,3.188751061757406
02-29,0.0,0.0,0.0,-3.7150001525878906,0.0,0.0,0.0,19.770004272460938,0.0,0.0,0.0,-18.31999969482422,1.0,2.0,04-29,-0.188749631245931
03-01,8.899999618530273,7.384998321533203,1.9150009155273366,-4.195003509521484,-1.9399986267089773,3.415000915527358,9.400001525878906,19.490005493164077,-5.740005493164034,16.440002441406264,1.459999084472642,-17.880001068115234,8.0,4.0,04-30,3.2208333015441943
03-02,10.074998855590827,7.2949981689453125,1.5349998474120952,-2.44000244140625,0.06999969482421875,4.975006103515639,10.680000305175767,17.51000213623047,-5.470001220703125,15.340003967285142,0.1900024414062358,-15.13999938964843,9.0,3.0,05-01,3.718334039052325
03-03,8.8499984741211,6.799999237060547,0.4450035095214844,-1.6949996948242116,-0.3149986267089844,3.3550033569335938,9.369995117187472,12.639999389648438,-6.069999694824219,16.36000061035155,-0.7599945068359659,-14.70999908447265,7.0,5.0,05-02,2.8558340072631796
03-04,7.319999694824222,8.030002593994134,1.8350028991699219,-0.9849967956542969,-1.4799995422363281,2.220001220703125,9.25,11.209999084472656,-8.040000915527344,15.75,-4.919998168945327,-16.360000610351555,7.0,5.0,05-03,1.985834121704101
03-05,5.819999694824219,7.3700027465820455,1.1800003051757884,-1.9599990844726562,-2.93499755859375,2.7549972534179545,9.360000610351577,7.30999755859375,-8.199996948242173,14.840003967285142,-3.6100006103515625,-14.36000061035157,7.0,5.0,05-04,1.4641672770182304
03-06,7.005001068115234,8.09499740600586,-0.21500015258789062,-1.720001220703125,-3.384998321533203,1.5900039672851705,10.330001831054688,5.159996032714844,-8.309997558593736,15.639999389648423,-0.05000305175779829,-10.729999542236328,6.0,6.0,05-05,1.9508333206176782
03-07,10.810001373291016,6.43499755859375,-1.1500015258789062,-1.9300003051757812,-3.944999694824226,2.099998474121108,11.669998168945312,3.8699951171875,-7.769996643066392,15.77999877929686,-2.1800003051757812,9.140003204345703,7.0,5.0,05-06,3.56916618347168
03-08,10.295001983642578,3.8999977111816335,0.04000091552734375,-3.3500022888183594,-2.349994659423814,4.724998474121094,6.819999694824219,8.779998779296875,-3.0699996948242045,15.420005798339858,4.459999084472656,8.450000762939453,9.0,3.0,05-07,4.510000546773278
03-09,13.555000305175781,3.559997558593757,0.23999786376953836,-4.845001220703125,-1.3100013732910156,9.104995727539048,7.3600006103515625,7.079994201660156,-7.099998474121108,11.860000610351577,4.979995727539048,8.240001678466797,9.0,3.0,05-08,4.393748601277668
03-10,12.309999465942386,3.1650009155273438,0.7599983215332031,-4.480003356933594,3.5149993896484233,10.264999389648438,8.889999389648438,8.990005493164062,-3.910003662109389,13.239997863769531,5.519996643066406,4.240001678466797,10.0,2.0,05-09,5.208749294281003
03-11,11.764999389648438,2.2950019836425852,0.895000457763679,-4.870002746582024,4.6199951171875,11.989997863769545,8.529998779296875,3.5,-3.259994506835966,14.639999389648438,7.769996643066406,6.979999542236328,10.0,2.0,05-10,5.404582659403483
03-12,7.354997634887692,1.6299972534179688,2.395000457763672,-4.31500244140625,3.9099960327148438,12.224998474121108,7.790000915527344,3.8600006103515625,-3.309997558593764,17.139999389648438,7.049995422363281,15.810001373291023,10.0,2.0,05-11,5.961665630340576
03-13,8.940000534057617,4.799999237060554,2.1599998474121094,-5.875,4.0099945068359375,10.275001525878906,8.110000610351562,4.950004577636719,-0.40999603271485796,17.739997863769545,5.459999084472656,16.6500015258789,10.0,2.0,05-12,6.400833606719971
03-14,6.105001449584957,3.924999237060554,0.0800018310546946,-4.790000915527344,2.125,9.294998168945312,3.7099990844726562,5.540000915527344,-0.04999542236328125,17.900001525878906,4.549995422363267,18.73999977111816,10.0,2.0,05-13,5.5941667556762695
03-15,5.8649997711181605,5.7449989318847585,0.625,-4.55999755859375,1.5800018310546875,10.02500152587892,5.510002136230469,6.709999084472656,-2.5199966430664205,20.299995422363295,6.150001525878906,18.620000839233402,10.0,2.0,05-14,6.170833905537923
03-16,4.39999961853027,5.94999694824218,1.1000022888183594,-6.274997711181641,2.3650054931640767,11.555000305175795,3.6999969482421875,5.279998779296875,-1.5500030517578125,16.960006713867173,1.5800018310546875,17.100000381469723,10.0,2.0,05-15,5.180417378743489
03-17,3.610000610351559,6.284999847412095,-1.5800018310546875,-8.174999237060547,3.8700027465820455,10.28500366210939,4.799995422363281,4.0,-1.7300033569335795,20.209999084472656,2.4199981689453125,17.310001373291012,9.0,3.0,05-16,5.108749707539879
03-18,4.155000686645508,7.400001525878906,-1.2449989318847585,-9.09000015258789,2.8800048828125,9.319999694824219,0.9399948120117188,3.0200042724609375,-1.4899978637695312,21.76000213623047,2.44000244140625,18.440000534057614,9.0,3.0,05-17,4.877501169840495
03-19,4.059999465942383,7.194999694824219,-3.3500022888183594,-9.220001220703125,3.7100028991699077,10.135002136230469,1.2000045776367188,4.730003356933594,-2.3899993896484375,23.029998779296875,1.480003356933608,14.340000152587898,9.0,3.0,05-18,4.576667626698812
03-20,3.14999961853027,5.865001678466797,-2.895000457763672,-7.880001068115234,4.225002288818338,7.574996948242173,-0.20999908447265625,5.6100006103515625,-3.2700042724609233,20.169998168945312,-1.529998779296875,12.790000915527337,7.0,5.0,05-19,3.6333330472310355
03-21,2.4850006103515625,5.6699981689453125,-2.3899993896484304,-7.430000305175788,4.659999847412109,6.680000305175781,2.8000030517577983,4.450004577636719,-1.5800018310546733,16.720001220703125,-1.6900024414062642,17.899997711181634,8.0,4.0,05-20,4.02291679382324
03-22,2.9699974060058594,5.365001678466797,-3.3699989318847585,-6.505001068115234,5.134998321533203,7.5,1.260002136230483,4.510002136230469,-1.7000045776367045,21.860000610351562,-0.660003662109375,16.119998931884766,8.0,4.0,05-21,4.373749415079756
03-23,3.1800003051757884,4.045001983642578,-3.7249984741210866,-7.710002899169915,5.845001220703125,7.089996337890639,1.4599990844726562,6.07000732421875,-3.1199951171875284,19.93000030517578,0.9000015258789062,18.110000610351555,9.0,3.0,05-22,4.3395843505859375
03-24,4.180000305175788,4.8300018310546875,-4.780002593994126,-5.980003356933594,5.180000305175781,9.360000610351577,1.6200027465820312,5.779998779296875,-1.0500030517577983,19.879997253417983,2.8499984741210795,12.850002288818352,9.0,3.0,05-23,4.559999465942386
03-25,4.5000019073486435,3.4350013732910156,-5.345001220703125,-5.415000915527344,3.5049972534179545,8.375,0.5,6.3899993896484375,-0.26999664306639204,16.190002441406264,0.1300048828125,12.960002899169922,9.0,3.0,05-24,3.74625094731649
03-26,5.225000381469734,5.5,-7.095001220703132,-5.230003356933594,1.0149993896484233,8.10000610351561,-0.9000015258789062,6.739997863769531,-0.8499984741210795,15.410003662109375,-1.8599929809570312,13.120002746582017,7.0,5.0,05-25,3.264584382375079
03-27,5.219999313354489,2.200000762939453,-6.19000244140625,-4.790000915527344,1.3649978637695028,7.430000305175781,0.9300003051757528,7.959999084472656,-0.709999084472642,16.650001525878906,-1.67999267578125,16.31999969482422,8.0,4.0,05-26,3.7254169782002733
03-28,6.265001296997074,2.875,-5.620002746582038,-3.9650001525878835,1.4299926757812216,5.099998474121094,-1.8799972534179545,8.550003051757812,-2.6200027465820312,19.160003662109375,-2.329994201660142,17.299999237060554,7.0,5.0,05-27,3.6887501080830902
03-29,6.304998397827145,3.3899993896484446,-6.2350006103515625,-3.6599998474121094,1.4449996948242188,5.885002136230469,-2.9899978637695312,7.6300048828125,-4.3300018310546875,17.710006713867188,-6.3300018310546875,16.45999908447265,7.0,5.0,05-28,2.9400006930033364
03-30,5.804998397827145,3.2000007629394602,-5.995002746582038,-5.154998779296875,1.160003662109375,6.6450042724609375,-3.1399993896484375,9.419998168945312,-4.5,17.050003051757812,-9.77999877929686,17.75,7.0,5.0,05-29,2.7050007184346527
03-31,6.7549991607665945,3.3999977111816406,-5.6550025939941335,-5.799999237060547,1.3050003051757812,7.1050033569335795,-2.690002441406236,10.5,-6.530006408691392,14.830001831054702,-9.830001831054673,16.810001373291016,7.0,5.0,05-30,2.516665935516361
04-01,5.569997787475582,2.079998016357429,-5.579998016357422,-4.244998931884766,2.160003662109375,6.209999084472642,-2.220001220703125,10.260002136230469,-5.739997863769531,13.279998779296875,-10.510002136230455,18.13000106811524,7.0,5.0,05-31,2.4495835304260263
04-02,6.1399993896484375,4.370002746582024,-5.11000061035157,-6.180000305175774,1.8899993896484517,6.080001831054673,-3.55999755859375,11.260002136230469,-7.339996337890625,16.8300018310547,-9.620002746582017,13.34000015258789,7.0,5.0,06-01,2.3416674931844095
04-03,5.025001525878913,3.5349998474121094,-4.615001678466804,-6.284999847412109,3.365001678466797,6.019996643066406,-6.1800003051757955,11.050003051757812,-6.650001525878892,14.690002441406264,-7.5,11.080001831054695,7.0,5.0,06-02,1.961250305175783
04-04,8.010000228881832,1.5300025939941406,-5.090000152587891,-4.76499938964843,4.9150009155273295,6.030006408691392,-6.110000610351577,10.44000244140625,-7.940002441406236,15.59000396728517,-9.709999084472656,12.380001068115241,7.0,5.0,06-03,2.1066679954528804
04-05,7.754999160766598,4.990001678466797,-4.364997863769524,-4.9399986267089915,2.1750030517578125,7.449996948242173,-5.100006103515639,10.209999084472656,-7.270004272460923,13.43000030517581,-16.749999999999986,15.380001068115241,7.0,5.0,06-04,1.913749535878502
04-06,5.934999465942379,5.185001373291023,-3.30999755859375,-7.885002136230476,2.4300003051757812,8.730003356933594,-5.860000610351577,9.529998779296875,-7.650001525878892,16.419998168945312,-16.530006408691406,15.939998626708991,7.0,5.0,06-05,1.9112493197123213
04-07,7.29999923706055,2.0050010681152273,-1.875,-8.520000457763679,2.6350021362304688,8.440002441406264,-5.2599945068359375,9.040000915527344,-7.680000305175781,15.290000915527358,-15.200004577636719,14.039997100830085,7.0,5.0,06-06,1.6845836639404317
04-08,6.760000228881836,1.3850021362304688,-2.0500030517578054,-7.784999847412109,0.81500244140625,7.660003662109389,-5.029998779296875,6.239997863769531,-9.370002746582031,13.200004577636733,-17.45000457763672,10.079998016357429,7.0,5.0,06-07,0.37124999364217476
04-09,5.930000305175778,-0.8899993896484304,-1.8050003051757741,-6.260002136230476,0.13500213623046875,7.420005798339844,-8.330001831054688,7.2599945068359375,-7.739997863769531,12.760002136230483,-16.540000915527344,10.33000183105468,6.0,6.0,06-08,0.189167022705079
04-10,5.770000457763668,-3.020000457763672,-2.309997558593757,-4.540000915527344,-0.04999542236328125,9.790000915527344,-6.909996032714844,11.409996032714844,-10.419998168945312,8.479995727539062,-16.70000457763672,16.02000045776368,5.0,7.0,06-09,0.6266667048136391
04-11,5.864997863769535,-0.9099998474121094,-1.8649978637695241,-4.0149993896484375,1.19000244140625,10.690002441406264,-5.580001831054673,11.349998474121094,-9.729995727539048,6.739997863769531,-14.460006713867188,18.81999969482422,6.0,6.0,06-10,1.5079164505004927
04-12,6.340000152587894,-1.6850013732910085,-0.14500045776366477,-4.885002136230469,4.2749977111816335,9.550003051757827,-5.600006103515611,7.849998474121094,-9.33999633789061,7.9499969482421875,-20.70999908447267,16.18000030517579,6.0,6.0,06-11,0.8149992624918658
04-13,6.639999389648441,-1.7849998474120952,-0.8349990844726491,-4.7250022888183665,7.714996337890618,8.73000335693358,-4.279998779296861,7.5800018310546875,-7.529998779296875,6.650001525878906,-16.920005798339858,12.340000152587884,6.0,6.0,06-12,1.1316665013631175
04-14,7.3649997711181605,-2.7400016784667898,0.029998779296875,-5.4199981689453125,6.459999084472649,10.739997863769545,-6.049995422363281,6.7700042724609375,-5.6599960327148295,6.990005493164077,-15.620002746582045,13.4000015258789,7.0,5.0,06-13,1.3554177284240738
04-15,8.004999160766602,-0.8650016784667969,-1.6850013732910156,-4.299999237060547,6.720001220703118,9.58999633789064,-7.549995422363281,5.849998474121094,-5.860000610351548,7.450004577636719,-17.09000396728517,15.74000167846679,6.0,6.0,06-14,1.3337499300638835
04-16,9.254997253417969,1.1949996948242188,-2.5800018310546946,-5.034999847412109,5.240001678466797,9.689994812011719,-7.349998474121094,3.9499969482421875,-5.180000305175753,7.230003356933594,-17.31999969482422,14.630001068115227,7.0,5.0,06-15,1.143749554951987
04-17,8.770000457763672,0.479999542236321,-2.4200019836425852,-6.050003051757805,7.405002593994141,9.180000305175753,-7.700004577636719,5.540000915527344,-6.809997558593736,7.099998474121094,-16.80999755859375,10.729999542236328,7.0,5.0,06-16,0.7845830917358381
04-18,10.139999389648441,1.1850013732910085,-3.5,-5.7350006103515625,9.010002136230462,10.489997863769531,-8.519996643066392,5.0,-5.900001525878906,5.400001525878906,-17.380004882812514,11.040000915527344,7.0,5.0,06-17,0.9358332951863598
04-19,8.944999694824222,1.200000762939446,-3.2999992370605398,-4.75,9.1500015258789,10.5,-7.6599960327148295,3.3100051879882812,-4.3600006103515625,3.4899978637695312,-21.900001525878906,13.430000305175781,7.0,5.0,06-18,0.6712506612141936
04-20,8.639999389648441,-0.5600013732910085,-4.474998474121087,-3.1949996948242188,8.46500015258789,8.860000610351562,-8.72000122070311,3.0699996948242188,-6.2600021362304545,0.20999908447265625,-21.599998474121094,11.310001373291016,6.0,6.0,06-19,-0.35458342234293233
04-21,8.170000076293949,-0.740001678466804,-5.1300010681152415,-4.43499755859375,9.310001373291016,10.010002136230469,-7.569999694824219,1.0199966430664062,-5.060005187988281,1.7800064086914205,-18.769996643066406,11.979999542236328,6.0,6.0,06-20,0.04708369572957386
04-22,8.444999694824219,-1.4750022888183452,-4.0449981689453125,-3.825000762939453,9.59499740600586,11.200004577636719,-8.680000305175795,-0.029998779296875,-5.669998168945298,2.2400054931640625,-18.419998168945312,9.329998016357422,5.0,7.0,06-21,-0.1112492879231759
04-23,5.9899997711181605,-1.75,-4.719997406005859,-5.329998016357415,9.294998168945312,8.459999084472656,-9.459999084472656,3.4300003051757812,-5.889999389648423,4.590003967285156,-17.949996948242188,8.70999908447265,6.0,6.0,06-22,-0.38541587193806875
04-24,3.375,-0.9350013732910156,-4.07499694824218,-5.754997253417962,7.829998016357422,12.319999694824205,-8.450004577636719,5.150001525878906,-6.619995117187486,4.840003967285156,-15.29000091552733,8.939998626708984,6.0,6.0,06-23,0.11083380381266512
04-25,2.5300025939941477,-3.015003204345703,-4.5,-6.7449989318847585,4.56500244140625,18.94000244140625,-9.279998779296875,3.839996337890625,-8.149993896484375,4.029998779296875,-10.630004882812486,7.879997253417969,6.0,6.0,06-24,-0.044583320617673415
04-26,2.4350013732910156,-2.8200035095214844,-5.19000244140625,-11.019996643066406,5.639995574951165,19.35000610351561,-8.569999694824219,0.8199996948242188,-7.189994812011733,-1.0200042724609517,-5.509994506835909,7.9199981689453125,5.0,7.0,06-25,-0.4295829137166359
04-27,2.450000762939453,-0.8950004577636648,-5.210002899169915,-10.699996948242188,2.740001678466797,14.959999084472642,-9.020004272460938,-0.910003662109375,-5.30999755859375,1.7200012207031392,-6.440002441406236,4.409999847412109,5.0,7.0,06-26,-1.0170838038126604
04-28,1.9650001525878906,-1.2900009155273438,-5.909999847412109,-12.454998016357429,4.109996795654297,17.959999084472642,-10.120002746582031,2.6100006103515625,-4.709999084472656,-1.339996337890625,-6.959999084472656,3.970001220703125,5.0,7.0,06-27,-1.014166514078778
04-29,0.7900009155273366,-3.3350028991699148,-7.390003204345696,-12.924999237060554,4.960002899169922,16.39999389648436,-11.400001525878892,-1.5600051879882812,-4.6399993896484375,1.5100021362304688,-3.910003662109375,1.229999542236321,5.0,7.0,06-28,-1.6891679763793952
04-30,2.5749988555908203,-1.1700019836425852,-5.305000305175788,-12.039997100830085,5.345001220703125,18.019996643066406,-11.299995422363295,-4.19000244140625,-4.029998779296875,5.760002136230469,-2.9600067138671733,3.220001220703125,5.0,7.0,06-29,-0.506250222524009
05-01,0.7399978637695312,-4.069999694824226,-4.264999389648445,-12.75,6.510002136230469,18.299995422363267,-10.840003967285156,-1.029998779296875,-3.0100021362304688,6.370002746582017,1.1999969482421875,4.189998626708984,6.0,6.0,06-30,0.11208248138427379
05-02,-2.5400009155273438,-6.659999847412109,-3.9200019836425852,-11.77499771118164,5.6699981689453125,18.77999877929686,-13.139999389648438,0.660003662109375,-2.850006103515639,7.279998779296875,2.94000244140625,2.9099998474121023,6.0,6.0,07-01,-0.22041702270508168
05-03,-2.0600013732910156,-7.594997406005859,-2.5250015258789062,-11.27499771118164,3.849994659423814,17.610000610351562,-11.839996337890625,2.8100051879882812,-2.7400054931640767,7.489997863769517,2.2600021362304688,3.9199981689453125,6.0,6.0,07-02,-0.007916768391930637
05-04,-2.0600013732910156,-5.93499755859375,-1.5900001525878906,-7.590000152587891,4.634998321533217,17.3000030517578,-11.839996337890625,4.100006103515625,1.4000015258789062,9.769996643066406,1.849998474121108,3.9199981689453125,7.0,5.0,07-03,1.1633338928222667
05-05,-1.5450019836425781,-3.3999977111816335,-0.625,-7.329998016357422,4.634998321533217,17.3000030517578,-6.989997863769531,2.1800003051757812,-0.8799972534179545,10.540000915527344,1.849998474121108,4.6100006103515625,6.0,6.0,07-04,1.6954174041748076
05-06,-4.805000305175781,-2.0,-1.444999694824233,-7.914997100830071,5.920001983642578,12.920005798339844,-7.529998779296875,4.739997863769531,-1.1700057983398295,8.510002136230469,-3.680000305175767,4.819999694824219,5.0,7.0,07-05,0.697083791097007
05-07,-3.2399978637695312,-0.8799972534179688,-4.119998931884766,-4.939998626708984,1.0950012207031392,11.760002136230455,-7.730003356933594,6.1399993896484375,0.6800003051758097,8.540000915527344,-4.220001220703125,1.5499992370605398,6.0,6.0,07-06,0.3862504959106463
05-08,-6.319999694824212,-4.07500076293946,-4.040000915527337,-4.549999237060554,-0.0099945068359375,14.5,-7.8300018310546875,4.120002746582031,-1.3899993896484375,7.1399993896484375,-6.470001220703125,-0.9300003051757812,3.0,9.0,07-07,-0.8212496439615885
05-09,-5.550001144409183,-3.319999694824226,-4.525001525878906,-5.104999542236328,1.049995422363267,14.470001220703125,-6.5200042724609375,4.120002746582031,-1.3399963378906392,4.6399993896484375,-7.0400009155273295,0.5699996948242188,5.0,7.0,07-08,-0.7125004132588725
05-10,-6.575000762939453,-1.3449974060058736,-4.290000915527344,-7.255001068115227,3.4099960327148438,12.090003967285156,-4.8899993896484375,3.029998779296875,-4.2399978637695455,4.270004272460923,-6.430000305175781,-1.7299995422363281,4.0,8.0,07-09,-1.1629161834716826
05-11,-5.980001449584957,-0.4699974060058736,-2.210002899169929,-6.795001983642578,3.0499954223632812,12.340003967285156,-7.120002746582031,2.44000244140625,-5.650001525878906,6.939994812011719,-3.3499984741210938,-2.4000015258789134,4.0,8.0,07-10,-0.767084280649823
05-12,-5.7399997711181605,-2.289997100830078,-0.984996795654304,-4.775001525878899,4.279998779296875,12.919998168945327,-8.920005798339844,1.1100006103515625,-6.259994506835952,7.449996948242173,-4.349998474121094,-2.280002593994155,4.0,8.0,07-11,-0.8200001716613791
05-13,-4.27499961853027,-0.9300003051757812,-1.7600021362304759,-5.845001220703125,4.305000305175781,11.389999389648452,-7.1100006103515625,3.8899993896484375,-5.1100006103515625,8.290000915527344,-2.839996337890625,-0.7600021362304759,4.0,8.0,07-12,-0.06291691462198863
05-14,-4.370000839233395,-0.2599983215332031,-2.8449974060058665,-4.580001831054695,2.8000030517578125,12.659996032714858,-5.430000305175781,2.2099990844726562,-4.100006103515639,5.980003356933594,-3.67999267578125,-3.220001220703132,4.0,8.0,07-13,-0.40291643142700345
05-15,-2.875,1.154998779296875,-2.904998779296875,-3.665000915527351,3.790000915527358,12.22000122070314,-5.930000305175781,4.4499969482421875,-4.160003662109375,4.430000305175781,-3.6999969482421875,-2.279998779296882,5.0,7.0,07-14,0.04416656494140744
05-16,-3.6100006103515625,1.7899971008300852,-2.8799972534179616,-3.5349998474121165,5.165000915527344,11.150001525878906,-7.590003967285142,3.149993896484375,-3.2600021362304688,3.160003662109375,-4.340003967285156,-7.489997863769524,5.0,7.0,07-15,-0.6908340454101539
05-17,-3.19000244140625,1.7049980163574219,-3.334999084472649,-3.1449966430664134,4.730003356933594,13.389999389648438,-6.5699996948242045,2.2699966430664062,-2.379997253417983,-2.0100021362304688,-2.1199951171875,-5.159999847412095,4.0,8.0,07-16,-0.4845829010009754
05-18,-2.2849998474121023,1.9000015258789062,-3.8400001525878906,-1.6899986267089915,3.964996337890625,11.139999389648438,-8.550003051757798,3.42999267578125,0.11999511718752842,0.1699981689453125,-4.930000305175781,-4.979999542236321,6.0,6.0,07-17,-0.4625015258789021
05-19,-2.769996643066399,2.204998016357422,-4.639999389648445,-3.479999542236321,4.474998474121094,14.799995422363295,-7.010002136230483,4.549995422363281,-1.9399948120117188,-2.839996337890639,-6.680000305175781,-3.200000762939453,4.0,8.0,07-18,-0.5441668828328456
05-20,-2.979999542236328,4.95000076293946,-2.8299980163574148,-2.479999542236321,5.1100006103515625,15.209999084472656,-7.209999084472656,3.1800003051757812,-1.2099990844726562,-3.129997253417983,-8.489997863769531,-5.190002441406243,4.0,8.0,07-19,-0.4224993387858061
05-21,-0.25,0.845001220703125,-1.3650016784667969,-1.75,5.775001525878906,12.939994812011719,-9.08999633789061,1.9800033569335938,-1.4100036621093608,-3.869995117187514,-10.439994812011705,-4.5,4.0,8.0,07-20,-0.9279158910115536
05-22,0.1999969482421804,2.325000762939446,-0.1100006103515625,-2.31500244140625,7.450004577636733,11.870002746582017,-9.760002136230483,0.7700042724609375,1.1999969482422017,-0.18000030517579546,-7.720001220703125,-5.119998931884773,6.0,6.0,07-21,-0.11583328247070608
05-23,1.5150032043457102,3.395000457763672,-0.2200012207031179,-2.5,7.8000030517578125,12.069999694824219,-11.220001220703125,0.8400039672851562,1.7799987792968892,0.5999984741210938,-3.4199981689453125,-3.739997863769524,7.0,5.0,07-22,0.5750007629394561
05-24,1.6599998474121165,2.529998779296875,-1.125,-1.2700004577636719,8.919998168945312,11.419998168945312,-11.819999694824219,-0.37999725341796875,1.6399993896484517,2.4099960327148438,-0.12000274658203125,-1.0200004577636648,6.0,6.0,07-23,1.070415814717613
05-25,1.065002441406257,1.8549995422363281,-1.6949996948242116,-1.2599983215332031,9.185005187988281,11.819999694824205,-13.060005187988281,-0.970001220703125,2.6400070190429688,4.589996337890611,0.09999847412109375,-1.25,7.0,5.0,07-24,1.0850003560384103
05-26,1.065002441406257,1.3400001525878835,-0.8350028991699148,-3.8300018310546875,8.760002136230469,11.219993591308608,-13.060005187988281,-0.8100051879882812,1.69000244140625,6.650001525878906,0.4799957275390625,-1.25,7.0,5.0,07-25,0.9516652425130226
05-27,1.565002441406257,-1.6550025939941335,-0.7900009155273438,-4.680000305175781,6.475006103515625,11.219993591308608,-12.910003662109375,-0.589996337890625,3.689994812011733,9.41000366210939,0.5699996948242188,-2.540000915527351,6.0,6.0,07-26,0.8137496312459351
05-28,0.5999984741211009,-1.2549972534179688,-1.4650001525878906,-4.584999084472649,6.475006103515625,10.759994506835966,-12.830001831054688,-2.6100006103515625,5.250000000000014,12.170005798339844,0.5699996948242188,-2.7900009155273438,6.0,6.0,07-27,0.8575003941853888
05-29,0.75,1.4449996948242188,-1.2849998474121094,-4.584999084472649,5.620002746582031,9.52999877929689,-13.529998779296875,-0.910003662109375,5.129997253417969,12.170005798339844,1.25,-1.9300003051757884,7.0,5.0,07-28,1.1379168828328463
05-30,-1.2099990844726562,-0.13500213623046164,-2.5349998474121094,-2.6499977111816406,7.339996337890639,9.01999664306642,-15.569999694824219,-1.5800018310546875,5.129997253417969,8.620002746582017,1.5100021362304688,-3.25,5.0,7.0,07-29,0.39083290100097834
05-31,-1.6399993896484304,-0.13500213623046164,-2.5349998474121094,-0.9400024414062429,8.319999694824219,8.010002136230483,-11.910003662109375,-1.5800018310546875,4.440002441406236,11.050003051757798,2.410003662109375,-4.540000915527351,5.0,7.0,07-30,0.9125000635782877
06-01,-2.9099998474121094,-0.13500213623046164,-2.0600013732910227,4.670001983642571,6.480003356933594,8.860000610351562,-11.020004272460938,-0.970001220703125,5.5800018310546875,10.799995422363281,0.970001220703125,-3.3100013732910227,6.0,6.0,07-31,1.4129161834716786
06-02,-2.654998779296875,-3.595001220703118,-3.740001678466797,4.579998016357429,6.1750030517578125,8.25,-12.029998779296875,-0.589996337890625,5.739997863769531,11.229995727539062,3.1100006103515625,-6.310001373291023,6.0,6.0,08-01,0.8470830917358404
06-03,-0.8349990844726562,-4.575000762939453,-4.279998779296882,3.805000305175774,6.870002746582031,6.9699935913085795,-11.270004272460938,1.9899978637695312,5.94000244140625,10.270004272460909,2.9000015258789062,-6.869998931884773,7.0,5.0,08-02,0.9095834096272734
06-04,-0.154998779296875,-2.7449989318847727,-3.7199974060058594,5.024997711181641,6.665000915527344,7.259994506835909,-8.839996337890625,-2.5699996948242188,5.260002136230469,6.900001525878906,1.5699996948242188,-8.569999694824212,6.0,6.0,08-03,0.5066671371459938
06-05,0.25999832153321023,0.6850013732910085,-4.924999237060554,4.289997100830071,8.485000610351562,1.5400009155273295,-12.489997863769531,-1.3799972534179688,3.1200027465820312,8.989997863769531,3.8199996948242188,-12.460002899169929,8.0,4.0,08-04,-0.0054165522257516585
06-06,1.4750022888183594,0.279998779296875,-5.539997100830085,2.7649993896484375,10.715003967285156,-1.279998779296875,-12.669998168945312,1.100006103515625,1.4899978637695312,9.430000305175781,-3.1999969482421875,-15.74000167846679,7.0,5.0,08-05,-0.931248664855957
06-07,1.875,0.9300003051757812,-5.034999847412102,0.335002899169929,10.175003051757827,2.2999954223632812,-12.370002746582031,-3.0499954223632812,4.1699981689453125,8.0,-2.1399993896484375,-13.650001525878906,7.0,5.0,08-06,-0.7049999237060524
06-08,2.1599998474121094,-1.1800003051757812,-5.479999542236335,6.435001373291023,11.279998779296875,-0.8800048828125284,-13.020004272460938,-2.9899978637695312,0.7900009155273438,4.7400054931640625,-6.1999969482421875,-11.360000610351562,5.0,7.0,08-07,-1.3087498346964541
06-09,1.68499755859375,-0.4049987792968821,-9.32500076293946,6.904998779296882,10.800003051757812,-2.8700027465820455,-13.0,-0.34000396728515625,0.3699951171875142,5.889999389648423,-6.9199981689453125,-8.720001220703132,5.0,7.0,08-08,-1.3275009791056338
06-10,1.3849983215332031,-3.164997100830071,-5.875,8.404998779296882,12.300003051757812,-2.0500030517577983,-14.32000732421875,8.600006103515625,-0.20999908447265625,6.419998168945298,-7.649993896484375,-4.880001068115227,5.0,7.0,08-09,-0.0866664250691714
06-11,0.56500244140625,-5.299999237060554,-8.055000305175781,7.9850006103515625,13.555000305175781,-4.059997558593764,-12.970001220703125,9.270004272460938,1.2700042724609375,4.759994506835923,-8.949996948242188,-0.26000213623046164,6.0,6.0,08-10,-0.1824992497762068
06-12,-1.4449996948242188,-4.504997253417962,-6.924999237060547,6.865001678466797,13.294998168945312,-5.56999969482419,-15.769996643066406,8.989997863769517,0.470001220703125,4.299995422363281,-7.4799957275390625,-3.759998321533196,5.0,7.0,08-11,-0.9612493515014625
06-13,-0.02500152587890625,-4.125,-8.860000610351555,7.600002288818359,12.625,-6.239997863769531,-12.950004577636719,8.029998779296875,-0.20999908447267046,4.519996643066406,-6.129997253417969,-1.75,4.0,8.0,08-12,-0.6262502670288091
06-14,-1.2449989318847727,-5.899997711181641,-9.020000457763665,7.475002288818359,13.549995422363281,-5.729995727539077,-11.919998168945312,6.439994812011719,1.4199981689453125,4.779998779296889,-5.799995422363281,-2.7900009155273438,5.0,7.0,08-13,-0.7283331553141276
06-15,-1.029998779296868,-6.604999542236328,-7.94000244140625,6.674999237060554,12.714996337890625,-7.339996337890639,-9.290000915527344,6.9799957275390625,2.0800018310546875,8.589996337890625,-7.5500030517578125,-3.1199989318847656,5.0,7.0,08-14,-0.4862508773803711
06-16,0.16500091552735086,-6.619998931884766,-4.2350006103515625,7.284999847412102,12.455001831054688,-7.680000305175781,-10.150001525878906,10.099998474121094,0.01000213623046875,4.8799972534179545,-6.950004577636719,-5.509998321533203,6.0,6.0,08-15,-0.5208336512247733
06-17,0.4700012207031321,-7.349998474121101,-4.049999237060547,7.80999755859375,11.534996032714844,-6.040000915527344,-9.089996337890625,10.309997558593764,-0.0800018310546875,6.449996948242173,-10.450004577636719,-3.3899993896484375,5.0,7.0,08-16,-0.3229176203409831
06-18,1.7350006103515625,-8.025001525878906,-2.3050003051757812,7.5449981689453125,10.689994812011719,-7.19000244140625,-9.129997253417969,7.360000610351548,-1.0500030517578125,-1.1800003051758097,-13.280006408691406,-5.510002136230469,4.0,8.0,08-17,-1.6950016021728551
06-19,2.385002136230476,-8.260002136230469,-3.1599998474121094,6.935001373291016,10.404998779296875,-11.870002746582017,-8.339996337890625,7.069999694824233,-3.089996337890625,-1.6399993896484517,-13.6300048828125,-4.329998016357415,4.0,8.0,08-18,-2.2937498092651345
06-20,2.1799964904785085,-7.724998474121094,-3.450000762939453,8.439998626708977,12.799995422363281,-11.890007019042969,-8.069999694824219,7.029998779296875,-2.8699951171875,-3.9899978637695455,-16.50999450683595,-5.879997253417969,4.0,8.0,08-19,-2.494583447774255
06-21,2.4249992370605398,-8.630001068115234,-4.095001220703132,12.254997253417976,12.545005798339844,-11.980003356933594,-7.6699981689453125,5.30999755859375,-2.1399993896484375,-0.6899948120117188,-16.450004577636733,-6.069999694824219,4.0,8.0,08-20,-2.0991668701171893
06-22,3.1699981689453054,-6.549999237060547,-3.6699981689453125,11.784999847412116,12.639999389648438,-10.3800048828125,-11.010002136230469,6.620002746582031,-4.310005187988281,-3.7400054931640767,-12.750000000000014,-6.80999755859375,4.0,8.0,08-21,-2.0837510426839216
06-23,3.2649993896484375,-6.744998931884766,-6.26500320434571,12.334999084472656,13.604995727539062,-10.1300048828125,-11.720001220703125,7.230003356933594,-3.7000045776367188,-2.0600051879882812,-13.869995117187514,-6.849998474121094,4.0,8.0,08-22,-2.0754178365071634
06-24,3.25,-6.534999847412109,-5.349998474121094,11.93499755859375,12.214996337890625,-5.739997863769531,-11.269996643066406,10.700004577636733,-3.6999969482421875,-1.3400039672851705,-13.33999633789064,-3.3400001525878906,4.0,8.0,08-23,-1.04291598002116
06-25,2.4650001525878977,-9.180000305175781,-6.990001678466797,12.005001068115234,10.845001220703125,-8.739997863769531,-10.919998168945312,12.580001831054688,-3.1500015258789062,0.48999786376953125,-12.819999694824219,-6.630001068115234,5.0,7.0,08-24,-1.6704165140787754
06-26,4.115001678466797,-6.844997406005859,-5.680000305175781,12.47500228881836,9.9949951171875,-8.229995727539077,-13.199996948242188,12.620002746582031,-2.279998779296875,-2.3600006103515625,-15.8699951171875,-5.369998931884766,4.0,8.0,08-25,-1.7191651662190768
06-27,4.435001373291016,-8.404998779296875,-5.2050018310546875,11.59000015258789,11.694999694824219,-9.569999694824219,-16.98999786376953,12.140007019042969,-2.8899993896484375,-6.6100006103515625,-16.599998474121094,-5.319999694824212,4.0,8.0,08-26,-2.644165674845377
06-28,3.7250022888183594,-8.979999542236328,-6.245002746582031,10.92499923706054,12.47000122070314,-8.919998168945327,-17.889999389648438,8.980003356933594,-3.9099960327148438,-7.099998474121094,-21.410003662109375,-5.270000457763672,4.0,8.0,08-27,-3.6354160308837895
06-29,3.5100021362304688,-6.389999389648445,-6.590000152587891,9.400001525878906,10.900001525878892,-7.459999084472656,-15.260002136230469,7.290000915527344,-5.379997253417969,-6.970001220703125,-20.839996337890625,-6.390003204345696,4.0,8.0,08-28,-3.6816660563151054
06-30,3.0300025939941406,-5.455001831054695,-8.145000457763672,10.114997863769524,10.489997863769517,-8.25,-16.56000518798828,6.8300018310546875,-6.0099945068359375,-3.75,-21.42999267578125,-7.400001525878906,4.0,8.0,08-29,-3.8779163360595725
07-01,3.470001220703125,-6.229999542236328,-6.615001678466797,9.939998626708977,12.075004577636705,-7.940002441406236,-14.779998779296875,5.400001525878906,-8.97000122070314,-4.430000305175781,-20.55999755859375,-6.600002288818359,4.0,8.0,08-30,-3.769999821980796
07-02,4.364997863769524,-4.469997406005859,-5.844997406005874,9.555000305175767,10.790000915527344,-7.620002746582031,-9.879997253417969,8.379997253417969,-9.22000122070314,-3.6200027465820312,-15.029998779296875,-5.569999694824219,4.0,8.0,08-31,-2.347083409627283
07-03,5.309999465942386,-6.145000457763665,-5.520000457763679,6.58000183105468,10.640007019042983,-8.139999389648438,-7.779998779296875,7.30999755859375,-8.700004577636733,-3.6500015258789062,-14.669998168945312,-4.200000762939453,4.0,8.0,09-01,-2.4137498537699384
07-05,3.995000839233402,-4.954998016357415,-5.32500076293946,8.0250015258789,8.345001220703125,-5.850006103515639,-9.069999694824219,5.7299957275390625,-6.630004882812486,-4.44000244140625,-14.089996337890625,-5.200000762939453,4.0,8.0,09-03,-2.4554174741109214
07-06,3.6449985504150426,-4.954998016357415,-4.840000152587891,7.625,8.645004272460938,-8.020004272460938,-7.379997253417969,5.7299957275390625,-4.959999084472656,-5.439994812011719,-15.959999084472656,-6.709999084472656,4.0,8.0,09-04,-2.718332767486571
07-07,4.6699981689453125,-6.930000305175767,-5.480003356933587,8.405002593994126,9.334999084472656,-7.990005493164077,-9.010002136230469,6.879997253417969,-3.4500045776367188,-7.899993896484361,-16.020004272460938,-4.409999847412109,4.0,8.0,09-05,-2.6583347320556636
07-08,4.074998855590817,-8.13999938964843,-5.25,8.915000915527337,10.385002136230469,-8.240005493164077,-6.779998779296875,6.010002136230469,-3.970001220703125,-8.449996948242173,-14.580001831054688,-3.739997863769524,4.0,8.0,09-06,-2.480416456858317
07-09,3.64999961853027,-8.040000915527337,-5.33000183105468,8.5250015258789,9.154998779296875,-8.819999694824247,-7.590003967285156,6.010002136230469,-3.75,-8.239997863769517,-13.580001831054688,-0.6399993896484375,4.0,8.0,09-07,-2.387500286102296
07-10,3.6300010681152344,-7.604999542236328,-6.025001525878899,9.595001220703125,9.129997253417969,-10.349998474121094,-7.090003967285156,11.930000305175781,-1.7700042724609375,-9.080001831054688,-15.090003967285156,-2.270000457763672,4.0,8.0,09-08,-2.0829178492228184
07-11,3.3199996948242188,-8.415000915527344,-4.170001983642571,8.330001831054695,8.939994812011719,-8.470001220703125,-7.319999694824219,11.419998168945312,-2.779998779296861,-6.7700042724609375,-15.239997863769531,-1.8100013732910156,4.0,8.0,09-09,-1.9137509663899717
07-12,4.904998779296875,-7.635002136230469,-4.1100006103515625,10.680000305175788,8.504997253417969,-14.27999877929686,-6.549995422363281,9.180000305175781,-2.720001220703125,-8.639999389648438,-14.459999084472656,-4.119998931884766,4.0,8.0,09-10,-2.4370832443237287
07-13,5.305000305175788,-8.270000457763679,-4.135002136230476,9.974998474121087,10.055000305175781,-14.380004882812472,-7.279998779296875,10.480003356933594,-3.2099990844726705,-11.489997863769531,-8.75,-3.0900001525878906,4.0,8.0,09-11,-2.065833409627279
07-14,4.885002136230476,-8.185001373291016,-3.729999542236328,9.58000183105468,9.980003356933594,-13.680000305175753,-8.300003051757812,10.800003051757812,-5.0900039672851705,-10.290000915527344,-8.650001525878906,-5.41999816894532,4.0,8.0,09-12,-2.3416665395100904
07-15,3.979999542236328,-8.409999847412116,-7.935001373291023,9.595001220703118,11.805000305175781,-11.430000305175753,-6.319999694824219,8.550003051757812,-3.970001220703125,-8.389999389648438,-7.720001220703125,-5.599998474121094,4.0,8.0,09-13,-2.153749783833821
07-16,3.7849998474121094,-5.040000915527344,-7.704998016357422,9.870002746582024,11.294998168945312,-15.08999633789061,-4.340003967285156,9.730003356933594,-3.4300003051757812,-7.669998168945327,-5.970001220703125,-9.819999694824219,4.0,8.0,09-14,-2.032082875569662
07-17,3.1800003051757884,-4.860000610351555,-7.384998321533203,8.870002746582024,10.659996032714844,-12.490005493164034,-3.3499984741210938,7.150001525878906,-0.8000030517578125,-7.379997253417983,-4.160003662109375,-8.110000610351562,4.0,8.0,09-15,-1.556250572204588
07-18,2.3949966430664062,-4.9050025939941335,-6.884998321533203,8.140003204345703,10.495002746582031,-14.720001220703125,-1.5,5.1999969482421875,-0.599998474121108,-6.639999389648452,-5.75,-8.53000259399414,4.0,8.0,09-16,-1.9416669209798194
07-19,3.779998779296875,-5.2150001525878835,-8.139999389648438,8.46500015258789,8.885002136230469,-14.239997863769531,-0.6800003051757812,6.409996032714844,-3.2099990844726705,-5.769996643066392,-7.650001525878906,-9.110000610351562,4.0,8.0,09-17,-2.206249872843424
07-20,5.465000152587891,-6.284999847412109,-8.029998779296882,9.194999694824226,8.154998779296875,-10.930000305175781,2.0100021362304688,6.339996337890625,-1.8800048828125,-4.529998779296875,-1.5699996948242188,-6.840000152587891,5.0,7.0,09-18,-0.741667111714681
07-21,5.320003509521484,-5.4199981689453125,-7.579998016357429,9.60000228881836,9.139999389648438,-10.95999908447267,2.6100006103515625,9.45999908447267,0.30999755859375,-5.319999694824219,-5.989997863769531,-9.55999755859375,6.0,6.0,09-19,-0.6991656621297206
07-22,5.915000915527344,-6.099998474121094,-8.204998016357422,9.340000152587884,11.149993896484375,-11.360000610351562,3.850006103515625,9.989997863769531,-0.2599945068359659,-3.410003662109361,-5.8899993896484375,-9.329998016357415,5.0,7.0,09-20,-0.3591661453247082
07-23,4.380001068115227,-6.6100006103515625,-9.2249984741211,8.185001373291016,11.574996948242188,-10.759994506835966,3.3400039672851562,11.300003051757812,-0.18000030517580967,-2.69000244140625,-6.269996643066406,-7.6599998474121165,5.0,7.0,09-21,-0.3845822016398177
07-24,3.584999084472649,-7.994998931884766,-9.544998168945312,9.03499984741211,13.859992980957031,-11.219993591308608,1.0999984741210938,11.650001525878906,0.870002746582017,-5.450004577636733,-6.3600006103515625,-8.330001831054688,6.0,6.0,09-22,-0.7333335876464885
07-25,3.4899978637695312,-7.049999237060547,-11.389999389648438,8.939998626708977,11.680000305175781,-10.449996948242173,3.3299942016601562,14.769996643066406,-0.6900024414062642,-8.210006713867188,-3.8600006103515625,-9.750000000000007,5.0,7.0,09-23,-0.7658348083496106
07-26,4.864997863769531,-6.680000305175781,-11.569999694824219,8.065002441406243,11.564994812011719,-11.65000152587892,2.029998779296875,13.069999694824219,-0.5699996948242188,-9.650001525878906,-3.2900009155273438,-10.11000061035157,5.0,7.0,09-24,-1.1604175567626978
07-27,3.954998016357422,-5.099998474121101,-10.319999694824219,6.4699974060058665,12.074996948242188,-12.550003051757812,-0.15000152587890625,13.739997863769531,-2.0900039672851562,-9.689994812011719,-3.7900009155273438,-12.180000305175795,4.0,8.0,09-25,-1.6358343760172538
07-28,4.384998321533196,-5.099998474121101,-13.34000015258789,6.825000762939446,13.689994812011719,-11.25,-3.80999755859375,12.709999084472656,-0.8699951171875142,-5.909996032714858,-5.3600006103515625,-10.889999389648445,4.0,8.0,09-26,-1.576666196187342
07-29,5.654998779296875,-5.4550018310546875,-14.139999389648438,6.430000305175774,13.334999084472656,-12.09999847412108,-4.6999969482421875,8.050003051757812,1.1500015258789062,-4.2599945068359375,-7.150001525878906,-12.119998931884773,5.0,7.0,09-27,-2.1087490717569985
07-30,3.575000762939453,-2.6949996948242188,-12.470001220703132,5.520000457763665,13.639999389648438,-11.489997863769517,-5.279998779296875,10.560005187988281,1.730003356933608,-4.589996337890611,-9.290000915527344,-9.930000305175781,5.0,7.0,09-28,-1.7266654968261694
07-31,2.4550018310546946,-5.630001068115227,-11.505001068115241,6.29499816894532,12.944999694824219,-9.080001831054673,-4.400001525878906,9.860000610351562,2.1800003051757812,-3.6300048828124574,-9.080001831054688,-9.39999771118164,5.0,7.0,09-29,-1.5825007756551048
08-01,1.7399978637695241,-5.36500167846679,-13.66500091552735,5.075000762939453,10.009994506835938,-6.160003662109389,-7.010002136230469,15.260002136230469,2.8600006103515625,-0.26000213623045454,-5.980003356933594,-8.930000305175795,5.0,7.0,09-30,-1.0354181925455748
08-02,2.4949989318847656,-4.345001220703118,-12.459999084472656,8.539997100830071,8.849998474121094,-9.939994812011719,-6.310005187988281,14.069999694824219,5.0,1.0699996948242188,-7.4799957275390625,-10.180000305175795,6.0,6.0,10-01,-0.8908335367838554
08-03,3.430000305175774,-3.9399986267089844,-11.845001220703125,2.650001525878899,7.5500030517578125,-12.790000915527358,-3.6399993896484375,11.589996337890625,7.9199981689453125,5.159996032714844,-4.779998779296875,-10.430000305175788,6.0,6.0,10-02,-0.7604169845581085
08-04,3.0300025939941335,-4.590000152587891,-9.17499923706054,4.225002288818359,8.985000610351562,-14.95999908447267,-3.9399948120117188,10.810005187988267,6.290000915527315,5.590003967285156,-7.4199981689453125,-12.520000457763672,6.0,6.0,10-03,-1.1395813624064175
08-05,2.745002746582024,-4.73500061035157,-12.454998016357422,4.700000762939446,9.090003967285156,-11.77999877929686,-3.2899932861328125,6.549995422363281,7.510002136230469,6.099998474121094,-9.199996948242188,-14.810001373291016,6.0,6.0,10-04,-1.6312487920125331
08-06,1.4150009155273438,-1.545001983642571,-10.094997406005852,2.670001983642571,9.569999694824219,-9.790000915527344,-4.090003967285156,5.4499969482421875,6.8300018310546875,6.480003356933594,-8.479995727539062,-16.029998779296882,6.0,6.0,10-05,-1.4679161707560222
08-07,3.0149993896484304,-2.1100006103515696,-7.469997406005859,1.170001983642571,8.069999694824219,-9.0,3.2999954223632812,4.4799957275390625,6.660003662109375,5.950004577636719,-7.75,-14.000000000000007,7.0,5.0,10-06,-0.6404164632161482
08-08,3.1550025939941335,-1.3050003051757884,-5.899997711181641,1.5900001525878906,6.6100006103515625,-11.209999084472656,4.3800048828125,6.7199935913085795,5.180000305175781,7.610008239746094,-9.520004272460938,-14.0,7.0,5.0,10-07,-0.5574992497762068
08-09,4.19000244140625,-0.710002899169929,-7.029998779296875,1.0049972534179688,7.875,-13.210006713867173,6.569999694824219,7.0,5.980003356933594,7.919998168945298,-8.450004577636719,-14.46999740600586,7.0,5.0,10-08,-0.2775007883707688
08-10,4.255001068115234,-1.0900001525878906,-5.0949974060058665,-0.03999710083008523,7.035003662109375,-14.690002441406236,7.5,7.959999084472642,7.430000305175767,8.280006408691378,-8.159996032714844,-13.75,6.0,6.0,10-09,-0.030415217081710466
08-11,5.474998474121101,0.68499755859375,-7.299999237060547,0.25999832153321023,6.350006103515625,-13.740005493164034,6.469993591308594,6.8600006103515625,7.660003662109361,8.330001831054716,-9.189994812011705,-12.709999084472656,8.0,4.0,10-10,-0.07083320617675189
08-12,5.259998321533196,1.5999984741211009,-9.625,0.875,6.3800048828125,-12.130004882812472,3.839996337890625,5.240005493164034,8.510002136230469,10.850006103515625,-9.330001831054702,-12.380001068115234,8.0,4.0,10-11,-0.07583300272623816
08-13,7.060001373291023,2.645000457763672,-8.439998626708984,0.09999847412110086,6.6399993896484375,-11.79000091552733,7.3600006103515625,6.7399978637695455,8.790000915527344,4.970001220703125,-9.930000305175795,-9.75,8.0,4.0,10-12,0.36625003814697504
08-14,7.454998016357415,2.7350006103515696,-8.075000762939453,-0.4249992370605469,7.560005187988281,-11.970001220703125,7.370002746582031,5.5,8.94000244140625,3.4000015258789062,-6.4300003051757955,-10.409999847412116,7.0,5.0,10-13,0.47083409627278466
08-15,9.370002746582031,2.410003662109375,-7.670001983642578,-0.15999984741210938,9.135002136230469,-16.259994506835938,6.019996643066406,5.75,9.910003662109375,11.02999877929689,-6.029998779296861,-8.330001831054688,7.0,5.0,10-14,1.2645842234293643
08-16,8.895000457763665,2.3300018310546875,-6.81500244140625,-0.579998016357429,11.75,-21.669998168945312,5.269996643066406,6.040000915527315,11.949996948242188,5.7099990844726705,-6.6699981689453125,-7.900001525878906,7.0,5.0,10-15,0.6924997965494768
08-17,9.80000305175782,1.7949981689453125,-6.525001525878906,-1.2050018310546946,14.18499755859375,-21.590003967285156,5.769996643066406,6.080001831054673,13.270004272460938,7.410003662109375,-9.6199951171875,-8.920001983642571,7.0,5.0,10-16,0.8708333969116205
08-18,9.555000305175788,2.700000762939453,-3.7049980163574148,0.3400001525878906,13.639999389648438,-17.26000213623047,5.3699951171875,3.7699966430664062,12.53000640869142,7.8000030517578125,-8.55999755859375,-8.729999542236321,8.0,4.0,10-17,1.4541670481363962
08-19,8.810001373291023,3.745002746582024,-1.7949981689453125,2.0849990844726634,14.799995422363281,-18.860000610351562,8.709999084472656,2.720001220703111,13.519996643066406,7.490005493164077,-9.629997253417969,-7.99000167846679,8.0,4.0,10-18,1.9670836130778007
08-20,9.790000915527337,4.310001373291016,-2.4699974060058594,2.8349990844726634,13.834999084472656,-19.110000610351562,10.409996032714844,2.6100006103515625,13.759994506835952,5.370002746582031,-8.510002136230469,-6.019996643066406,8.0,4.0,10-19,2.234166463216147
08-21,8.50999832153321,4.799999237060547,-0.16500091552734375,3.2350006103515696,15.224998474121094,-15.92000579833983,12.639999389648438,1.959999084472642,12.970001220703125,4.6500015258789205,-9.040000915527344,-5.970001220703125,8.0,4.0,10-20,2.7412490844726585
08-22,9.259998321533203,3.875,0.7600021362304688,3.1649971008300852,13.495002746582031,-15.049995422363281,15.549995422363281,3.8899993896484517,12.420005798339844,2.8199996948242188,-8.740005493164077,-8.14000320434571,9.0,3.0,10-21,2.775416374206543
08-23,9.290000915527344,4.194999694824226,-0.5499992370605469,3.8699989318847727,13.584999084472656,-15.180000305175753,15.610000610351562,3.849998474121108,11.550003051757812,2.150001525878892,-7.30999755859375,-8.050003051757805,8.0,4.0,10-22,2.750833511352543
08-24,8.555000305175788,5.7550010681152415,-1.0249977111816406,2.079998016357422,13.605003356933594,-11.91000366210936,14.519996643066406,4.3299942016601705,11.139999389648452,0.20999908447265625,-4.589996337890611,-9.210002899169915,8.0,4.0,10-23,2.788332621256517
08-25,9.264999389648445,6.330001831054695,-0.46000289916991477,1.470001220703125,14.01999664306642,-15.870002746582017,15.419998168945312,4.660003662109375,12.329994201660156,-2.4000015258789062,-2.6800003051757812,-9.260002136230455,7.0,5.0,10-24,2.7354154586792045
08-26,9.479999542236335,6.0900001525878835,0.38500213623047586,0.49500274658203125,10.665000915527344,-17.330001831054688,12.790000915527344,3.6999969482421733,13.569999694824219,-7.529998779296861,-0.30999755859375,-8.13999938964843,8.0,4.0,10-25,1.988750457763673
08-27,9.244998931884766,3.954998016357429,-0.2350006103515554,0.7649993896484375,11.075004577636719,-16.540000915527344,10.010002136230469,2.480003356933608,13.080001831054688,-12.510002136230469,0.279998779296875,-8.020000457763672,8.0,4.0,10-26,1.1320835749308291
08-28,7.9550018310546875,4.950000762939446,-2.015003204345696,0.9399986267089844,9.489997863769531,-14.989997863769531,8.120002746582031,1.529998779296875,12.75,-11.830001831054688,-0.589996337890625,-8.700000762939453,7.0,5.0,10-27,0.6341667175292969
08-29,7.430000305175781,4.095001220703118,-2.065002441406243,1.3249969482421946,12.169998168945312,-17.77999877929686,5.0800018310546875,1.0,13.0,-12.639999389648438,-2.5100021362304688,-10.40999984741211,7.0,5.0,10-28,-0.10875034332275213
08-30,7.384998321533203,4.100002288818345,-2.3899993896484375,2.404998779296875,13.194999694824219,-19.279998779296875,4.3899993896484375,2.0699996948242188,12.480003356933594,-11.79000091552733,-1.7099990844726562,-10.759998321533196,7.0,5.0,10-29,0.007917086283366478
08-31,6.134998321533203,4.444999694824212,-2.5849990844726562,1.1999969482421946,11.995002746582031,-16.209999084472656,6.480003356933594,3.6500015258789062,11.930000305175781,-11.67000579833983,-3.0799942016601562,-12.830001831054695,7.0,5.0,10-30,-0.04499975840250592
09-01,6.8249969482421875,2.909999847412095,0.7099990844726562,1.5499992370605469,13.325004577636719,-14.580001831054702,8.770004272460938,3.1899948120117045,12.819999694824219,-15.639999389648438,-2.3199996948242188,-12.70000076293946,8.0,4.0,10-31,0.40499973297118724
09-02,7.174999237060547,2.7250022888183594,3.4150009155273438,2.384998321533203,10.950004577636719,-14.580001831054702,7.0800018310546875,1.8899993896484233,13.659996032714844,-12.169998168945298,-4.5099945068359375,-11.190002441406257,8.0,4.0,11-01,0.5691671371459943
09-03,8.039997100830078,2.6949996948242188,1.2350006103515625,3.5849990844726634,10.950004577636719,-14.610000610351562,8.069999694824219,-4.410003662109375,14.000000000000014,-12.340003967285156,-4.5099945068359375,-9.159999847412102,7.0,5.0,11-02,0.2954165140787784
09-04,5.595001220703125,3.6800003051757812,-0.5400009155273509,3.5849990844726634,9.900001525878906,-12.389999389648438,8.959999084472656,-3.6699981689453125,16.419998168945312,-12.340003967285156,-5.9499969482421875,-8.899997711181634,6.0,6.0,11-03,0.3625001907348639
09-05,4.165000915527344,4.514999389648445,4.540000915527344,3.974998474121101,8.485000610351562,-10.129997253417983,8.409996032714844,-3.8899993896484517,16.419998168945312,-12.550003051757812,-6.290000915527344,-5.680000305175781,7.0,5.0,11-04,0.9974994659423816
09-06,4.680000305175781,-0.034999847412109375,4.540000915527344,2.2349967956542898,8.629997253417969,-8.090003967285156,10.789993286132812,-3.8899993896484517,14.44000244140625,-8.610000610351562,-5.290000915527344,-5.810001373291016,6.0,6.0,11-05,1.1324987411499006
09-07,5.8300018310546875,-0.034999847412109375,2.6850013732910156,1.1599998474121165,9.905006408691406,-11.1300048828125,8.80999755859375,-3.379997253417983,14.349998474121108,-12.120002746582031,-6.30999755859375,-4.790000915527344,6.0,6.0,11-06,0.4145835240681972
09-08,5.8300018310546875,-0.8149986267089844,5.3899993896484375,2.204998016357429,8.040000915527344,-5.310005187988281,8.80999755859375,-3.3499984741210938,17.720001220703125,-7.970001220703125,-5.989997863769531,-4.790000915527344,6.0,6.0,11-07,1.6474997202555344
09-09,5.430000305175774,-0.5400009155273438,8.180000305175781,4.790000915527344,6.495002746582031,-5.2099990844726705,9.540000915527344,-0.849998474121108,19.029998779296875,-6.989997863769531,-8.580001831054688,-5.819999694824219,6.0,6.0,11-08,2.1229171752929656
09-10,5.604999542236328,-1.7949981689453125,7.529998779296875,3.799999237060547,6.569999694824219,-5.910003662109389,8.410003662109375,0.4499969482421875,18.159996032714844,-5.1699981689453125,-8.680000305175781,-2.4000015258789062,7.0,5.0,11-09,2.2141660054524728
09-11,7.200000762939453,-1.4150009155273438,7.900001525878906,3.7849998474121094,4.745002746582031,-4.089996337890639,8.1199951171875,0.37999725341796875,16.400001525878906,-7.069999694824219,-9.610000610351562,-4.469997406005852,7.0,5.0,11-10,1.8229169845581048
09-12,7.655002593994141,-0.15000152587889914,6.060001373291016,3.509998321533203,1.7949981689453125,-1.7699966430664205,8.94000244140625,0.4499969482421875,15.860000610351562,-7.7900009155273295,-4.94000244140625,1.1400032043457031,8.0,4.0,11-11,2.5633335113525395
09-13,7.045001983642578,0.7949981689453054,5.740001678466797,0.2949981689453125,2.2600021362304688,-3.410003662109375,10.150001525878906,3.029998779296875,13.230003356933594,-11.770004272460952,-4.69000244140625,3.0200004577636648,9.0,3.0,11-12,2.141249656677244
09-14,6.5800018310546875,0.8400001525878835,5.240001678466797,-1.5500030517578196,2.8249969482421875,-3.160003662109375,6.8899993896484375,4.980003356933594,13.0,-12.309997558593736,-11.819999694824219,2.740001678466797,8.0,4.0,11-13,1.1879167556762695
09-15,5.194999694824219,1.1499977111816335,4.819999694824219,-0.8199996948242259,0.6500015258789062,-4.350006103515611,6.069999694824219,1.6800003051757528,11.360000610351562,-16.290000915527344,-12.349998474121094,3.3199996948242188,8.0,4.0,11-14,0.036249478658037994
09-16,3.509998321533203,1.5550003051757812,6.92499923706054,-0.5600013732910156,1.8300018310546875,-7.660003662109361,3.3799972534179688,0.44000244140625,11.409996032714858,-19.020004272460938,-13.029998779296875,1.0499992370605469,8.0,4.0,11-15,-0.8475011189778628
09-17,3.145000457763672,1.470001220703118,8.004997253417976,-1.5200004577636719,0.845001220703125,-7.630004882812472,2.029998779296875,2.6299972534179688,9.419998168945327,-19.470001220703125,-8.610000610351562,-0.6999969482421804,7.0,5.0,11-16,-0.8654174804687459
09-18,3.3199996948242188,2.3499984741210938,7.299999237060554,-1.259998321533196,-1.1649932861328125,-9.1300048828125,5.989997863769531,4.519996643066406,8.309997558593764,-21.379997253417983,-8.709999084472656,1.9599990844726562,7.0,5.0,11-17,-0.6579170227050769
09-19,4.625,1.6599998474121023,6.465000152587905,-0.10499954223632812,-0.529998779296875,-6.2099990844726705,8.270004272460938,5.1699981689453125,8.230003356933608,-22.099998474121094,-9.260002136230469,6.539997100830078,7.0,5.0,11-18,0.22958374023437558
09-20,4.350002288818359,1.2199974060058594,6.7849998474121165,1.3050003051757884,1.2550048828125,-5.389999389648423,6.4600067138671875,4.819999694824219,7.180000305175781,-17.62000274658203,-7.519996643066406,6.539997100830078,9.0,3.0,11-19,0.7820841471354191
09-21,3.7299995422363352,0.2749977111816406,8.630001068115241,1.3600006103515625,-0.1699981689453125,-4.0699996948242045,8.6300048828125,1.7000045776367188,7.540000915527344,-14.260002136230455,-8.8699951171875,6.539997100830078,8.0,4.0,11-20,0.9195842742919957
09-22,2.3549995422363352,-0.095001220703125,10.134998321533203,2.700000762939453,-0.4850006103515625,-3.4099960327148295,9.930000305175781,-0.2700042724609375,7.089996337890639,-18.27999877929686,-9.729995727539062,6.899997711181641,6.0,6.0,11-21,0.5699996948242229
09-23,3.2649993896484446,1.220001220703125,12.05999755859375,2.700000762939453,-0.970001220703125,-2.5099945068359375,12.110000610351562,3.4000015258789062,5.150001525878892,-18.27999877929686,-8.069999694824219,8.969997406005866,8.0,4.0,11-22,1.5870838165283214
09-24,3.43499755859375,0.4249992370605469,9.665000915527337,2.095001220703125,-2.5849990844726562,-3.80999755859375,9.389999389648438,6.409996032714844,5.150001525878892,-21.629997253417955,-6.5,8.699996948242188,8.0,4.0,11-23,0.8954165776570632
09-25,3.7649993896484304,0.625,9.665000915527337,2.490001678466797,-2.2300033569335938,-0.9199981689453267,9.839996337890625,6.409996032714844,5.370002746582031,-23.279998779296875,-4.709999084472656,7.899997711181641,8.0,4.0,11-24,1.243749618530271
09-26,4.025001525878913,0.625,9.150001525878906,3.4000015258789062,-1.3899993896484375,-0.1399993896484375,13.139999389648438,6.0099945068359375,4.7900009155273295,-22.9499969482422,-1.7699966430664062,7.9099998474121165,8.0,4.0,11-25,1.9000005722045887
09-27,4.025001525878913,-1.2750015258789062,8.185001373291016,2.470001220703125,-0.29000091552734375,-2.3100051879882812,13.139999389648438,6.709999084472656,4.340003967285156,-21.0,-1.9900054931640625,7.9099998474121165,7.0,5.0,11-26,1.6595827738444022
09-28,4.210002899169929,-1.5400009155273438,10.345001220703125,3.4699974060058736,-0.0449981689453125,-2.3100051879882812,15.709999084472656,1.30999755859375,4.769996643066406,-26.870002746582017,-0.7000045776367188,7.9099998474121165,7.0,5.0,11-27,1.3549985885620153
09-29,3.4550018310546875,-2.5600013732910156,8.915000915527344,1.229999542236321,-0.0449981689453125,-5.130004882812528,15.010002136230469,1.9499969482422017,4.920005798339858,-26.95000457763672,-0.7000045776367188,9.159999847412116,7.0,5.0,11-28,0.7712494532267252
09-30,2.520000457763679,-1.5849990844726562,9.930000305175788,0.44499969482421164,-0.04000091552734375,-2.279998779296889,12.339996337890625,-0.7299957275390625,2.6399993896484375,-27.54000854492186,-2.30999755859375,9.40999984741211,6.0,6.0,11-29,0.23333295186360736
10-01,4.329998016357422,-3.625,13.589996337890618,1.0799980163574148,-1.4749984741210938,-0.11000061035157671,9.94000244140625,-2.6399993896484375,2.6599960327148438,-25.720008850097656,0.3300018310546875,10.489997863769538,7.0,5.0,11-30,0.7374986012776675
10-02,3.2350006103515696,-3.25,14.909999847412102,0.6049995422363281,-1.5800018310546875,-2.9899978637695455,4.959999084472656,-3.6699981689453267,3.3199996948242188,-26.230003356933594,2.1100006103515625,10.539997100830078,7.0,5.0,12-01,0.16333293914794686
10-03,1.9899978637695455,-3.3850021362304688,17.664997100830078,2.634998321533203,-2.6850051879882812,-9.849998474121094,2.779998779296875,6.409996032714844,4.0,-26.610008239746094,1.5100021362304688,8.889999389648438,8.0,4.0,12-02,0.27916463216145954
10-04,2.8899993896484446,-2.0450019836425852,15.039997100830085,3.1100006103515625,-4.7949981689453125,-7.849998474121094,3.4000015258789062,7.379997253417969,4.1699981689453125,-24.759994506835938,-0.01999664306640625,8.889999389648438,7.0,5.0,12-03,0.4508336385091152
10-05,2.2899971008300852,-2.8500022888183665,13.469997406005866,3.8549995422363352,-3.9150009155273438,-4.789993286132827,0.20999908447265625,5.139999389648452,5.7699966430664205,-27.74000549316402,1.029998779296875,8.889999389648438,8.0,4.0,12-04,0.11333211263021425
10-06,1.2549972534179688,-3.444999694824226,11.994998931884766,3.7099990844726634,-3.6750030517578125,-3.2899932861328267,-1.9799957275390625,7.6100006103515625,6.720001220703139,-26.52000427246095,-0.9800033569335795,9.359996795654297,6.0,6.0,12-05,0.06333287556966145
10-07,1.1899986267089844,-2.349998474121101,13.829998016357429,3.6800003051757812,-2.8499984741210938,-1.8099975585937642,-2.9099960327148438,7.299995422363281,4.550003051757798,-21.720001220703153,2.2900009155273438,8.639999389648438,7.0,5.0,12-06,0.8200003306070917
10-08,-1.4150009155273509,-2.8600006103515554,11.349998474121094,4.450000762939453,-2.1650009155273438,-2.759994506835966,-6.0500030517578125,7.1699981689453125,4.400001525878906,-25.760002136230497,3.3199996948242045,7.680000305175781,6.0,6.0,12-07,-0.2200002670288145
10-09,-1.2649993896484375,-2.590000152587905,12.739997863769531,3.8349990844726634,-2.1949996948242188,1.0400009155273438,-6.810005187988281,6.680000305175781,2.3600006103515625,-28.280006408691406,3.4600067138672017,7.789997100830078,7.0,5.0,12-08,-0.26958401997884057
10-10,-1.6550025939941406,-3.424999237060554,11.80999755859375,4.6100006103515625,-4.739997863769531,0.9199981689453125,-9.839996337890625,6.239997863769531,2.0800018310546875,-22.400001525878906,1.6799926757812358,7.1399993896484375,7.0,5.0,12-09,-0.6316674550374367
10-11,-2.6650009155273438,-3.6800003051757884,11.444999694824219,4.2649993896484375,-9.475006103515625,4.430000305175781,-8.919998168945312,7.479995727539077,1.9300003051757812,-19.49000549316409,4.709999084472656,7.1399993896484375,7.0,5.0,12-10,-0.23583475748698093
10-12,-2.4449996948242116,-3.3550033569335938,11.040000915527344,4.284999847412109,-11.459999084472656,5.3899993896484375,-7.650001525878906,7.229995727539077,3.0699996948242188,-18.56999969482422,6.319999694824219,7.1399993896484375,7.0,5.0,12-11,0.08291594187418798
10-13,-1.9699974060058452,-3.2750015258789062,10.204998016357415,3.740001678466797,-10.875,3.029998779296875,-6.900001525878906,9.430000305175781,3.769996643066392,-20.860000610351562,6.649993896484375,6.709999084472656,7.0,5.0,12-12,-0.028751055399577414
10-14,-2.875,-3.3899993896484304,9.884998321533203,4.240001678466797,-12.400001525878906,2.9500045776367188,-7.400001525878906,11.969993591308608,4.0,-20.5,6.4799957275390625,7.729999542236321,7.0,5.0,12-13,0.05749924977620561
10-15,-3.2350006103515625,-4.645000457763672,9.819999694824212,5.244998931884773,-11.855003356933594,-1.3799972534179688,-8.959999084472656,12.050003051757812,3.0699996948242188,-18.639999389648438,5.4199981689453125,7.269996643066406,6.0,6.0,12-14,-0.486666997273763
10-16,-3.379997253417976,-5.31500244140625,8.544998168945312,3.5,-13.014999389648438,-4.409996032714844,-12.610000610351562,14.230003356933608,2.7300033569335795,-18.3300018310547,6.489997863769531,7.930000305175781,6.0,6.0,12-15,-1.13624954223633
10-17,-1.9799995422363281,-4.840000152587891,5.879997253417969,2.75,-11.514999389648438,-4.849998474121094,-7.9499969482421875,10.430000305175781,2.490005493164034,-16.209999084472656,9.940002441406264,9.159999847412116,6.0,6.0,12-16,-0.5579156875610357
10-18,-1.2749977111816477,-5.604999542236321,3.575000762939453,1.8800010681152273,-12.384994506835938,-7.420005798339858,-7.5099945068359375,11.080001831054702,3.279998779296861,-15.72000122070311,11.049995422363281,9.159999847412116,6.0,6.0,12-17,-0.8241662979125977
10-19,-0.5200004577636648,-4.680000305175774,2.6499977111816406,2.9599990844726634,-12.290000915527344,-7.290000915527358,-9.009994506835938,9.150001525878892,3.8799972534179545,-17.589996337890625,10.249999999999986,9.159999847412116,6.0,6.0,12-18,-1.1108331680297876
10-20,-0.5500030517578054,-5.0,3.5500030517578196,4.430000305175781,-12.335006713867188,-1.6200027465820455,-9.069999694824219,9.009994506835938,1.7100067138671733,-20.040000915527344,11.14999389648436,9.069999694824212,6.0,6.0,12-19,-0.8079179128011097
10-21,0.18499755859375,-4.145000457763672,3.529998779296868,5.904998779296875,-11.160003662109375,-4.8899993896484375,-7.9799957275390625,10.120002746582045,2.94000244140625,-22.239997863769517,12.929992675781236,10.229999542236321,7.0,5.0,12-20,-0.38125038146972656
10-22,0.5400009155273438,-2.819999694824226,2.2449989318847656,5.1699981689453125,-11.574996948242202,-0.9300003051757812,-12.5,9.860000610351548,4.459999084472656,-23.269996643066406,11.019996643066406,8.419998168945312,7.0,5.0,12-21,-0.7816667556762725
10-23,1.8949966430664062,-3.0,3.4449996948242188,6.144996643066406,-8.220001220703125,-0.9500045776367045,-14.0,9.54000091552733,6.569999694824219,-18.13999938964845,8.649993896484375,7.840000152587891,7.0,5.0,12-22,-0.018751462300619675
10-24,3.915000915527351,-2.904998779296875,3.549999237060547,5.875,-8.049995422363281,2.9199981689453125,-13.139999389648438,8.930000305175753,7.05999755859375,-13.159996032714844,9.279998779296875,10.419998168945312,8.0,4.0,12-23,1.2245836257934553
10-25,5.454998016357422,-2.904998779296875,5.3300018310546875,5.9750022888183665,-7.459999084472656,6.629997253417983,-13.580001831054688,9.880004882812486,7.3899993896484375,-17.380004882812514,10.180000305175781,10.419998168945312,8.0,4.0,12-24,1.6612497965494786
10-26,5.454998016357422,-2.049999237060547,5.380001068115234,5.14000320434571,-6.9499969482421875,6.629997253417983,-13.580001831054688,10.41000366210936,6.620002746582031,-16.819999694824233,11.610000610351562,10.419998168945312,8.0,4.0,12-25,1.8554172515869134
10-27,5.5,-2.055000305175774,2.670001983642578,3.5400009155273366,-7.400001525878906,7.980003356933594,-12.889999389648438,10.810005187988281,7.879997253417969,-14.779998779296875,12.329994201660156,10.7699966430664,8.0,4.0,12-26,2.02958329518636
10-28,6.75,-1.3700027465820384,1.5750007629394531,3.1399993896484304,-7.0800018310546875,4.910003662109375,-14.980003356933594,12.329994201660156,7.5800018310546875,-19.18000030517578,12.759994506835938,12.840000152587898,8.0,4.0,12-27,1.6062488555908196
10-29,7.025001525878906,-2.1350021362304688,4.4199981689453125,2.5300025939941264,-8.410003662109375,3.2800064086914205,-11.829994201660156,11.610000610351562,9.8800048828125,-13.050003051757812,12.0,11.379997253417969,8.0,4.0,12-28,2.2250006993611655
10-30,9.459999084472656,-2.9749984741210866,4.790000915527337,2.5300025939941264,-6.035003662109375,1.8300018310546733,-12.430000305175781,12.120002746582031,8.830001831054688,-16.52000427246095,14.189994812011719,11.10999679565429,8.0,4.0,12-29,2.2416661580403603
10-31,8.979999542236328,-3.0449981689453125,3.5050010681152415,2.5300025939941264,-5.189994812011719,-1.2300033569335795,-15.580001831054688,11.230003356933594,8.489997863769517,-16.349998474121094,14.340003967285156,10.199996948242188,7.0,5.0,12-30,1.4900007247924798
11-01,8.64999771118164,-2.4399986267089773,5.280002593994155,2.375,-4.909996032714844,1.0100021362304688,-14.980003356933594,10.489997863769531,6.069999694824219,-18.099998474121094,11.989997863769531,10.199996948242188,8.0,4.0,12-31,1.3029165267944354
11-02,8.64999771118164,-3.2749977111816406,0.20000076293946023,3.2150001525878835,-7.150001525878906,1.0100021362304688,-14.980003356933594,10.70999908447267,5.410003662109361,-13.55999755859375,9.449996948242188,10.199996948242188,8.0,4.0,01-01,0.8233331044514974
11-03,8.134998321533203,1.2750015258789134,-1.7949981689453054,0.9000015258788991,-8.055000305175781,-0.620002746582017,-17.360000610351562,9.569999694824219,3.9499969482422017,-18.830001831054688,8.699996948242188,10.329998016357422,7.0,5.0,01-02,-0.31666755676269237
11-04,6.984996795654297,1.7299995422363281,-1.8149986267089915,1.9900016784667898,-7.810005187988281,2.4199981689453267,-15.3800048828125,9.479995727539077,0.9500045776367188,-19.139999389648438,10.069999694824219,9.30999755859375,8.0,4.0,01-03,-0.10083452860514204
11-05,5.389999389648445,1.4000015258789062,-1.329998016357429,3.4350013732910085,-5.944999694824219,-3.400001525878892,-15.860000610351562,7.6699981689453125,2.340003967285142,-15.739997863769531,9.75,9.75,7.0,5.0,01-04,-0.21166610717773496
11-06,3.4750022888183523,1.4449996948242188,0.1399993896484375,0.8499984741210938,-4.400001525878906,-6.900001525878906,-14.479995727539062,10.110000610351562,3.970001220703125,-16.720001220703125,12.340003967285156,10.7699966430664,8.0,4.0,01-05,0.050000190734862095
11-07,3.989997863769524,1.3400001525878906,0.20999908447265625,1.8400001525878906,-3.279998779296875,-7.310005187988281,-15.69000244140625,10.190002441406264,4.840003967285156,-18.540000915527344,9.400001525878906,5.039997100830078,8.0,4.0,01-06,-0.6641670862833653
11-08,3.375,1.4350013732910156,-0.160003662109375,4.2050018310546875,-3.2000045776367188,-11.819999694824219,-15.240005493164062,10.260002136230483,6.599998474121094,-14.879997253417969,10.290000915527344,5.039997100830078,7.0,5.0,01-07,-0.34125073750813684
11-09,3.5400009155273438,0.17000198364257102,1.6799964904785156,5.640003204345696,-3.714996337890625,-14.290000915527344,-18.050003051757812,10.190002441406264,6.169998168945327,-11.59000396728517,14.620002746582031,5.039997100830078,8.0,4.0,01-08,-0.04958343505859375
11-10,4.150001525878906,-0.7749977111816335,1.0550003051757812,5.6149978637695455,-2.2999954223632812,-14.819999694824219,-19.26000213623047,11.550003051757827,7.589996337890625,-6.739997863769517,15.470001220703125,3.1599998474121165,7.0,5.0,01-09,0.3912506103515672
11-11,4.615001678466797,-0.6450004577636719,-0.7900009155273366,4.6899986267089915,-2.3349990844726562,-15.069999694824219,-16.0,13.799995422363281,8.25,-5.730003356933594,13.519996643066406,3.4399986267089844,6.0,6.0,01-10,0.6454156239827485
11-12,4.845001220703118,1.1049995422363281,-0.7999992370605469,4.93499755859375,-0.160003662109375,-13.879997253417983,-16.230003356933594,10.339996337890625,7.25,-2.059997558593764,14.049995422363281,4.859996795654297,7.0,5.0,01-11,1.1879154841105113
11-13,5.275001525878899,1.2599983215332031,0.875,4.67499923706054,-1.3400039672851562,-8.970001220703125,-16.730003356933608,10.720001220703125,7.550003051757827,0.6700057983398295,14.729995727539062,2.6800003051757812,9.0,3.0,01-12,1.7829163869221982
11-14,3.8050003051757812,2.1500015258789062,-0.2999992370605469,5.634998321533196,-1.3349990844726562,-10.700004577636719,-21.12000274658203,12.239997863769531,9.540000915527358,1.120002746582017,15.900001525878906,0.0,7.0,5.0,01-13,1.4112497965494786
11-15,2.4449996948242188,3.029998779296882,0.404998779296875,4.969997406005859,-2.285003662109375,-11.839996337890625,-21.87000274658203,10.349998474121094,10.65000152587892,-2.4699935913085795,12.789993286132812,0.0,7.0,5.0,01-14,0.514582633972171
11-16,3.6150016784667898,3.7199974060058736,1.2399978637695241,4.479999542236321,-2.529998779296875,-11.290000915527344,-20.62000274658203,9.699996948242188,10.580001831054702,-8.329994201660156,14.259994506835938,0.0,7.0,5.0,01-15,0.4020827611287441
11-17,3.8899993896484304,4.1599998474121165,3.075000762939453,3.0250015258789062,0.04000091552734375,-8.610000610351562,-18.81000518798828,12.580001831054688,13.5,-7.199996948242173,15.069999694824219,0.0,8.0,4.0,01-16,1.7266667683919283
11-18,4.5100021362304545,3.1899986267089915,3.0200004577636648,3.2449989318847656,0.9199981689453125,-9.930000305175781,-20.980003356933594,12.22000122070314,14.259994506835966,-7.120002746582031,15.479995727539062,0.0,8.0,4.0,01-17,1.5679152806599959
11-19,5.420001983642571,2.450000762939453,3.5149993896484446,3.3800010681152415,1.2350006103515625,-10.590003967285156,-18.480003356933594,9.720001220703125,11.949996948242202,-7.040000915527344,16.339996337890625,0.0,8.0,3.0,01-18,1.4916658401489276
11-20,5.7649993896484375,4.040000915527344,3.8549995422363352,3.9850006103515696,1.720001220703125,-11.700004577636705,-17.3699951171875,9.810005187988281,12.08999633789064,-3.69000244140625,14.680000305175781,0.0,8.0,3.0,01-19,1.9320834477742548
11-21,4.345001220703132,5.189998626708977,4.6800003051757955,3.615001678466804,0.5250015258789062,-15.209999084472642,-19.599998474121087,9.730003356933594,11.8699951171875,-7.3300018310546875,13.419998168945312,0.0,8.0,3.0,01-20,0.9362500508626338
11-22,4.584999084472656,4.470001220703132,5.194999694824226,3.19000244140625,-0.024993896484375,-9.25,-21.59000015258789,10.1300048828125,11.94000244140625,-2.029998779296889,14.029998779296875,0.0,7.0,4.0,01-21,1.7204179763793945
11-23,4.075000762939453,6.370002746582038,6.8800010681152415,3.5200004577636648,-0.11499786376953125,-10.229995727539077,-22.329998016357422,8.400001525878906,12.579994201660142,-1.6499938964844034,11.790000915527344,0.0,7.0,4.0,01-22,1.6075013478596965
11-24,3.8899993896484375,5.819999694824226,7.104999542236321,5.069999694824219,0.01999664306640625,-9.01999664306642,-24.89999771118164,9.209999084472642,12.70999908447267,-1.4899978637695455,10.520004272460938,0.0,8.0,3.0,01-23,1.577917098999021
11-25,3.3100013732910156,6.220001220703125,6.145000457763665,4.924999237060547,1.2649993896484375,-6.199996948242173,-23.289997100830078,9.489997863769531,17.0,-5.680000305175781,9.569999694824219,0.0,8.0,3.0,01-24,1.8962504069010422
11-26,4.679996490478516,6.400001525878906,5.005001068115234,4.049999237060547,1.2600021362304688,-3.529998779296875,-18.269996643066406,9.989997863769531,18.019996643066406,-5.970001220703125,11.17999267578125,0.0,8.0,3.0,01-25,2.7345825831095376
11-27,3.4099998474121023,6.255001068115234,4.480003356933587,4.834999084472656,2.6450042724609375,3.6399993896484375,-16.000000000000014,10.209999084472656,18.650001525878906,-5.379997253417983,10.739997863769531,0.0,9.0,2.0,01-26,3.6237506866455043
11-28,4.24000167846679,5.32500076293946,5.61000061035157,4.200000762939453,2.0849990844726562,4.069999694824219,-21.84000015258789,10.430000305175781,18.6300048828125,-7.1999969482421875,10.930000305175781,0.0,9.0,2.0,01-27,3.040000915527344
11-29,3.325000762939446,6.529998779296875,4.289997100830085,3.674999237060554,0.2649993896484375,5.090003967285156,-17.400001525878892,11.45999908447267,17.970001220703125,-8.230003356933608,8.949996948242188,0.0,9.0,2.0,01-28,2.9937493006388363
11-30,2.950000762939446,6.665000915527344,1.5349998474121094,3.8249969482421804,-1.4499969482421875,5.760002136230469,-17.360000610351562,1.3800048828125,15.129997253417983,-4.2099990844726705,5.849998474121094,0.0,8.0,3.0,01-29,1.672917048136392
12-01,2.049999237060547,5.32500076293946,1.1100006103515625,3.479999542236321,1.1100006103515625,0.8600006103515625,-17.980003356933594,-0.3600006103515625,14.849998474121108,-10.010002136230469,6.260002136230469,0.0,8.0,3.0,01-30,0.557916323343914
12-02,2.6500015258789062,4.694999694824219,0.7800025939941406,4.850002288818359,-0.1750030517578125,-2.2000045776367045,-14.790000915527344,-0.8399963378906108,15.52999877929689,-9.239997863769517,4.349998474121094,0.0,6.0,5.0,01-31,0.46750005086263496
12-03,2.325000762939446,4.395000457763665,1.5999984741211009,4.540000915527337,-0.41500091552734375,-3.7000045776367045,-12.360000610351562,-3.2600021362304545,14.119995117187514,-8.66000366210936,6.360000610351548,0.0,6.0,5.0,02-01,0.4120820363362654
12-04,1.6749992370605469,6.0050010681152415,2.0149993896484375,4.569999694824219,-1.2400054931640625,-4.089996337890625,-9.470001220703125,-2.8799972534179688,13.949996948242202,-4.620002746582017,3.089996337890625,0.0,6.0,5.0,02-02,0.7504158020019561
12-05,4.140003204345696,6.5,1.8950004577636719,3.799999237060547,0.375,-1.720001220703125,-7.100006103515639,-3.4599990844726562,14.099998474121094,-2.680000305175753,5.230003356933594,0.0,7.0,4.0,02-03,1.756666501363119
12-06,4.880001068115234,6.4300003051757955,0.5050010681152344,3.3100013732910156,2.600006103515625,4.329994201660156,-9.02999877929686,-2.970001220703125,16.139999389648438,-2.930000305175753,-1.0499954223632812,0.0,7.0,4.0,02-04,1.8512506484985398
12-07,4.965000152587891,7.264999389648445,1.4350013732910156,5.625003814697266,1.8000030517578125,8.119995117187514,-6.0,-2.529998779296875,16.79999542236328,-4.760002136230469,-3.1399993896484375,0.0,7.0,4.0,02-05,2.4649998346964535
12-08,5.974998474121094,7.520000457763679,2.9250030517578196,4.779998779296875,5.220001220703125,6.999999999999986,-6.9199981689453125,-5.220001220703125,12.44000244140625,-2.3300018310547017,-0.8899993896484375,0.0,7.0,4.0,02-06,2.541666984558104
12-09,5.754997253417962,7.409999847412102,2.6699981689453125,5.545001983642592,4.6750030517578125,6.0400009155273295,-8.189994812011719,-5.509994506835966,8.349998474121108,-3.3600006103515625,2.5400009155273438,0.0,8.0,3.0,02-07,2.160417556762693
12-10,3.115001678466797,8.014999389648438,4.504997253417983,5.969997406005859,4.090003967285156,8.400001525878892,-9.739997863769531,-6.130004882812486,7.05999755859375,-5.529998779296875,2.2100067138671875,0.0,8.0,3.0,02-08,1.8304169972737643
12-11,3.404998779296875,7.444999694824219,5.039997100830078,5.469997406005859,5.6150054931640625,9.330001831054673,-7.8300018310546875,-8.639999389648452,4.569999694824219,-5.8899993896484375,2.3800048828125,0.0,8.0,3.0,02-09,1.7412503560384092
12-12,0.595001220703125,7.0300025939941335,5.184997558593757,4.4650001525878835,7.444999694824219,9.419998168945312,-8.430000305175781,-7.69000244140625,5.5,-7.75,-0.839996337890625,0.0,7.0,4.0,02-10,1.2441666920979813
12-13,2.075000762939453,6.625,6.459999084472656,5.6300010681152415,8.739997863769531,10.610000610351577,-11.270004272460952,-9.870002746582045,5.839996337890639,-9.84000396728517,-1.1399993896484375,0.0,7.0,4.0,02-11,1.1549987792968743
12-14,-1.075000762939446,6.149997711181641,9.125,7.145000457763665,7.2299957275390625,9.920005798339858,-11.069999694824219,-6.069999694824219,1.4000015258789062,-7.5800018310546875,-4.2100067138671875,0.0,6.0,5.0,02-12,0.9137493769327811
12-15,-1.7800025939941264,6.914997100830071,9.004997253417962,6.18499755859375,7.4949951171875,7.860000610351577,-11.510002136230469,-4.110000610351548,1.5199966430664205,-2.0,-3.1200027465820312,0.0,6.0,5.0,02-13,1.3716646830240922
12-16,-2.5349998474121094,6.8649978637695455,7.075000762939453,6.56500244140625,7.68499755859375,7.729995727539077,-10.010002136230469,-2.559997558593764,3.2299957275390625,-0.5800018310547017,-2.5300064086914062,0.0,6.0,5.0,02-14,1.7445818583170574
12-17,-2.1450004577636648,5.815002441406243,8.904998779296868,6.31500244140625,7.730003356933594,2.059997558593764,-7.510002136230469,-3.1300048828125,2.55999755859375,0.5400009155273438,-3.4300003051757812,0.0,7.0,4.0,02-15,1.4758329391479499
12-18,-0.9449996948242116,6.720001220703125,9.09000015258789,4.840003967285156,6.555000305175781,0.75,-5.870002746582031,-2.25,6.849998474121108,2.739997863769517,-5.209999084472656,0.0,7.0,4.0,02-16,1.9391667048136398
12-19,-1.8549995422363352,6.045001983642571,9.634998321533203,5.575004577636719,4.8899993896484375,-0.21999359130860796,-2.5500030517578125,-2.7300033569335938,5.330001831054702,3.7699966430664062,-5.870002746582031,0.0,6.0,5.0,02-17,1.8350000381469715
12-20,-0.9350013732910227,5.764999389648445,8.43499755859375,4.61500167846679,3.4749984741210938,1.8600006103515483,-2.3600006103515625,-2.410003662109375,3.220001220703139,7.010002136230469,-6.980003356933594,0.0,7.0,4.0,02-18,1.8079160054524734
12-21,-0.9150009155273509,5.66999816894532,8.329998016357422,4.880001068115234,4.670005798339844,1.4300003051757528,0.5699996948242188,-1.8000030517577983,0.4100036621093892,9.699996948242188,-8.459999084472656,0.0,8.0,3.0,02-19,2.040416717529297
12-22,-2.454998016357422,5.395000457763679,8.254997253417969,3.2100028991699077,6.150001525878906,0.25,1.0100021362304688,-2.3799972534179545,0.5800018310546733,17.389999389648438,-8.849998474121094,0.0,8.0,3.0,02-20,2.3795843124389644
12-23,-3.5149993896484375,5.770000457763679,9.67500305175782,4.314998626708984,5.620002746582031,-1.1000061035156108,-2.8700027465820312,-1.8600006103515625,-1.7700042724609375,16.849998474121094,-6.099998474121094,0.0,5.0,6.0,02-21,2.084582646687828
12-24,-3.1200027465820312,7.04999923706054,7.66999816894532,2.3100013732910156,5.3000030517578125,1.259994506835966,-3.9599990844726562,-3.5100021362304688,-1.4500045776367188,15.919998168945312,-6.529998779296875,0.0,6.0,5.0,02-22,1.744998931884768
12-26,-3.9099998474121094,9.099998474121087,8.32500076293946,2.9199981689453196,6.004997253417969,-2.7399978637695312,1.720001220703125,-5.010002136230469,-3.600006103515611,9.790000915527344,-7.660003662109375,0.0,6.0,5.0,02-24,1.2449989318847674
12-27,-5.009998321533203,12.134998321533196,8.32500076293946,1.2050018310546946,4.4199981689453125,-2.4000015258789062,-2.470001220703139,-5.010002136230469,-2.5500030517577983,6.55999755859375,-8.930000305175781,0.0,5.0,6.0,02-25,0.5229158401489263
12-28,-3.625,12.204998016357422,9.610000610351555,3.3649978637695312,6.524993896484389,-2.720001220703125,-0.9700012207031392,-4.120002746582031,-1.3600006103515767,8.010002136230469,-12.479995727539048,0.0,5.0,6.0,02-26,1.2033325831095372
12-29,-3.2949981689453125,11.599998474121087,9.2249984741211,0.48999786376953125,8.324996948242188,-1.3000030517578125,-1.569999694824233,-3.7099990844726562,0.9199981689453125,7.540000915527344,-15.400001525878906,0.0,6.0,5.0,02-27,1.06874910990397
12-30,-3.0649986267089915,9.209999084472656,9.520000457763672,1.3549995422363281,9.544998168945312,0.3300018310546733,-1.0900039672851705,-4.7999954223632955,0.18999481201171875,6.700004577636719,-19.189998626708984,0.0,7.0,4.0,02-28,0.7254168192545531
12-31,-2.0400009155273366,10.169998168945312,7.085002899169929,3.0649986267089844,9.300003051757812,0.9599990844726562,-2.2900009155273438,-5.629997253417969,-2.3600006103515625,7.8300018310546875,-20.560001373291016,0.0,6.0,5.0,03-01,0.4608335494995129
