,2009,2010,2011,2012,2013,2014,2015,2016,2017,2018,2019,2020,ups,downs,end_day_sum,avg
01-02,-4.668525695800778,0.9498462677001989,1.512451171875,2.8939056396484304,-1.4560966491699219,2.4118118286132812,3.018318176269517,-0.9723052978515625,7.890998840332031,-4.861213684082031,10.58889007568358,-27.055587768554688,7.0,5.0,03-02,-0.8122922579447452
01-03,-4.966428756713869,1.0402030944824219,1.626617431640625,2.8939056396484304,-1.1033134460449219,4.0570068359375,6.761016845703125,1.8431243896484375,7.890998840332031,-5.04150390625,13.984901428222656,-24.33325958251953,8.0,4.0,03-03,0.38777240117390893
01-04,-5.0612344741821325,1.1798381805419922,2.1560440063476562,2.8162689208984304,-1.79534912109375,4.56195068359375,5.322784423828125,1.6123580932617188,6.004264831542969,-5.625205993652358,12.878479003906236,-22.896667480468736,8.0,4.0,03-04,0.09612758954365841
01-05,-4.6188182830810565,1.1635494232177734,1.9585800170898438,3.756244659423828,-0.916309356689446,5.968330383300781,5.6868896484375,1.2905349731445312,6.692085266113281,-7.820198059082017,11.203056335449219,-23.80349731445311,8.0,4.0,03-05,0.04670397440592744
01-06,-5.2994327545166,0.7768306732177734,2.816070556640625,3.5918731689453125,-0.6372833251953196,5.6762542724609375,5.936492919921875,2.9824676513671875,6.420036315917969,-5.239593505859375,10.61181640625,-20.284591674804673,8.0,4.0,03-06,0.6125783920288091
01-07,-4.5643749237060565,0.650527954101559,2.8592262268066335,3.395343780517578,-0.9783248901367188,5.335868835449219,5.487205505371094,4.999702453613281,4.903717041015625,-3.039245605468736,10.41796875,-19.293304443359375,8.0,4.0,03-07,0.8478592236836752
01-08,-5.936575889587404,0.8554382324218821,2.3060302734375,2.8700485229492188,-1.847076416015625,4.802955627441406,2.8323211669922017,7.720085144042969,4.5098876953125,-3.0868759155273438,9.617012023925781,-19.617202758789062,8.0,4.0,03-08,0.41883730888366877
01-09,-5.2230072021484375,0.9907054901123047,2.8598976135253906,2.9308319091796875,-2.3629913330078125,4.776969909667969,2.5691680908202983,8.569221496582031,10.18307495117186,-2.6124496459960938,9.20205688476561,-25.09656524658203,8.0,4.0,03-09,0.5655760765075648
01-10,-4.9074888229370135,0.7360706329345703,2.5301055908203125,2.149993896484375,-2.517284393310554,4.5439910888671875,3.0415496826172017,6.852272033691406,10.14572143554686,-1.0848159790039062,7.4041290283203125,-25.71994018554689,8.0,4.0,03-10,0.26452533404032214
01-11,-3.647395133972168,1.0523109436035156,2.761199951171868,1.9515647888183594,-1.834583282470696,5.9102783203125,0.9388122558594034,7.56304931640625,9.921546936035142,-1.6337432861328267,7.962944030761719,-30.811187744140625,8.0,4.0,03-11,0.011233091354370117
01-12,-3.5604896545410156,1.3983383178710938,2.3494224548339844,2.3851661682128906,-1.1678543090820455,4.656669616699219,-0.19448852539059658,6.946937561035156,6.040290832519531,-0.05986022949217329,9.485069274902358,-26.306602478027344,7.0,5.0,03-12,0.16438325246175486
01-13,-3.218240737915039,1.1378059387206996,1.8704299926757812,2.5184249877929688,-0.565502166748054,4.5218658447265625,-0.5303344726562358,8.850379943847656,5.766288757324233,0.2583770751953267,9.33969116210939,-31.244895935058608,8.0,4.0,03-13,-0.10797580083210996
01-14,-2.662076950073242,0.43206787109375,2.0622634887695384,2.4330291748046875,0.48859405517577414,3.1201171875,-0.521240234375,8.953781127929688,6.646507263183594,-0.11310577392575283,9.514144897460966,-31.94174194335939,8.0,4.0,03-14,-0.13230498631794893
01-15,-2.540577888488766,1.0906047821044886,2.185009002685547,2.9626846313476562,0.8810577392578196,3.2051925659179688,1.8854293823242472,12.42788696289061,5.755653381347656,-1.094215393066392,10.440574645996108,-32.73674774169926,9.0,3.0,03-15,0.37187933921814026
01-16,-3.0776748657226562,0.3386955261230433,1.7453041076660156,2.6891746520996094,1.3264389038085938,3.5287322998046875,-0.8263397216796733,12.454505920410156,7.921791076660156,-1.094215393066392,8.95444488525392,-36.437225341796875,8.0,4.0,03-16,-0.20636399586995088
01-17,-2.3896465301513707,0.4003009796142578,1.204101562499993,2.6891746520996094,0.38409042358397727,2.569854736328125,1.168861389160142,12.47296142578125,7.921791076660156,0.9362945556640625,2.7038192749023438,-33.26862335205078,10.0,2.0,03-17,-0.26725165049235294
01-18,-1.9827823638916033,0.9177742004394531,1.204101562499993,1.88677978515625,-0.3585205078125,2.9570465087890625,-0.11461639404296875,14.180686950683594,7.249298095703125,-3.497596740722642,4.905548095703125,-42.31830596923827,7.0,5.0,03-18,-1.2475488980611147
01-19,-1.5798616409301776,0.9177742004394531,1.3721733093261648,2.7926063537597656,-0.4647331237792969,3.855682373046875,0.9685821533203125,14.180686950683594,6.098892211914048,-2.906921386718736,6.8394393920898295,-42.12116241455077,8.0,4.0,03-19,-0.8372368017832444
01-20,-1.5798616409301776,1.3655681610107422,2.666431427001953,2.2704734802246094,-0.5666122436523438,2.5975799560546875,0.9685821533203125,12.415206909179688,5.513656616210923,-2.9606704711914062,6.790985107421861,-51.68233489990233,8.0,4.0,03-20,-1.8500829537709567
01-21,-1.9143390655517578,2.5297145843505895,2.4613418579101634,2.902690887451172,-0.5045967102050781,2.5975799560546875,1.0275955200195312,16.46186065673828,5.36822509765625,-2.360588073730483,6.713455200195298,-51.68233489990233,8.0,4.0,03-21,-1.3666162490844727
01-22,-1.4158515930175781,2.2739372253418004,2.4389991760253906,2.6725921630859375,-0.5045967102050781,3.8694610595703125,-2.0585174560547017,14.860084533691406,4.3461074829101705,-2.2653274536132812,6.713455200195298,-51.94734954833986,7.0,5.0,03-22,-1.7514171600341817
01-23,-1.5387868881225586,2.0275955200195312,2.2403030395507812,2.7637672424316406,-0.7868309020996094,3.801666259765625,0.8634796142578125,16.735916137695312,4.130439758300781,-2.7112884521484375,8.932998657226562,-48.45758056640625,8.0,4.0,03-23,-0.9998600482940674
01-24,-0.49419593811035156,2.2616958618164027,2.32061767578125,2.6904373168945312,-2.6857643127441406,6.3415679931640625,-0.3380737304687358,17.612831115722656,2.6733474731445312,-4.3148345947265625,10.532966613769545,-44.90113830566406,7.0,5.0,03-24,-0.6917119026184059
01-25,-0.6561508178710938,2.0070629119873082,2.2071685791015554,2.293548583984375,-3.3718338012695312,4.771293640136719,-0.7659072875976562,17.612831115722656,3.345855712890611,-8.034530639648452,3.53070068359375,-49.22057342529297,7.0,5.0,03-25,-2.190044562021894
01-26,-0.5415964126586914,2.45892524719239,1.6987495422363281,2.0358009338378906,-2.436553955078125,4.618522644042969,-2.1449737548828267,16.2611083984375,2.9735870361328125,-10.973190307617188,3.6963348388671733,-39.80726623535156,7.0,5.0,03-26,-1.8467126687367774
01-27,-0.6504974365234375,2.646184921264652,2.2334365844726562,2.2361373901367188,-2.3701210021972656,3.5131988525390625,-1.300834655761733,16.058807373046875,2.036529541015625,-6.836715698242202,4.956367492675781,-36.19965362548828,7.0,5.0,03-27,-1.139763355255129
01-28,-1.3427886962890625,2.5458202362060547,2.8446922302246023,2.823326110839851,-2.3701210021972656,3.8535614013671875,0.6143951416015483,16.065528869628906,2.0552978515625,-6.855751037597656,6.6234893798828125,-37.249839782714844,8.0,4.0,03-28,-0.8660324414571138
01-29,-0.024859428405759942,3.2469100952148438,2.3781394958496094,2.966575622558601,-2.8375473022460938,3.5087127685546875,-1.7153091430664062,13.103935241699205,3.133674621582017,-6.855751037597656,5.870765686035156,-36.65113830566406,7.0,5.0,03-29,-1.1563243071238218
01-30,-0.07927036285400568,2.777633666992184,2.8897361755371094,2.5498085021972656,-2.4715614318847656,2.4549407958984375,0.32460784912109375,13.087150573730469,3.8838272094726562,-5.698150634765625,5.320709228515639,-32.3548583984375,8.0,4.0,03-30,-0.6096189022064203
01-31,-0.01661300659179865,2.8967437744140554,5.147510528564453,2.5023574829101562,-1.7054519653320312,4.064613342285156,0.6351623535156392,14.167152404785156,5.770545959472656,-6.058723449707017,6.5339202880859375,-33.837280273437514,8.0,4.0,03-31,0.008328119913737572
02-01,-0.004763603210447442,2.8967437744140554,4.4206085205078125,1.9501686096191406,-2.6613311767578054,7.714012145996094,1.1130523681640767,15.394859313964844,5.256843566894531,-6.8534164428710795,7.3301239013671875,-34.402671813964844,8.0,4.0,04-01,0.17951909701029697
02-02,1.0104284286499023,2.7257690429687464,4.7819671630859375,2.802520751953118,-1.849517822265625,9.142852783203125,1.1130523681640767,17.73968505859375,4.7318267822265625,-3.3936080932617188,8.16573333740233,-36.68946075439453,9.0,3.0,04-02,0.8567707538604724
02-03,1.2010040283203107,3.022939682006829,4.288471221923828,2.2376937866210938,-2.0576858520507812,9.421401977539062,-0.32561492919920454,15.836250305175781,4.254920959472642,-3.130760192871108,8.18511962890625,-40.34635925292969,8.0,4.0,04-03,0.2156151135762515
02-04,1.4071273803710938,3.3584766387939418,4.13691711425782,3.2005386352539134,-2.4872970581054688,9.255691528320312,-0.5752410888671875,14.915237426757812,5.207633972167969,-1.3019104003906392,8.514671325683594,-41.514312744140625,8.0,4.0,04-04,0.3431277275085449
02-05,1.9634437561035174,3.5619106292724645,4.6237945556640625,2.3322677612304688,-2.2359580993652344,9.264640808105469,-2.3920059204101705,19.012939453124986,4.9169158935546875,-0.7208709716797017,7.790924072265625,-43.801177978515625,8.0,4.0,04-05,0.3597353299458792
02-06,2.387091636657715,4.00307655334473,4.5645751953125,2.3322677612304688,-2.2183189392089844,8.552734375,-3.014915466308608,21.1246337890625,5.132606506347642,-2.5995559692382812,8.669090270996094,-42.482444763183594,8.0,4.0,04-06,0.5375700791676815
02-07,2.2180986404418963,4.282350540161136,4.5899658203125,2.164020538330078,-1.5369300842285227,7.106758117675781,-0.890106201171875,20.423057556152358,5.048522949218736,-2.7608642578125,10.282432556152358,-41.06056976318361,8.0,4.0,04-07,0.8222280343373617
02-08,1.6374292373657244,4.220758438110355,4.321052551269531,2.0173377990722656,-2.8993263244628906,4.376960754394531,-0.5805892944335938,21.023094177246094,4.9644699096679545,1.7114105224609375,10.234001159667969,-33.26116943359375,9.0,3.0,04-08,1.4804524580637608
02-09,1.6374292373657244,3.618272781372074,4.4218902587890625,1.0720977783203125,-3.2305831909179688,4.120857238769531,-0.0207672119140625,19.790924072265625,5.189643859863281,-2.4244613647460938,9.826339721679688,-28.86499786376953,8.0,4.0,04-09,1.2613871097564704
02-10,2.3647108078002947,3.378097534179684,3.845355987548828,2.6186561584472656,-2.699085235595703,5.554191589355469,-0.66522216796875,19.469070434570312,5.538108825683594,-3.7425384521484375,9.710029602050781,-28.86499786376953,8.0,4.0,04-10,1.3755314350128174
02-11,2.376376152038574,3.3798141479492223,3.1753463745117188,1.6251869201660085,-1.8088607788085938,5.003349304199219,-0.6561737060546875,20.01557159423828,5.042083740234375,-3.0281448364257955,10.310966491699219,-29.905372619628906,8.0,4.0,04-11,1.2941785653432198
02-12,2.5751562118530273,3.63491249084473,2.96002197265625,0.6874694824218679,-0.5300445556640625,4.7346343994140625,-1.8333129882812358,18.833702087402344,5.295257568359375,-4.0568695068359375,7.522064208984361,-30.307769775390625,8.0,4.0,04-12,0.7929351329803467
02-13,3.6808204650878906,3.2896461486816406,2.4611053466796875,1.7510795593261648,-1.7030410766601634,1.5016937255859375,-3.0027389526367188,17.00326538085936,5.295257568359375,-4.6072006225585795,7.2518692016601705,-26.215316772460923,8.0,4.0,04-13,0.5588699976603202
02-14,4.455763816833494,3.4703598022460938,1.8311195373535156,1.9926567077636648,-0.3480110168457031,-0.2077789306640625,-2.5442047119140625,18.16636657714845,4.585426330566406,-6.277168273925781,7.491508483886719,-22.145729064941406,7.0,5.0,04-14,0.8725257714589443
02-15,4.060746192932127,3.544279098510742,1.8899421691894531,1.996997833251946,-1.1223106384277344,1.159271240234375,-3.2860794067382812,19.357162475585923,4.275993347167983,-5.8580474853515625,6.753013610839844,-24.780967712402344,8.0,4.0,04-15,0.6658333937327061
02-16,4.183199882507322,3.544279098510742,1.5094261169433594,2.357318878173828,-1.629871368408196,1.1457748413085938,-3.6001205444335795,19.357162475585923,3.0850982666015625,-5.8675689697265625,7.962989807128892,-25.65823364257814,8.0,4.0,04-16,0.532454570134479
02-17,4.183199882507322,3.162334442138672,1.2853355407714844,1.5628662109375,-0.2524452209472656,1.1457748413085938,-3.6001205444335795,17.75099945068358,1.9223175048828267,-3.4576950073242188,9.833633422851548,-29.906539916992188,8.0,4.0,04-17,0.30247171719868976
02-18,4.088391304016113,3.1294879913330043,1.0612602233886719,2.1402626037597656,-1.2046890258789062,1.1457748413085938,-4.082580566406236,18.29558563232422,2.2411346435547017,-2.209869384765625,9.833633422851548,-29.906539916992188,8.0,4.0,04-18,0.37765431404113886
02-19,5.008777618408205,2.743436813354492,1.83074951171875,2.7654190063476634,-1.2046890258789062,0.6604843139648438,-3.9824676513672017,18.20331573486328,1.6316299438476705,-2.1050872802734375,9.833633422851548,-30.09300994873047,8.0,4.0,04-19,0.44101603825886987
02-20,4.985077857971193,3.3389244079589844,2.570659637451172,2.8218421936035156,0.3941802978515625,1.2940444946289062,-4.56500244140625,17.566368103027344,1.8754348754882812,-2.1050872802734375,8.85897064208983,-30.024017333984375,9.0,3.0,04-20,0.5842829545338937
02-21,4.783614158630371,3.4251861572265625,2.570659637451172,2.8218421936035156,4.681465148925781,4.308967590332031,-4.009757995605483,18.304840087890625,1.8754348754882812,-2.3146438598632812,7.036781311035156,-25.23358917236328,9.0,3.0,04-21,1.520900011062621
02-22,4.961377143859863,3.4580287933349574,2.570659637451172,2.8956527709960938,4.105678558349609,3.6035385131835938,-4.296501159667969,17.86176300048828,2.0536041259765625,-5.924736022949219,8.161109924316406,-23.82404327392578,9.0,3.0,04-22,1.3021776676177979
02-23,5.135178565979,3.7126598358154226,2.7863006591796875,3.8203392028808523,5.868396759033203,3.5226516723632812,-4.5923309326171875,19.5694580078125,3.5352096557617188,-8.18221282958983,4.768730163574219,-26.86981201171875,9.0,3.0,04-23,1.0895473957061768
02-24,4.582156181335447,3.4457111358642543,3.6319198608398366,4.176322937011719,6.422035217285156,3.4957046508789062,-4.719795227050781,18.82177734375,2.4661941528320312,-8.239372253417955,5.137054443359375,-24.83929443359375,9.0,3.0,04-24,1.1983678340911865
02-25,4.779664993286129,3.7742729187011683,3.048442840576172,3.503440856933601,6.5017623901367045,2.4847412109375,-4.219123840332031,12.230941772460938,5.213706970214844,-11.201728820800781,4.187179565429673,-19.28002166748047,9.0,3.0,04-25,0.918606599171954
02-26,4.744120597839354,3.9960556030273438,2.1351776123046875,3.9332351684570312,5.4476547241210795,1.4243240356445312,-4.533157348632827,13.874008178710923,7.848686218261719,-9.191902160644517,5.011047363281236,-18.747749328613295,9.0,3.0,04-26,1.328458388646439
02-27,5.688194274902344,3.4251976013183594,2.363483428955078,4.875286102294922,4.570716857910142,0.3684234619140625,-5.4934921264648295,14.834022521972656,7.529853820800781,-7.077301025390611,4.332565307617173,-12.882926940917969,9.0,3.0,04-27,1.8778352737426758
02-28,5.526241302490233,2.70236778259277,2.2070388793945312,4.8796234130859375,5.4255142211914205,-2.174713134765625,-7.6690521240234375,15.710952758789062,7.548622131347656,-4.343536376953111,3.450538635253892,-11.54238891601561,8.0,4.0,04-28,1.8101007143656431
02-29,0.0,0.0,0.0,5.6089630126953125,0.0,0.0,0.0,15.194023132324219,0.0,0.0,0.0,-9.176742553710938,2.0,1.0,04-29,0.9688536326090494
03-01,5.214183807373045,3.0966281890869105,2.4776458740234375,5.452686309814453,4.482139587402344,-2.5116729736328125,-7.710014343261719,12.378593444824219,6.7421722412109375,-3.2481307983398295,4.894729614257798,-13.6221923828125,8.0,4.0,04-30,1.4705640474955235
03-02,5.561800003051756,3.0062713623046875,2.3634796142578125,5.713169097900391,5.062347412109368,-1.8242340087890625,-7.068290710449219,12.609359741210938,8.35504150390625,-2.171783447265625,5.573211669921889,-9.295028686523438,8.0,4.0,05-01,2.323778629302979
03-03,5.6566057205200195,2.866636276245117,1.8603553771972727,5.912872314453125,5.115478515625007,-1.545654296875,-5.630058288574219,11.510887145996094,7.295417785644531,-6.5533905029296875,5.951210021972642,-8.388198852539062,8.0,4.0,05-02,2.00434676806132
03-04,5.2141895294189435,3.421070098876953,2.5791015625,6.694297790527344,4.256240844726555,-2.9520339965820312,-5.994163513183594,7.292388916015611,7.745552062988281,-5.5627593994140625,3.9836349487304688,-11.9071044921875,8.0,4.0,05-03,1.2308678627014142
03-05,6.150366783142092,2.9077129364013636,2.7947349548339773,6.759410858154297,3.977214813232429,-2.6599578857421875,-6.3218536376953125,7.2646942138671875,7.754936218261719,-6.71533203125,4.5748748779296875,-11.650825500488281,8.0,4.0,05-04,1.2363313833872478
03-06,5.767208099365234,3.174661636352539,1.9364471435546875,7.284706115722656,4.318256378173828,-3.3698883056640625,-3.3771209716797017,5.6585311889648295,7.501739501953125,-8.91567993164064,4.7687225341796875,-13.257484436035142,8.0,4.0,05-05,0.9575082461039202
03-07,6.715245246887212,2.0206012725830114,1.2134513854980469,7.2239227294921875,5.762107849121101,-2.1971817016601562,-3.3043136596679545,4.818519592285156,7.89556884765625,-8.868049621582031,6.7072296142578125,-10.428565979003906,8.0,4.0,05-06,1.463211297988894
03-08,6.426877021789553,1.60992431640625,0.6595840454101562,6.190708160400391,6.616924285888665,-1.98150634765625,-4.874519348144517,6.535469055175781,2.222381591796889,-9.944404602050781,7.754020690917969,-9.009178161621094,8.0,4.0,05-07,1.017190059026084
03-09,6.490078926086424,1.8645591735839844,0.9893760681152344,5.6002960205078125,6.191730499267585,-2.1702041625976562,-4.660598754882798,5.8246917724609375,6.5265045166015625,-10.715942382812514,4.8365859985351705,-8.486763000488281,8.0,4.0,05-08,1.0241928895314552
03-10,5.2299852371215785,1.548318862915039,1.602447509765625,5.995353698730469,6.838352203369162,-0.700927734375,-2.557861328125,5.233894348144517,7.9424667358398295,-9.763412475585938,3.0628280639648438,-12.991348266601562,8.0,4.0,05-09,0.9533414045969636
03-11,5.143079757690426,0.8141574859619105,1.4648475646972656,6.082664489746087,7.963359832763665,0.5526809692382812,-1.424560546875,3.4158706665039205,5.761062622070327,-9.315719604492188,2.6363677978515625,-8.053054809570298,9.0,3.0,05-10,1.2533963521321632
03-12,3.910830497741699,0.05941200256347656,1.699798583984375,5.833824157714851,7.361007690429673,0.6874847412109375,-1.8470840454101705,2.8590316772460938,5.215202331542969,-8.531356811523438,2.7817459106445312,0.4534149169921875,10.0,2.0,05-11,1.706942637761432
03-13,4.835783004760742,1.2901000976562536,1.9125213623046875,5.304168701171882,6.306911468505845,0.9139175415039062,0.8580169677734375,4.054229736328139,5.215202331542969,-8.159873962402358,2.6072921752929545,-1.66375732421875,10.0,2.0,05-12,1.9562093416849757
03-14,4.387926101684572,1.0168590545654332,1.1509056091308594,5.577678680419929,5.450008392333984,1.2154693603515625,-0.9150314331054545,2.8404998779296875,6.106056213378906,-7.178764343261719,3.5641403198242188,8.391380310058594,10.0,2.0,05-13,2.633927345275881
03-15,4.447862625122072,1.517803192138679,1.5906105041503906,5.503376007080078,5.955253601074233,1.8532180786132812,-2.2118453979492045,2.8220443725585938,3.9399185180664062,-7.3540115356445455,2.6019668579101562,5.625701904296875,10.0,2.0,05-14,2.1909915606180843
03-16,3.7285442352294975,1.4561977386474645,2.1318130493164134,5.289363861083977,5.634738922119141,1.0958175659179688,-1.7963256835937358,1.11431884765625,3.9667205810546875,-13.406433105468764,0.7466506958007812,2.2652587890625,10.0,2.0,05-15,1.0188887914021816
03-17,3.32168006896973,0.9387245178222692,1.319244384765625,4.008022308349609,7.235553741455078,0.5683212280273438,-0.512847900390625,-1.3962249755859375,2.8309402465820312,-9.347946166992188,1.0483856201171875,2.068115234375,9.0,3.0,05-16,1.0068306922912604
03-18,2.9187593460083043,1.0590782165527308,0.6647987365722656,3.5976600646972656,7.084369659423828,-0.33031463623046875,-1.5960464477539062,-1.6666030883789205,2.6275558471679545,-9.290542602539077,1.418266296386733,11.629287719726562,8.0,4.0,05-17,1.509689092636106
03-19,3.083118438720703,0.28138732910155895,0.26357269287109375,3.409954071044922,7.186248779296875,0.9277877807617188,1.5357971191406392,-0.30469512939453125,2.0911102294922017,-8.840950012207031,1.4667205810547017,9.756309509277344,10.0,2.0,05-18,1.7380301157633495
03-20,3.153249740600586,0.48192787170410156,-0.24702835083007812,3.6400527954101562,7.124233245849609,0.2464141845703125,1.5446090698242188,-1.3701705932617188,0.274749755859375,-9.441032409667955,1.5442504882812642,7.583244323730469,9.0,3.0,05-19,1.2112083435058618
03-21,2.999967575073242,0.27906799316406605,0.45928955078125,3.548877716064453,8.362724304199219,0.40476226806640625,2.3900299072265483,-1.9446029663085938,1.2968673706054545,-9.536293029785156,0.7341003417968608,19.58692169189453,10.0,2.0,05-20,2.3818093935648568
03-22,3.231752395629883,-0.24672317504882812,0.6579856872558594,2.795185089111321,10.410301208496094,1.5695037841796875,1.9608001708984375,-2.8215179443359375,1.5125350952148438,-6.151153564453111,5.3817901611328125,20.94498443603517,9.0,3.0,05-21,3.270453612009686
03-23,3.567438125610355,-0.4808235168456996,0.5776710510253906,1.9324951171875,10.54001235961914,1.4117279052734375,1.476783752441392,-2.1753692626953125,1.0808868408203267,-3.891487121582017,1.100578308105483,23.69083404541017,9.0,3.0,05-22,3.2358956336975138
03-24,3.7293930053710973,-0.22619056701660512,0.34470367431640625,2.032775878906243,11.37600326538086,2.0789718627929688,1.9046173095703125,-2.694854736328111,3.1202926635742188,-6.1486434936523295,2.326988220214858,14.277526855468764,9.0,3.0,05-23,2.67679866154989
03-25,3.614838600158695,-1.0814971923828125,-0.3510589599609375,1.910552978515618,10.757915496826172,2.2317428588867188,3.283683776855483,-2.5821380615234375,2.8003997802734375,-8.243530273437472,1.8208541870117188,10.669914245605483,8.0,4.0,05-24,2.0693064530690557
03-26,2.8919668197631854,-1.1804180145263636,-0.9171333312988281,2.5828208923339773,10.691482543945312,3.337066650390625,3.8116302490234375,-2.378326416015625,3.0639114379882812,-8.367866516113281,0.5608215332031108,6.677886962890639,8.0,4.0,05-25,1.7311535676320393
03-27,3.058983802795412,-1.5333518981933594,-1.2277374267578125,2.4395713806152273,10.966083526611328,3.7324905395507812,3.193084716796889,-1.1460647583007812,3.289794921875,-8.348831176757827,-1.1063003540039205,10.477592468261719,7.0,5.0,05-26,1.9829429785410546
03-28,3.2711172103881854,-1.2476825714111328,-0.6320381164550852,2.8563385009765625,10.735763549804688,2.78765869140625,2.4784927368164062,-0.6272277832031392,2.211418151855483,-6.500915527343764,-2.6958694458007955,10.651268005371094,7.0,5.0,05-27,1.9406936168670625
03-29,3.4269609451293963,-1.3967227935791016,-1.1436347961425852,2.4612693786621094,10.331504821777344,2.7285614013671875,1.3506317138671875,-1.7072296142578267,1.4612655639648438,-8.05353546142581,-5.426277160644531,14.437965393066406,7.0,5.0,05-28,1.539229949315385
03-30,2.943423271179201,-1.515832901000973,-3.401409149169929,3.8977317810058665,10.318168640136705,2.3949432373046875,2.4556732177734375,-2.934936523437514,1.9676132202148438,-5.072990417480469,-5.829559326171861,16.767471313476562,7.0,5.0,05-29,1.83252469698588
03-31,2.93157386779785,-1.2488822937011683,-3.096996307373054,2.636318206787095,10.540512084960938,3.355224609374986,1.977783203125,-2.5564651489257955,2.0800247192382812,-4.212074279785156,-6.063156127929673,19.05426025390625,7.0,5.0,05-30,2.116510232289629
04-01,1.9163818359375,-1.7006397247314489,-3.148365020751953,3.474464416503899,10.438240051269531,1.9263839721679545,2.4693069458007955,-4.626296997070298,2.390586853027358,-6.4695587158203125,-6.384353637695298,22.711158752441406,7.0,5.0,05-31,1.9164423942565945
04-02,1.009145736694336,-0.5358867645263707,-3.438213348388672,2.2346839904785085,10.646408081054688,1.647834777832017,3.1803207397460795,-2.9432296752929688,1.6753463745117188,-6.096504211425781,-6.403739929199219,22.17064666748047,7.0,5.0,06-01,1.9289010365804005
04-03,0.16951942443847656,-0.958175659179691,-3.0552825927734375,3.102954864501953,11.076019287109375,1.9365310668945312,2.4644088745117188,-3.7955856323242188,1.5624160766601562,-7.92535400390625,-6.7332916259765625,21.50482177734375,7.0,5.0,06-02,1.6124151547749834
04-04,0.9114837646484375,-1.5916099548339844,-3.8807411193847656,3.8670120239257812,10.202079772949219,2.0363082885742045,2.5283279418945455,-3.5176544189452983,1.8531341552734375,-8.506393432617188,-7.081962585449219,17.078750610351562,7.0,5.0,06-03,1.1582279205322277
04-05,0.7476406097412109,-0.6849288940429688,-3.821521759033203,3.3532485961914062,9.962574005126953,4.468193054199219,2.1721572875976562,-2.8160781860351562,1.637443542480483,-9.832466125488281,-9.564186096191406,21.19256591796875,7.0,5.0,06-04,1.4012201627095553
04-06,0.336029052734375,-0.964202880859375,-3.846912384033203,2.2831878662109375,10.766921997070298,4.193199157714844,2.966667175292983,-3.416114807128892,4.019401550292983,-6.6180496215820455,-5.974815368652358,25.316299438476562,7.0,5.0,06-05,2.4218009312947593
04-07,0.9166984558105469,-0.9026107788085938,-3.954200744628899,1.7636985778808594,10.064369201660156,5.157997131347656,2.6571502685547017,-1.8553466796875,4.473793029785156,-6.4258575439453125,-2.1495513916015483,20.920127868652344,7.0,5.0,06-06,2.555522282918297
04-08,0.8890476226806641,-1.418523788452152,-4.173149108886719,2.2962799072265625,8.476898193359375,5.414100646972656,2.0973281860351705,-3.4725494384765625,2.778900146484375,-6.358894348144531,-1.526611328125,18.69247436523436,7.0,5.0,06-07,1.9746084213256834
04-09,0.21936416625976562,-2.6249256134033203,-4.357200622558594,3.5273284912109375,7.945400238037109,3.9807662963867188,0.5344467163085795,-2.917144775390611,2.7977294921875,-4.990997314453111,-1.4103012084960938,14.372039794921875,7.0,5.0,06-08,1.423042138417563
04-10,0.172149658203125,-3.236959457397461,-3.6849021911621094,4.465045928955078,7.05517578125,6.235260009765625,-0.05743408203125,-3.241439819335909,2.2989273071289062,-5.705390930175753,-2.0112380981445312,20.61740112304689,6.0,6.0,06-09,1.9088829358418842
04-11,-0.12757492065429332,-2.5704135894775426,-4.208286285400391,3.4014358520507812,6.317817687988281,7.99932861328125,-0.34044647216796875,-0.295166015625,2.0457534790039062,-4.676666259765611,-1.0199737548827983,20.072196960449205,5.0,7.0,06-10,2.2165004412333182
04-12,0.3639659881591797,-2.661487579345703,-3.709369659423828,2.7434043884277415,8.54321670532228,7.7479629516601705,0.1846771240234375,-1.458267211914091,2.9834442138671875,-6.2041015625,-1.0933990478515625,18.109458923339844,7.0,5.0,06-11,2.1291254361470546
04-13,0.2560596466064453,-2.8422012329101562,-3.0793838500976562,3.7054901123046804,10.38450241088865,8.059043884277344,1.3855819702148438,-2.6490631103515625,3.649475097656264,-5.1520538330078125,-1.547332763671875,15.75021362304689,7.0,5.0,06-12,2.3266943295796714
04-14,0.6510772705078125,-2.9161205291748047,-2.8277435302734375,2.442363739013672,9.330646514892571,7.9688720703125,2.1274566650390625,-3.3892669677734375,4.631546020507827,-7.0484542846679545,0.84710693359375,16.627479553222685,8.0,4.0,06-13,2.370413621266687
04-15,0.5286235809326172,-2.4227390289306605,-3.384723663330078,3.398368835449226,8.90818405151365,7.982368469238281,2.441497802734361,-5.2672271728515625,4.829185485839844,-7.4310760498046875,0.9833831787109375,20.875785827636733,8.0,4.0,06-14,2.6201359430948883
04-16,-0.05113029479980469,-1.5841846466064453,-2.9668655395507812,2.420532226562507,7.53075790405272,6.5894775390625,3.6416549682617188,-7.0725250244140625,6.1749725341796875,-7.651084899902344,-0.8872604370117188,11.064437866210938,6.0,6.0,06-15,1.434065183003743
04-17,0.14490699768066406,-2.305242538452152,-2.2605361938476562,1.7953758239746094,8.48300170898436,2.160614013671875,3.3674545288085795,-7.6376953125,6.109100341796861,-8.898910522460938,0.09168243408203125,8.769515991210966,8.0,4.0,06-16,0.8182722727457667
04-18,0.5148735046386719,-1.680093765258789,-2.911540985107422,1.738952636718757,6.750068664550781,3.7837066650390625,1.7891540527344034,-8.063880920410156,6.718605041503892,-9.003692626953125,-2.3802413940429688,12.504196166992188,7.0,5.0,06-17,0.8133422533671079
04-19,0.15121650695800426,-1.2826461791992152,-3.6514511108398438,0.575115203857429,5.69342041015625,3.2201461791992188,2.309692382812514,-8.802352905273438,6.474800109863281,-4.9908828735351705,-0.19120025634765625,14.05059814453125,7.0,5.0,06-18,1.129704634348552
04-20,0.21915245056151988,-1.3689079284667933,-4.243389129638672,1.4881782531738281,5.839191436767578,2.9902191162109375,2.921569824218764,-8.359275817871094,5.020713806152344,-2.8991241455078267,-1.7680358886718608,14.159645080566406,7.0,5.0,06-19,1.1666614214579276
04-21,0.0413894653320277,-1.4017505645751882,-4.226093292236328,1.8891220092773366,6.043766021728501,3.4771270751952983,3.20831298828125,-2.6811370849609375,5.27337646484375,-3.2721405029297017,-2.011383056640625,17.205413818359375,7.0,5.0,06-20,1.9621669451395631
04-22,-0.13241195678710938,-1.4605216979980398,-3.4421958923339844,2.500293731689446,4.976543426513672,3.558013916015611,3.5041427612304688,-4.255439758300753,3.2852401733398295,-4.104354858398452,-1.0574874877929688,15.174896240234375,6.0,6.0,06-21,1.5455598831176747
04-23,-0.0034523010253870723,-1.6724224090576136,-3.152851104736328,2.4391632080078054,4.422904968261719,3.584960937499986,4.781883239746108,-3.4884567260742188,2.97467041015625,-3.138206481933608,-1.425811767578125,14.285263061523438,6.0,6.0,06-22,1.6339704195658353
04-24,-0.8453712463378906,-1.3844413757324254,-2.174213409423828,2.009368896484375,4.3431777954101705,4.222480773925781,5.485847473144531,-3.8219985961914062,2.8805465698242188,-0.17584991455078125,-0.4759368896484233,11.403137207031236,6.0,6.0,06-23,1.7888956069946298
04-25,-0.7440700531005859,-1.9102287292480504,-2.1699752807617188,1.0673179626464844,1.6696853637695028,5.5185394287109375,7.399993896484375,-4.053619384765625,0.24556732177734375,-2.1856765747070455,0.1424713134765625,8.14023590087892,7.0,5.0,06-24,1.0933534304300918
04-26,-0.8040142059326136,-2.0923995971679688,-2.3982810974121094,-0.9688148498535156,2.0219192504882812,6.1067962646484375,7.5095672607421875,-4.930549621582031,0.5643997192382812,-2.817749023437486,-1.2109069824218608,8.160064697265625,5.0,7.0,06-25,0.7616693178812689
04-27,-0.22055816650390625,-1.3695697784423793,-2.2418365478515625,-0.3871421813964844,0.10906219482421875,5.502693176269531,7.21734619140625,-4.4136199951171875,-0.29864501953125,-2.0035781860351562,0.2754669189452983,6.3658447265625,5.0,7.0,06-26,0.711288611094156
04-28,0.09149932861328125,-1.7638301849365199,-2.78076171875,-1.4533195495605469,0.6204376220703125,6.1519012451171875,7.258308410644531,-1.0511627197265625,1.1645431518554688,-0.309326171875,-0.3377532958984375,10.811294555664062,6.0,6.0,06-27,1.5334858894348147
04-29,-0.2561168670654297,-3.129817962646481,-2.9410133361816406,-0.7941551208496094,1.1407012939453125,5.4644622802734375,6.616584777832031,-6.72021484375,1.6526336669922017,0.37939453125,-1.0580368041992472,6.484130859375,6.0,6.0,06-28,0.5698793729146313
04-30,0.11921310424804688,-2.838764190673828,-2.7978057861328054,-0.5147514343261719,1.0875701904296733,5.185882568359375,6.6841506958007955,-11.24790191650392,1.3420639038085938,-0.309326171875,-1.43603515625,12.344078063964844,6.0,6.0,06-29,0.6348644892374669
05-01,0.023159027099605822,-3.2373313903808594,-2.1595497131347585,-1.2961769104003906,1.946807861328125,4.7741241455078125,5.569862365722685,-9.515342712402358,1.887901306152358,-1.299957275390625,0.5315399169921733,14.50907135009767,7.0,5.0,06-30,0.9778423309326199
05-02,-0.8405895233154368,-4.019805908203125,-1.870208740234368,-1.3612899780273438,0.5074386596679688,4.2956085205078125,2.584320068359361,-7.727203369140639,1.8785171508789205,-0.1473846435546875,-0.36837005615234375,17.44662475585936,5.0,7.0,07-01,0.8648047447204567
05-03,-0.8246021270751989,-4.2640686035156286,-1.0119209289550781,-1.3569183349609304,-2.3406143188476562,6.726699829101548,2.346870422363267,-6.121040344238281,2.131713867187514,1.1505050659179688,-0.4134674072265625,19.548141479492188,5.0,7.0,07-02,1.2976082166035958
05-04,-0.8246021270751989,-3.110008239746101,-0.2889251708984375,0.45104217529296875,-1.2076263427734233,6.1450958251953125,2.346870422363267,-5.281028747558608,0.1483001708984375,-2.1247100830078125,2.754135131835909,19.548141479492188,6.0,6.0,07-03,1.5463903745015417
05-05,-0.5362339019775391,-2.6993312835693395,-0.22551727294921875,-0.08293914794921875,-1.2076263427734233,6.1450958251953125,3.9170761108398295,-5.271781921386719,-0.4799652099609375,-1.9437332153320312,2.754135131835909,18.128753662109375,4.0,8.0,07-04,1.5414943695068333
05-06,-0.5994358062744105,-1.7967853546142614,0.17019271850585938,-0.7028274536132812,-0.9230422973632812,6.333793640136719,3.703155517578111,-3.854248046875,1.4398956298827983,-2.9481201171875,2.2285385131835795,17.606338500976562,6.0,6.0,07-05,1.7214546203613246
05-07,0.019983291625980115,-1.1343765258788991,0.24251174926757812,-0.6242523193359375,-1.569664001464858,4.8645172119140625,3.69403076171875,-2.7053756713867188,2.051643371582017,-3.5985870361328125,4.002296447753906,16.35614776611328,7.0,5.0,07-06,1.7999062538146957
05-08,-1.0270347595214844,-2.6993122100830114,0.08934783935546164,-0.7115631103515554,-2.694671630859361,5.4235687255859375,1.2648162841796733,-4.437934875488281,2.1175079345702983,-4.0462799072265625,4.4287567138671875,16.941001892089858,6.0,6.0,07-07,1.2206835746765134
05-09,-0.20780372619628906,-2.703456878662106,0.5233421325683665,-0.4627227783203196,-1.92547607421875,6.1043624877929545,1.3104858398437358,-4.1414642333984375,2.6633682250976562,-4.8306427001953125,6.0347900390625,19.29034423828125,6.0,6.0,07-08,1.8045938809712707
05-10,-0.7672767639160156,-1.6642932891845739,0.310619354248054,-0.10475921630859375,-0.760398864746108,4.044044494628906,1.2739410400390625,-5.336662292480483,2.6633682250976562,-3.1566619873047017,5.56756591796875,17.84307098388672,6.0,6.0,07-09,1.6593798001607227
05-11,-0.6873569488525391,-1.3910522460937536,1.072235107421882,0.16587448120117898,0.00890350341796875,3.3317184448242188,-0.515998840332017,-4.122932434082031,2.4375152587890625,2.4583740234375,4.993293762207031,15.910072326660156,8.0,4.0,07-10,1.9717205365498882
05-12,-0.7472934722900391,-1.8919963836669993,1.5573387145996094,0.10914230346679688,1.4763031005859375,3.79156494140625,0.780815124511733,-4.1321945190429545,3.65155029296875,0.9087295532226562,4.565025329589844,18.675750732421875,9.0,3.0,07-11,2.3953946431477884
05-13,-0.02797508239746449,-1.0474338531494105,1.5530586242675781,-0.4278106689453125,1.2584152221679688,4.5489654541015625,0.3652954101562642,-0.3520812988281108,2.823356628417983,1.7505264282226562,4.049140930175781,22.03619384765625,8.0,4.0,07-12,3.0441376368204787
05-14,-0.11989021301269531,-0.19458580017089488,0.7020645141601562,-0.9778480529785156,-0.34239959716796875,5.0764617919921875,-1.6073226928710938,-1.4360733032226705,2.813957214355483,0.7461318969726562,3.747406005859375,18.943389892578125,6.0,6.0,07-13,2.279274304707845
05-15,-0.10390472412109375,-0.9687690734863246,0.5233535766601562,-0.5674858093261719,-0.19121551513671875,5.752685546874986,-0.8675765991210938,0.50030517578125,3.632713317871108,0.6887283325195455,3.3775253295898295,19.94458770751953,7.0,5.0,07-14,2.643412272135417
05-16,-0.2038040161132848,-0.32706260681152344,0.557403564453125,-0.3797798156738281,1.1027908325195312,5.712135314941406,0.97259521484375,1.213722229003892,4.169158935546861,0.2391357421875,2.9979248046875,17.377166748046875,9.0,3.0,07-15,2.7859489123026506
05-17,0.019977569580078125,-0.6624088287353551,1.0680046081542969,0.7901496887207031,-0.49356842041014204,5.3875350952148295,1.9588775634765625,2.2791976928710795,5.9855194091796875,-0.5452270507812642,5.129570007324219,19.696769714355483,9.0,3.0,07-16,3.3845330874125152
05-18,0.8072414398193359,-0.4595489501953196,0.36168670654296875,2.523204803466797,-0.03112030029296875,4.2919769287109375,1.3835525512695312,2.8536300659179545,6.597290039062472,-0.918296813964858,9.704307556152344,23.562774658203125,9.0,3.0,07-17,4.22305822372436
05-19,0.5754566192626953,0.06624221801757457,-0.20422744750976562,1.1306381225585938,-0.9871749877929688,4.395683288574219,1.812782287597642,2.770233154296875,5.712585449218736,-2.5444488525390625,9.840568542480483,22.204711914062486,9.0,3.0,07-18,3.7310875256856257
05-20,0.239770889282223,1.2585830688476562,0.6893119812011719,2.0037193298339844,-0.08892059326171875,4.553459167480469,2.2967987060546875,2.8350830078125,6.1549301147460795,0.363494873046875,8.633613586425781,19.458862304687486,11.0,1.0,07-19,4.033225536346433
05-21,2.0940303802490234,-0.09522628784180043,0.8722763061523438,2.0299148559570312,-0.9249114990234375,3.8862152099609375,-2.552482604980483,2.6590728759765625,6.145530700683594,1.6452865600585938,7.407203674316406,19.994155883789077,9.0,3.0,07-20,3.5967555046081543
05-22,1.9701499938964844,0.2566947937011754,1.0977745056152344,2.1521377563476562,-0.30682373046875,5.1170196533203125,-2.552490234375,1.8066864013671875,6.757263183593764,3.740173339843736,7.9133377075195455,15.563117980957031,10.0,2.0,07-21,3.6262534459431977
05-23,2.1699752807617188,1.287567138671875,1.1445846557617188,1.4798698425292969,1.3962631225585938,4.8194808959960795,-2.2922210693359375,3.3353958129882812,6.4937515258789205,3.8645095825195455,9.908706665039062,9.308135986328125,11.0,1.0,07-22,3.576334953308107
05-24,2.1619834899902344,1.3538017272949219,1.4551887512207031,3.3875656127929616,1.0360870361328267,4.792411804199219,-4.703155517578125,2.1031341552734375,6.267868041992202,3.721031188964858,9.499923706054688,10.071426391601562,11.0,1.0,07-23,3.428938865661624
05-25,2.28985595703125,1.0681324005126953,0.8594894409179759,4.657878875732429,1.067230224609375,5.405570983886719,-4.812744140625,1.5842971801757955,-0.17881011962890625,1.5304946899414062,9.188423156738281,11.578170776367188,10.0,2.0,07-24,2.853165785471601
05-26,2.28985595703125,1.217172622680664,1.2254409790039062,2.466453552246101,0.8003997802734375,5.4957275390625,-4.812744140625,0.824592590332017,-0.8187713623047017,3.2236099243164205,11.14487457275392,11.578170776367188,10.0,2.0,07-25,2.886231899261475
05-27,2.7733936309814453,0.3767490386962926,0.4850578308105469,1.5104331970214915,-0.11116790771484375,5.4957275390625,-5.91778564453125,-0.8801727294921733,-1.0258331298827983,4.7923736572265625,10.307777404785156,9.248664855957031,8.0,4.0,07-26,2.2546014785766633
05-28,3.348855972290039,1.4821453094482422,-0.06383132934570312,1.0433387756347656,-0.11116790771484375,4.535446166992202,-8.474807739257798,-1.0098953247070312,0.5928878784179545,7.882080078125,10.307777404785156,8.118598937988281,8.0,4.0,07-27,2.3042856852213554
05-29,3.232961654663086,2.3432846069335938,-0.8978004455566406,1.0433387756347656,-0.0088958740234375,4.066581726074219,-10.223686218261719,-0.8523941040039062,0.25409698486328125,7.882080078125,10.628974914550781,8.812492370605469,8.0,4.0,07-28,2.1900862058003745
05-30,2.705463409423828,2.591693878173828,-1.5743179321289062,2.2831192016601562,1.07611083984375,3.2730712890625284,-11.073020935058608,-1.4731597900390625,0.25409698486328125,7.509025573730469,10.609512329101562,6.800193786621094,9.0,3.0,07-29,1.9151490529378268
05-31,2.601564407348633,2.6082439422607386,-1.5743179321289062,2.0910263061523438,1.5563583374023295,2.8583221435546875,-6.936027526855483,-1.4731597900390625,0.36702728271484375,9.316940307617173,12.935844421386719,5.164573669433594,9.0,3.0,07-30,2.4596996307373007
06-01,2.3338088989257812,2.6082439422607386,-0.7488594055175781,5.002738952636719,2.681365966796889,1.199249267578125,-5.4291763305664205,-1.751091003417983,-2.8327713012695455,7.107261657714858,10.36618041992189,6.9786224365234375,8.0,4.0,07-31,2.2929644584655757
06-02,2.497652053833008,1.701562881469723,-0.6893005371093821,5.771068572998047,2.628013610839858,0.94677734375,-5.073005676269531,-2.5200653076171875,-4.13153076171875,6.992485046386719,10.882064819335966,2.86480712890625,8.0,4.0,08-01,1.8225440979003933
06-03,2.9092636108398438,2.012079238891605,-0.3106269836425781,5.1031646728515625,2.356781005859389,1.221771240234375,-5.867515563964858,-2.7424468994140625,-2.9268875122070312,7.872535705566392,9.35391235351564,-1.2589263916015625,7.0,5.0,08-02,1.4769253730773928
06-04,3.760477066040039,3.179571151733402,-0.08509063720703125,4.49200439453125,3.0593338012695312,0.2569732666015625,-5.356147766113281,-3.196434020996108,-3.0586471557617188,6.982933044433594,5.5286483764648295,-2.8945465087890625,7.0,5.0,08-03,1.0557562510172505
06-05,3.980255126953125,4.38847541809082,-1.0126762390136719,3.959423065185547,4.6468048095703125,-2.1595001220703125,-5.4200592041015625,-4.1043853759765625,-2.023406982421875,6.9159698486328125,4.905708312988281,-6.245071411132827,6.0,6.0,08-04,0.6526281038920073
06-06,5.007301330566403,3.933061599731449,-0.6212196350097727,2.728374481201172,5.1092529296875,-2.948486328125,-5.6437835693359375,-3.511444091796861,-2.042236328125,5.548072814941392,2.6085891723632812,-5.9675216674804545,6.0,6.0,08-05,0.3499967257181809
06-07,5.095224380493164,4.289112091064453,-1.293518066406257,2.208892822265618,3.3083419799804545,-2.0242919921875284,-6.858406066894531,-3.1871490478515625,-1.5434341430664062,5.959388732910156,0.1752014160156392,-5.5610885620117045,6.0,6.0,08-06,0.04735612869262459
06-08,5.123193740844723,3.622566223144535,-0.7701339721679759,2.409690856933601,3.3883819580078267,-3.1107940673828267,-6.8127288818359375,-6.133422851562472,-3.058647155761733,6.504615783691406,-3.338592529296875,-1.7248229980468608,5.0,7.0,08-07,-0.32505782445271575
06-09,4.63165283203125,3.7136402130126953,-3.2252540588378835,3.4661216735839844,3.179405212402358,-2.8042449951172017,-7.337852478027344,-5.864776611328139,-4.630317687988281,6.112434387207017,-3.319122314453125,0.2379150390625,6.0,6.0,08-08,-0.4866998990376808
06-10,4.739559173583984,2.8690738677978516,-2.650836944580078,4.173313140869141,3.032646179199233,-3.115325927734375,-8.53875732421875,-4.4564666748046875,-4.7056121826171875,5.768081665039048,-1.4892349243164062,2.5971603393554545,6.0,6.0,08-09,-0.14803330103556434
06-11,4.490217208862305,2.202022552490231,-4.404764175415039,4.25230407714843,4.0865020751953125,-3.0251541137695312,-10.436866760253892,-2.6018600463867188,-5.924865722656264,5.088912963867173,-3.8836746215820312,11.77642822265625,6.0,6.0,08-10,0.13493347167968542
06-12,4.634225845336918,2.5877647399902415,-2.535938262939453,3.2962989807128764,4.508964538574233,-2.5215606689453125,-11.281074523925753,-2.7041854858398438,-5.953224182128906,5.471534729003906,-4.019950866699219,12.523544311523423,6.0,6.0,08-11,0.3338665962219259
06-13,4.646062850952148,2.408351898193363,-4.35761833190918,4.274135589599595,3.1905517578125,-1.5208053588867188,-7.7248001098632955,-2.4065399169922017,-7.29901123046875,5.6915435791015625,-0.2530670166015625,12.989334106445312,6.0,6.0,08-12,0.8031781514485644
06-14,4.670257568359375,1.4527988433837926,-5.063947677612305,4.4537353515625,3.7684097290039062,-1.4276733398437642,-9.74075317382814,-1.8413696289062642,-7.233139038085923,5.482971191406264,-0.6945419311523438,18.11929321289061,6.0,6.0,08-13,0.9955034255981424
06-15,4.823543548583984,0.8276500701904297,-4.412942886352539,3.1734085083007812,2.59832763671875,-1.2693634033203125,-10.088935852050795,-1.415184020996108,-8.991874694824205,2.4432830810546875,-1.8355026245117188,18.21890258789061,6.0,6.0,08-14,0.3392759958902971
06-16,5.187200546264652,0.4302024841308558,-3.6795501708984375,2.5955772399902415,3.2321624755859375,-0.14749908447265625,-10.609474182128906,-1.6836853027343892,-9.408401489257812,1.4808807373047017,-1.3075942993164205,16.67250061035155,6.0,6.0,08-15,0.2301932970682762
06-17,5.119264602661136,0.5040645599365199,-3.8875656127929688,1.8670616149902415,3.0580596923828125,0.082427978515625,-11.221351623535156,-3.511566162109389,-7.631713867187472,2.220672607421875,-4.1133804321289205,16.563453674316392,7.0,5.0,08-16,-0.07921441396077533
06-18,5.388401031494137,0.07172012329101207,-3.5082359313964844,2.2839813232421875,2.853485107421889,-0.4044799804687358,-12.729782104492188,-3.2968063354492188,-7.272552490234361,2.3936309814453125,-3.8700332641601562,14.838020324707031,6.0,6.0,08-17,-0.27105426788329784
06-19,4.903902053833011,0.09307670593261719,-4.116889953613274,1.6728096008300781,3.9207077026367188,-0.43674468994140625,-11.182746887207031,-4.0501556396484375,-6.516403198242173,3.2258453369140625,-4.8239288330078125,15.701255798339844,6.0,6.0,08-18,-0.1341060002644836
06-20,4.718048095703125,0.6063308715820277,-4.074028015136719,1.7339401245117188,4.1325454711914205,-0.7287063598632812,-12.380439758300781,-4.1059722900390625,-6.205833435058594,2.2596969604492188,-4.953033447265597,15.691055297851562,6.0,6.0,08-19,-0.2755330403645801
06-21,4.709985733032227,0.40186500549316406,-5.052665710449219,3.5819358825683594,4.576896667480469,0.04005432128907671,-12.096397399902344,-3.772430419921875,-6.1117095947265625,3.899108886718736,-4.734176635742173,15.461952209472642,7.0,5.0,08-20,0.07536824544270833
06-22,4.903600692749023,0.9276523590087891,-5.056903839111328,2.9014129638671875,4.769577026367202,0.42908477783203125,-13.993209838867188,-3.5408096313476562,-7.010078430175781,3.3273696899414062,-4.662200927734375,15.41213989257811,7.0,5.0,08-21,-0.13269710540771484
06-23,4.963544845581051,1.1098232269287074,-6.842315673828132,3.6715545654296875,5.7336883544921875,0.18025970458982954,-14.102783203125,-6.532768249511719,-7.6806869506835795,4.8825225830078125,-5.952667236328125,15.392311096191406,7.0,5.0,08-22,-0.4314597447713228
06-24,4.380088806152344,1.2410030364990199,-7.561954498291016,2.9298858642578125,5.79620361328125,0.7843627929687358,-13.810562133789062,2.226104736328139,-7.519454956054702,6.1795806884765625,-5.561622619628906,17.18653106689453,8.0,4.0,08-23,0.5225138664245591
06-25,3.9194717407226527,1.227970123291012,-7.451107025146481,4.501003265380859,5.284828186035156,0.13515472412107954,-16.010452270507827,6.41559600830081,-5.487335205078139,5.718414306640625,-4.9484024047851705,15.905853271484375,8.0,4.0,08-24,0.7675828933715794
06-26,4.592082977294925,1.0900764465332067,-6.508121490478512,3.841838836669922,4.764564514160156,1.4396286010742188,-18.694450378417983,7.559562683105483,-6.3474502563476705,5.029693603515625,-4.228118896484361,16.520393371582017,8.0,4.0,08-25,0.7549750010172523
06-27,4.314846038818363,0.7562580108642614,-6.186649322509766,3.5624351501464844,5.215423583984375,0.5371246337890625,-20.463211059570312,7.513061523437528,-6.0368804931640625,5.718414306640625,-5.165107727050781,17.575004577636733,8.0,4.0,08-26,0.6117266019185426
06-28,4.371320724487308,1.144323348999027,-6.8249053955078125,2.649665832519524,7.3133392333984375,-1.4530181884765625,-21.57195281982422,5.780502319335966,-6.582717895507827,4.337440490722656,-9.443603515625,16.319900512695327,7.0,5.0,08-27,-0.3299754460652646
06-29,4.149467468261722,1.9267978668212926,-7.114246368408203,1.576141357421882,5.531349182128892,-1.348976135253892,-19.6934814453125,3.992362976074247,-5.170722961425781,7.057693481445327,-10.696517944335909,16.449394226074247,7.0,5.0,08-28,-0.2783948580423896
06-30,4.133480072021484,2.171060562133796,-8.163492202758789,2.296977996826172,4.410964965820298,-1.900856018066392,-19.456031799316406,2.7891921997070312,-5.4530105590820455,8.552078247070312,-10.461891174316392,14.34787750244142,7.0,5.0,08-29,-0.5611375172932925
07-01,4.181438446044918,1.981201171875,-8.074441909790039,2.081928253173821,3.5182418823242188,-1.3192520141601562,-21.08159637451172,1.5163116455077983,-5.658332824707017,7.3414764404296875,-8.87814331054686,14.06040191650392,7.0,5.0,08-30,-0.8608972231547023
07-02,5.417711257934567,2.9226703643798864,-6.571083068847649,2.441791534423821,3.2336578369140767,-1.0712966918945312,-18.62763214111328,4.969490051269517,-5.932434082031264,9.061302185058594,-8.352546691894531,12.20085906982419,7.0,5.0,08-31,-0.025625864664717096
07-03,5.372564315795902,2.250835418701172,-6.146739959716783,2.3632164001464773,3.0069046020507955,-1.9053573608398295,-17.044906616210923,4.671867370605469,-5.979698181152344,9.711769104003906,-9.316169738769531,12.722740173339844,7.0,5.0,09-01,-0.024414539337153762
07-05,4.62230110168457,3.3691272735595703,-6.099594116210923,2.0969161987304616,1.9404296875,-0.822418212890625,-21.40664672851561,3.3697891235351562,-6.045562744140625,8.936950683593764,-7.140846252441406,14.595420837402344,7.0,5.0,09-03,-0.2153444290161103
07-06,4.5617980957031286,3.3691272735595703,-6.533588409423828,1.5265884399414134,1.5891494750976705,-1.1255111694335795,-19.409057617187486,3.0733184814453125,-5.452667236328125,7.794395446777344,-4.967491149902344,16.56771850585939,7.0,5.0,09-04,0.08281501134237217
07-07,5.121271133422855,2.3299636840820384,-6.899532318115227,3.1584320068359375,2.035491943359389,-1.8764190673828267,-19.372512817382812,3.0177154541015483,-5.86468505859375,6.7990875244140625,-5.319435119628906,18.01499176025392,7.0,5.0,09-05,0.09536409378051906
07-08,5.0413513183593786,1.8414440155029297,-7.036315917968757,2.3465423583984375,2.8076858520507812,-1.1640930175781392,-17.582572937011733,0.0625457763671875,-5.590660095214844,6.164955139160156,-4.2538299560546875,19.947990417480483,7.0,5.0,09-06,0.2154202461242661
07-09,4.925460815429691,2.0053844451904297,-6.874950408935547,2.609844207763672,1.3402862548828125,-1.6239395141601705,-17.16248321533203,0.7797088623047017,-6.677589416503906,6.856742858886719,-3.8255615234375,21.325866699218764,7.0,5.0,09-07,0.3065641721089696
07-10,5.065996170043942,2.795467376708981,-7.03355598449707,3.1467971801757812,1.5581741333007812,-1.3893585205077983,-18.81403350830078,1.3191299438476705,-5.959281921386719,6.014945983886719,-3.3096771240234375,16.20537567138672,7.0,5.0,09-08,-0.03333504994710109
07-11,4.729230880737308,2.0860881805419886,-6.257743835449219,3.6968345642089844,1.400848388671875,-1.5241088867187358,-20.916549682617188,0.49138641357424717,-5.949882507324219,7.019340515136719,-2.1046829223632812,13.706474304199219,7.0,5.0,09-09,-0.30189704895019176
07-12,4.930921554565433,2.428260803222649,-6.079032897949219,5.649269104003906,0.945075988769517,-1.5241546630859233,-18.0850830078125,-1.4449920654296733,-6.768638610839844,8.278327941894545,-0.7315521240234375,12.092781066894517,6.0,6.0,09-10,-0.025734742482502366
07-13,5.362516403198246,1.786554336547848,-6.1130828857421875,4.540782928466804,2.3409347534179688,-2.6369857788085795,-18.360008239746094,-2.1584091186523153,-7.47527313232419,7.664070129394531,-0.6700363159179688,16.42584991455078,6.0,6.0,09-11,0.058909416198736984
07-14,5.138734817504883,2.1219005584716797,-5.556198120117195,6.231983184814453,3.264892578125,-2.1846160888671733,-19.346290588378906,-2.7101211547851562,-8.248649597167955,9.770950317382812,0.072967529296875,14.106246948242173,7.0,5.0,09-12,0.2218166987101243
07-15,4.351470947265625,2.176406860351566,-6.821123123168945,6.26708984375,3.5818023681640625,-1.0890579223632812,-18.770965576171875,-7.432571411132798,-6.215904235839844,10.2513427734375,0.4737854003906108,10.240242004394531,7.0,5.0,09-13,-0.24895683924357068
07-16,3.2984580993652344,3.671598434448242,-6.4040679931640625,6.2232093811035085,4.5378570556640625,-1.1927642822265625,-13.563835144042969,-5.693260192871094,-5.469215393066392,9.713302612304673,0.3375244140624716,10.995552062988281,7.0,5.0,09-14,0.5378632545471161
07-17,3.3076000213623047,4.1629638671874964,-5.731121063232415,5.350128173828118,3.6396026611328125,-2.5243377685547017,-13.472274780273438,-7.1813507080078125,-7.009841918945298,6.805358886718736,1.5444793701171733,15.700798034667969,7.0,5.0,09-15,0.3826670646667454
07-18,3.197978973388672,4.0377807617187464,-5.169616699218743,5.323932647705071,1.5514984130859375,-4.145515441894517,-14.950492858886719,-7.627777099609375,-7.0004425048828125,5.523567199707017,1.6830215454101562,21.266983032226562,7.0,5.0,09-16,0.30757649739583304
07-19,3.8030376434326207,4.158784866333004,-5.3951148986816335,3.1652183532714844,1.733062744140625,-3.771240234375,-14.840522766113281,-6.775390625,-7.612174987792983,6.7518539428710795,2.3304214477539062,20.978103637695312,7.0,5.0,09-17,0.3771699269612612
07-20,3.9966564178466797,3.1279125213623047,-5.441925048828118,2.4542503356933665,2.7115554809570312,-3.4048233032226562,-14.116615295410156,-8.304100036621094,0.2048797607421875,7.332061767578139,-1.0545425415039062,20.101531982421875,7.0,5.0,09-18,0.6339035034179711
07-21,4.004648208618164,3.061677932739258,-5.101345062255859,3.6583251953125,2.7829666137695312,-2.812225341796875,-11.705680847167969,-6.449127197265611,0.3641510009765625,8.684280395507798,0.7540740966796733,19.338241577148438,8.0,4.0,09-19,1.381665547688801
07-22,3.8767757415771484,2.815227508544922,-4.135890960693359,3.197517395019524,3.87652587890625,-3.425384521484375,-11.596092224121094,-6.536170959472685,1.759033203125,8.953292846679673,2.9243927001953125,17.831497192382812,8.0,4.0,09-20,1.6283936500549274
07-23,2.943359375,2.057010650634769,-4.364265441894538,3.105354309082024,4.1433563232421875,-3.5155410766601562,-9.908515930175781,-4.74493408203125,3.2145843505859233,10.663505554199205,0.9679412841796733,18.883270263671903,8.0,4.0,09-21,1.9537604649861633
07-24,3.0566368103027344,2.083841323852539,-4.450004577636712,4.0613746643066335,5.054924011230469,-2.783172607421875,-8.89874267578125,-4.577537536621094,3.6588058471679545,9.094741821289062,1.8050384521484375,15.684455871582031,8.0,4.0,09-22,1.982530117034911
07-25,2.9728641510009766,1.8877239227294922,-6.155946731567379,4.528469085693359,4.401573181152344,-2.422996520996108,-7.875091552734375,-3.461456298828139,2.0400848388672017,6.005035400390625,2.9979095458984375,10.343727111816406,8.0,4.0,09-23,1.2718246777852367
07-26,3.1463146209716797,1.8418235778808594,-5.321977615356442,4.70135498046875,4.3586807250976705,-3.7487564086914062,-9.551963806152344,-3.618957519531264,2.378875732421875,5.520858764648452,1.7945632934570312,11.080841064453125,8.0,4.0,09-24,1.0484714508056656
07-27,2.714708328247074,1.593414306640625,-4.645460128784176,3.4030113220214844,1.2767486572265625,-4.382041931152344,-11.091384887695312,-2.998191833496108,3.1136703491210938,6.745513916015625,0.4279937744140767,8.590576171875,8.0,4.0,09-25,0.39571317036946674
07-28,2.818607330322269,1.5768642425537145,-5.928478240966797,2.811870574951172,1.2990646362304688,-3.3596878051757812,-15.228378295898438,-1.8006057739257812,3.0092315673828125,3.2975616455078125,-1.6445770263671875,10.2261962890625,7.0,5.0,09-26,-0.2435275713602696
07-29,3.0863628387451207,1.322265625,-6.32818603515625,2.030693054199226,1.8213272094726562,-1.7006149291992188,-16.7352294921875,-0.9662628173827983,4.121368408203111,2.1926803588867188,-1.2241897583007812,8.412147521972656,7.0,5.0,09-27,-0.33063650131225497
07-30,1.8615226745605433,1.6665477752685511,-4.648923873901367,1.84197998046875,1.8746795654296875,-1.4481430053710938,-18.36644744873047,-1.9801788330077983,3.5070114135742188,1.0877685546875,-1.740074157714858,11.230422973632812,7.0,5.0,09-28,-0.4261528650919602
07-31,1.2748222351074219,0.9250183105468786,-3.7573699951171875,2.5098838806152344,2.1459121704101562,-0.1274566650390625,-18.027870178222656,-1.691871643066392,3.0155181884765625,0.2077178955078267,-0.21192169189453125,13.070571899414062,7.0,5.0,09-29,-0.055587132771807234
08-01,0.9952373504638672,1.0752315521240234,-5.051836013793945,3.121044158935547,2.011444091796875,0.329437255859375,-21.071632385253906,-0.6501770019531108,3.14727783203125,1.097320556640625,1.4622573852539062,14.822425842285156,9.0,3.0,09-30,0.10733588536580523
08-02,0.9871749877929723,0.9750900268554688,-4.124250411987305,3.5808944702148438,1.5733108520507812,-0.21901702880857954,-19.75212860107422,0.25777435302734375,2.1120376586914062,0.1444091796875,4.4473800659179545,13.417915344238281,9.0,3.0,10-01,0.28338257471720407
08-03,0.7733840942382812,1.4305038452148402,-4.515707015991204,2.7287330627441406,2.5813064575195312,-1.4494323730468608,-18.15771484375,-0.33516693115235796,4.3741989135742045,-1.2802810668945312,7.8553466796875,15.16110992431642,7.0,5.0,10-02,0.7638567288716637
08-04,0.6854610443115199,1.074453353881836,-2.040904998779304,2.7347412109375,2.4697341918945312,-3.969093322753892,-16.943092346191406,-1.5264511108398295,3.874641418457017,-0.0819549560546875,6.252037048339858,14.75467681884767,7.0,5.0,10-03,0.6070206960042345
08-05,0.6574916839599609,1.2935485839843714,-2.850381851196289,2.3309860229492188,2.3938522338867188,-2.8825912475585938,-16.98876953125,-0.6231307983398438,5.9640045166015625,0.35999298095703125,3.8470840454101562,10.918411254882827,8.0,4.0,10-04,0.36837482452392667
08-06,0.16135215759277344,1.477148056030277,-1.8302745819091797,3.199932098388672,2.6028289794921875,-3.1891403198242188,-13.81829833984375,-0.9672698974609375,6.89971923828125,-1.06195068359375,3.8276138305664062,10.837661743164062,7.0,5.0,10-05,0.678276856740316
08-07,0.02420234680175426,1.0306777954101562,-0.9772758483886683,2.4927406311035156,2.7495880126953125,-2.7820281982421875,-10.317871093750014,-2.260070800781236,7.1549072265625,-0.7175979614257812,1.9977264404296875,9.522796630859375,7.0,5.0,10-06,0.6598162651062012
08-08,0.988256454467777,1.7650699615478445,-0.08144760131835938,2.413749694824226,2.0800399780273438,-3.7862625122070312,-11.014297485351562,-2.6971893310546875,8.374160766601577,-0.03842926025390625,-1.5055389404296875,10.140380859375,6.0,6.0,10-07,0.5532077153523778
08-09,1.1859092712402344,2.082210540771481,-1.9502735137939453,2.4795684814453054,4.110969543457031,-3.5782089233398295,-12.104728698730469,-2.5948638916015625,8.402519226074219,-0.720588684082017,1.2611312866210938,8.775718688964844,7.0,5.0,10-08,0.6124469439188654
08-10,1.1213626861572266,2.2616233825683594,-0.12859344482421875,3.12469482421875,2.9325942993164062,-5.772155761718736,-11.2708740234375,-2.8925094604492045,11.058456420898423,0.5380401611328125,3.0892791748046733,13.148628234863281,8.0,4.0,10-09,1.4342122077941895
08-11,1.09716796875,3.2171764373779297,-0.5143508911132812,3.326576232910149,0.6561508178710938,-4.3653182983398295,-9.254920959472656,-2.371673583984361,11.861831665039062,3.362762451171861,-0.19553375244142046,8.018669128417983,7.0,5.0,10-10,1.2365447680155441
08-12,0.9438819885253906,3.2130031585693324,-0.6772193908691406,2.4444618225097585,0.5088653564453125,-4.523628234863281,-8.90673828125,-9.542465209960938,9.527282714843736,-7.225090026855483,1.9845733642577983,7.919059753417983,7.0,5.0,10-11,-0.3611677487691276
08-13,1.339193344116211,3.713743209838867,-0.07715988159178977,2.2908668518066406,-0.124969482421875,-5.6454925537109375,-7.101554870605469,-9.867973327636719,9.281532287597642,-6.225875854492202,1.4566650390625,16.117034912109347,6.0,6.0,10-12,0.4296674728393513
08-14,2.085414886474606,3.5426540374755895,-0.17575454711914062,3.0193824768066406,0.04913330078125,-7.0297088623046875,-7.99957275390625,-11.3095703125,9.30990600585936,-6.965667724609375,4.262451171875,16.834228515625,7.0,5.0,10-13,0.46857468287149945
08-15,2.880050659179684,3.751285552978519,0.4886436462402344,2.6024627685546946,2.6602935791015625,-8.468208312988281,-6.341011047363281,-11.644378662109375,8.95074462890625,-7.1386260986328125,5.904861450195298,17.06333923339845,8.0,4.0,10-14,0.8924547831217454
08-16,3.093841552734375,4.060070037841797,1.0972976684570241,2.3786354064941335,3.6422805786132812,-12.295227050781264,-6.487640380859375,-10.891029357910156,8.194595336914062,-11.068244934082031,8.260932922363281,14.59298706054686,8.0,4.0,10-15,0.3815415700276657
08-17,3.452835083007816,3.5468158721923864,1.0544357299804688,1.7466659545898438,4.1600570678710795,-11.847396850585952,-6.359336853027344,-10.835212707519531,10.132186889648423,-12.80727386474608,5.4649276733398295,15.609008789062457,8.0,4.0,10-16,0.2764760653177832
08-18,3.4608974456787145,3.75128173828125,3.111858367919922,3.0632553100585938,3.869934082031236,-10.526512145996108,-6.643379211425781,-10.835227966308594,10.79379272460936,-13.047462463378906,6.4425506591796875,15.838111877441378,8.0,4.0,10-17,0.7732583681742294
08-19,3.2672824859619176,4.4815273284912145,4.6420745849609375,3.800556182861328,4.200241088867173,-10.915542602539062,-4.7465667724609375,-11.281684875488281,10.18890380859375,-11.097068786621094,7.175758361816392,15.887924194335909,8.0,4.0,10-18,1.3002837498982707
08-20,3.602085113525394,4.74440956115723,3.8148002624511683,4.305240631103523,3.2361297607421875,-10.66671752929686,-0.558929443359375,-11.672309875488295,9.99041748046875,-11.15472412109375,8.466224670410142,18.428016662597656,8.0,4.0,10-19,1.8778869311014807
08-21,2.722738265991211,4.953044891357418,5.053558349609364,5.046909332275398,3.173614501953125,-10.517448425292969,3.2346420288085938,-11.53280639648439,9.914794921875,-12.4517822265625,8.075180053710923,18.856338500976562,9.0,3.0,10-20,2.2107319831848113
08-22,3.154348373413086,4.489856719970703,4.243438720703114,3.475791931152351,6.391853332519531,-7.825889587402344,8.173690795898423,-11.765319824218764,7.8826751708984375,-11.990615844726562,10.890739440917969,13.188476562500028,9.0,3.0,10-21,2.525753815968831
08-23,2.8477935791015625,5.195064544677738,3.3004531860351456,4.432506561279297,6.039237976074219,-6.808090209960923,8.356964111328125,-12.909286499023438,8.742790222167969,-10.357261657714844,17.294189453125,13.497268676757812,9.0,3.0,10-22,3.302635828653972
08-24,2.2265987396240234,5.528882980346683,2.978981018066399,3.765441894531236,7.29351806640625,-4.609596252441392,7.678855895996108,-12.862785339355483,10.018775939941406,-8.868049621582045,17.118209838867173,12.89959716796875,9.0,3.0,10-23,3.5973691940307595
08-25,2.170124053955078,5.140817642211918,4.114847183227539,3.651317596435547,8.860237121582031,-5.663589477539048,8.787597656250014,-13.104598999023438,13.270133972167983,-9.0986328125,17.695007324218736,14.154701232910156,9.0,3.0,10-24,4.16483020782471
08-26,2.391977310180664,4.736063003540039,4.860685348510742,2.703380584716797,8.114814758300781,-5.767631530761719,6.9091262817382955,-12.434936523437486,12.041427612304673,-10.088249206542955,16.91292572021483,14.025207519531236,9.0,3.0,10-25,3.7003992398579917
08-27,2.2144927978515625,3.8931694030761683,3.8191070556640625,3.4187240600585938,9.235198974609375,-5.215751647949219,7.7246551513671875,-13.355705261230455,12.561256408691392,-12.826484680175781,16.678298950195312,12.859748840332045,9.0,3.0,10-26,3.417225837707521
08-28,1.3714523315429652,4.944684982299794,3.0175514221191406,3.6337738037109446,10.127922058105455,-4.7678985595703125,7.220687866210923,-15.234428405761705,12.825904846191392,-11.615882873535156,15.094551086425781,12.102722167968778,9.0,3.0,10-27,3.226753393809
08-29,1.133462905883789,4.932176589965817,4.016269683837891,3.2739105224609446,10.386795043945312,-4.528160095214844,7.917083740234375,-14.02535247802733,13.10000610351564,-13.335708618164062,13.139297485351577,10.887466430664048,9.0,3.0,10-28,3.074770609537763
08-30,1.452127456665039,4.711019515991207,3.591926574707024,3.809326171874993,11.47591400146483,-5.6952285766601705,7.000770568847656,-13.727729797363281,13.147270202636719,-6.677444458007798,12.953529357910156,6.962791442871108,9.0,3.0,10-29,3.250356038411457
08-31,0.7462310791015625,4.56497955322266,3.5447807312011648,3.1378631591796875,10.569831848144517,-4.433158874511733,8.283607482910156,-12.425651550292969,13.563148498535156,-7.407646179199219,12.982864379882827,4.791275024414077,9.0,3.0,10-30,3.1598437627156577
09-01,1.278676986694336,3.592727661132809,5.957977294921882,3.4450721740722656,12.632003784179673,-5.9440383911132955,11.893959045410156,-11.7467041015625,12.608512878417969,-6.715873718261719,14.292884826660156,1.205291748046875,9.0,3.0,10-31,3.5417075157165505
09-02,1.3391799926757777,3.2046642303466797,6.772357940673828,3.488941192626953,10.913520812988267,-5.9440383911132955,9.896369934082031,-13.179000854492188,12.022506713867188,-5.438034057617173,15.202072143554688,-0.7670059204101705,8.0,4.0,11-01,3.1259611447652156
09-03,1.734487533569343,2.804075241088867,5.66221809387207,3.9102630615234446,10.913520812988267,-5.193130493164048,9.438209533691392,-13.476585388183594,12.09811401367189,-4.602165222167983,15.202072143554688,5.289337158203125,9.0,3.0,11-02,3.6483680407206216
09-04,0.6211872100830078,3.5009346008300817,4.886396408081055,3.9102630615234446,10.141326904296875,-5.098136901855469,10.033828735351562,-13.839347839355469,11.795677185058608,-4.602165222167983,14.136466979980469,7.082328796386719,9.0,3.0,11-03,3.5473966598510756
09-05,0.8470706939697301,3.905681610107422,5.786508560180657,3.6469612121582102,9.82440185546875,-0.12213134765626421,6.964088439941392,-14.174148559570312,11.795677185058608,-5.2939529418945455,11.516433715820312,14.134773254394545,9.0,3.0,11-04,4.069280306498208
09-06,1.0447216033935547,4.0100135803222585,5.786508560180657,3.8619918823242188,10.489448547363281,-1.6058883666992188,7.138214111328111,-14.174148559570312,11.07736968994142,-5.053726196289077,9.443862915039062,15.808235168457045,9.0,3.0,11-05,3.98555024464925
09-07,0.9156379699707031,4.0100135803222585,5.010696411132805,2.9754867553710866,9.739585876464844,-2.46539306640625,6.835823059082031,-13.34640502929689,11.483772277832017,-4.41961669921875,11.320899963378906,11.773994445800824,9.0,3.0,11-06,3.652874628702799
09-08,0.9156379699707031,3.667840957641598,5.9237022399902415,2.6287841796875,9.677085876464844,0.6016387939453125,6.835823059082031,-12.602371215820312,12.230445861816392,-5.418830871582031,12.103004455566406,11.773994445800824,10.0,2.0,11-07,4.028062979380292
09-09,0.4840431213378906,4.097633361816403,6.605222702026367,3.2475738525390554,9.717391967773438,1.7144699096679688,7.110748291015625,-7.487014770507827,9.86753082275392,-4.544502258300781,12.96331787109375,7.44092559814456,10.0,2.0,11-08,4.26811170578003
09-10,0.887405395507816,3.7137374877929688,6.763797760009766,2.3832855224609375,8.793434143066406,1.2621002197265625,6.020286560058608,-7.821807861328125,9.86753082275392,-2.4596176147460938,12.220314025878906,12.471267700195298,10.0,2.0,11-09,4.508477846781414
09-11,0.8234214782714844,3.338092803955071,7.216766357421875,2.3481788635253906,8.476524353027344,2.417877197265639,6.084930419921875,-7.083930969238281,9.659606933593764,-2.9400100708007812,11.81949615478517,11.6146240234375,10.0,2.0,11-10,4.481298128763838
09-12,1.4200363159179688,2.9893531799316406,5.5084381103515625,2.392059326171882,7.7531585693359375,3.5725936889648438,7.262916564941392,-6.570228576660156,8.912918090820312,-2.4019699096679545,11.359992980957031,12.166717529296875,10.0,2.0,11-11,4.530498822530111
09-13,1.4607410430908203,2.888507843017578,4.835491180419915,-0.17730712890625,8.809455871582031,3.273101806640625,6.701995849609375,-5.0821380615234375,10.453544616699219,-3.652595520019517,9.823577880859375,13.116729736328125,9.0,3.0,11-12,4.370925426483155
09-14,1.546234130859375,3.013690948486328,4.273986816406243,-0.39284133911133523,7.8417205810546875,2.814704895019517,7.152557373046875,-4.635711669921875,8.599044799804688,-3.8295974731445455,14.028457641601562,12.94671630859375,9.0,3.0,11-13,4.446580251057939
09-15,0.9411754608154261,2.8926868438720703,4.010448455810547,-0.2039337158203196,7.9984588623046875,2.1974868774414062,7.0425872802734375,-3.6807861328125,8.332679748535156,-6.846611022949219,15.059005737304688,13.235595703125,9.0,3.0,11-14,4.248232841491698
09-16,0.7475566864013672,2.680143356323242,4.302852630615234,-0.21275711059571023,8.94342041015625,1.8310699462890625,6.3186798095703125,-3.7502288818359233,7.746253967285142,-7.898483276367202,15.127723693847656,14.112167358398438,9.0,3.0,11-15,4.162366549173989
09-17,0.606887817382809,2.196422576904304,4.343448638916023,-0.7154693603515696,8.87200927734375,1.2384719848632812,4.670768737792969,-4.297882080078125,7.5564804077148295,-6.894874572753906,13.319107055664077,11.122985839843722,9.0,3.0,11-16,3.5015296936035134
09-18,0.5105609893798793,1.9755058288574219,4.36932373046875,-0.25466156005859375,7.778450012207031,1.2404327392578125,7.324165344238267,-4.129753112792969,6.6455917358398295,-7.163887023925781,11.148788452148438,17.539459228515625,9.0,3.0,11-17,3.9153313636779763
09-19,0.9300060272216832,1.4376678466796875,3.325340270996101,-0.16249847412109375,8.128044128417969,0.7951583862304688,8.115814208984375,-4.008323669433594,5.190040588378906,-8.874099731445312,9.357528686523423,24.657302856445312,9.0,3.0,11-18,4.074331760406494
09-20,0.8607978820800781,1.6477680206298828,3.411079406738274,-1.1258468627929688,8.586746215820312,2.8600616455078125,7.895111083984375,-4.17572021484375,4.745819091796875,-8.040504455566406,10.510154724121108,23.657302856445312,9.0,3.0,11-19,4.236064116160075
09-21,0.5554885864257777,1.8438854217529297,5.117021560668942,-0.620361328125,9.751396179199219,4.298744201660156,10.212348937988281,-5.2918014526367045,5.163970947265625,-8.011291503906236,10.83053588867186,23.657302856445312,9.0,3.0,11-20,4.792270024617514
09-22,0.3820381164550746,1.8897857666015625,5.633811950683594,1.6754570007324219,9.800651550292969,5.279052734375,11.88922119140625,-5.690757751464844,5.210563659667969,-4.3388442993164205,10.702941894531236,22.920188903808594,10.0,2.0,11-21,5.446175893147784
09-23,0.8136444091796804,2.7703113555908203,6.566398620605469,1.6754570007324219,8.654159545898438,5.9123382568359375,13.428642272949219,-7.137962341308608,5.8287734985351705,-4.3388442993164205,8.455360412597642,25.41045379638672,10.0,2.0,11-22,5.669894377390541
09-24,0.608139038085941,2.0854969024658203,4.251184463500977,2.3369178771972585,8.631843566894531,4.889984130859375,14.31475830078125,-5.152976989746094,5.8287734985351705,-6.0951690673828125,10.527931213378906,24.782913208007812,10.0,2.0,11-23,5.584149678548179
09-25,0.8654327392578125,2.1313076019287145,4.251184463500977,3.1180953979492045,8.109580993652344,7.2135772705078125,15.253433227539062,-5.152976989746094,6.265251159667983,-4.990287780761719,10.1075439453125,23.48796844482422,10.0,2.0,11-24,5.888342539469401
09-26,0.9387607574462891,2.1313076019287145,4.009611129760742,3.3068084716796804,7.714019775390625,7.963981628417969,19.544555664062486,-4.751350402832031,6.879608154296875,-3.8853759765625,9.302726745605455,22.003768920898438,10.0,2.0,11-25,6.263201872507729
09-27,0.9387607574462891,1.5304584503173793,3.1180572509765625,3.118499755859375,8.536003112792969,7.6069564819335795,19.544555664062486,-5.0396575927734375,7.371101379394531,-1.6427993774414062,7.512626647949219,22.003768920898438,10.0,2.0,11-26,6.216527620951332
09-28,0.6619472503662145,1.3802452087402344,4.41252326965332,4.004047393798828,7.920654296875,7.6069564819335795,19.562950134277344,-6.081352233886719,6.491844177246108,-1.3140869140625,9.565040588378906,22.003768920898438,10.0,2.0,11-27,6.3512115478515625
09-29,0.6700096130371094,1.480386734008789,3.314807891845696,3.5337066650390625,7.920654296875,7.5297927856445455,18.243446350097656,-3.7709426879882812,7.4589691162109375,-1.8615570068359375,9.565040588378906,23.408279418945312,10.0,2.0,11-28,6.457716147104899
09-30,0.8838005065918004,2.3078422546386825,3.987405776977539,3.260284423828118,8.341629028320312,8.760208129882827,16.649032592773438,-4.4756622314453125,5.010040283203125,-3.3476638793945312,11.44949340820311,21.665084838867173,10.0,2.0,11-29,6.207624594370524
10-01,1.8831710815429688,2.119598388671882,6.1734619140625,3.044219970703125,8.453201293945312,11.279869079589858,15.30517578125,-5.278602600097656,6.423820495605469,-1.5720443725585938,13.052803039550753,21.96392059326172,10.0,2.0,11-30,6.904049555460612
10-02,1.4586887359619176,2.5457019805908097,6.427986145019531,3.4479751586914062,8.529083251953125,11.983322143554702,12.756958007812486,-4.671478271484389,6.1107025146484375,-2.0139923095703125,15.457756042480455,20.479721069335938,10.0,2.0,12-01,6.876035372416176
10-03,0.9830741882324183,2.6129360198974574,8.416728973388672,2.579029083251953,8.331809997558594,12.524429321289062,10.556236267089858,-6.604896545410156,5.17498779296875,-0.5920486450195312,14.76163482666017,17.84003448486328,10.0,2.0,12-02,6.381996313730878
10-04,1.1784744262695277,3.4112834930419886,7.5637302398681605,2.7254257202148438,6.1483917236328125,13.263313293457031,11.494186401367173,-5.312095642089858,4.9197998046875,0.4683380126952983,12.443313598632798,17.84003448486328,11.0,1.0,12-03,6.3453496297200465
10-05,1.4390144348144496,2.6768913269043004,6.667901992797852,3.040447235107422,7.303863525390625,12.927474975585938,10.18841552734375,-4.874977111816406,4.040191650390611,1.7209854125976562,12.999259948730469,17.84003448486328,11.0,1.0,12-04,6.330791950225829
10-06,1.2413616180419922,2.359750747680664,5.743015289306641,1.6685638427734375,6.4081878662109375,14.80185699462892,11.278846740722656,-6.086799621582031,2.930992126464858,0.22216033935546875,12.469253540039062,19.204696655273438,11.0,1.0,12-05,6.020157178243004
10-07,1.305908203125,2.586025238037113,5.116847991943359,1.3907432556152415,6.9858856201171875,16.995803833007827,10.444992065429688,1.165069580078125,5.082489013671875,1.40911865234375,13.588157653808608,14.831787109375,12.0,0.0,12-06,6.741902351379398
10-08,0.3705482482910192,2.566926956176758,3.977527618408196,1.0159072875976562,9.2623291015625,15.58896636962892,8.150840759277358,2.3704376220703125,4.313941955566406,-2.2868804931640625,16.8729705810547,8.805328369140653,11.0,1.0,12-07,5.9174036979675355
10-09,0.47837257385253906,2.2974147796630753,4.094013214111321,1.8980216979980469,9.409614562988281,17.37645721435547,9.494003295898423,2.5852508544921875,3.782585144042983,8.300971984863281,14.692863464355483,7.918792724609375,12.0,0.0,12-08,6.860696792602539
10-10,0.3128013610839879,2.507501602172848,3.7618331909179616,2.0516166687011648,7.881340026855469,18.10797882080078,7.3466644287109375,4.41595458984375,4.028335571289077,7.3017578125,15.629425048828125,7.749450683593722,12.0,0.0,12-09,6.757888317108152
10-11,-0.29374694824218395,2.251192092895497,3.8604278564453125,3.661399841308601,9.693687438964844,21.25189971923828,5.286895751953125,5.857551574707031,3.999961853027358,9.488380432128892,13.581832885742173,7.749450683593722,11.0,1.0,12-10,7.199077765146888
10-12,-0.04949951171875,2.0425605773925675,3.1960296630859375,3.3898277282714844,9.464347839355469,22.54537963867186,4.183448791503906,6.192359924316406,2.988342285156264,8.257369995117173,15.92984008789064,7.749450683593722,11.0,1.0,12-11,7.157454808553056
10-13,-0.26329040527344105,1.7337760925292898,2.354572296142578,3.640789031982429,9.750968933105469,20.348762512207017,4.330078125,7.1738052368164205,2.7135543823242188,7.460876464843736,15.429275512695327,10.219802856445312,11.0,1.0,12-12,7.074414253234863
10-14,-0.6222839355468821,1.78445816040038,2.045299530029304,4.169960021972656,7.511726379394531,19.900932312011705,4.201774597167969,6.624664306640625,2.7977218627929688,7.055564880371094,15.27224731445314,9.203781127929716,11.0,1.0,12-13,6.6621538798014335
10-15,-1.0069751739501989,1.9580078125,2.2342376708984375,3.953876495361328,7.801849365234375,18.58004760742186,1.8079833984375,5.961723327636733,2.996986389160142,7.460876464843736,14.294624328613281,7.0621337890625,11.0,1.0,12-14,6.092114289601642
10-16,-0.9081001281738281,1.7272224426269602,1.7338218688964844,3.2165756225585938,7.4715423583984375,18.772621154785156,-1.5251617431640483,4.467277526855469,3.33856201171875,5.510482788085923,13.561416625976577,6.643768310546875,10.0,2.0,12-15,5.334169069925946
10-17,-0.6980037689208984,2.0927696228027344,1.2333946228027273,2.711891174316399,4.492210388183594,15.059143066406236,-2.847877502441392,3.645355224609375,3.53704833984375,5.5681381225585795,12.755546569824219,9.472717285156222,10.0,2.0,12-16,4.751861095428462
10-18,-1.056234359741211,2.4163131713867116,-0.00536346435546875,2.950286865234375,3.4596023559570312,12.505271911621094,-2.0938644409179545,3.5058517456054688,3.6126708984375,2.2618255615234375,9.096351623535156,9.472717285156222,9.0,3.0,12-17,3.8437857627868635
10-19,-0.8649063110351598,2.879501342773427,0.8047561645507812,5.628517150878913,2.856201171875,11.84722900390625,-0.5582122802734233,3.7383651733398438,-0.04461669921876421,-0.7774887084960938,8.891975402832003,9.472717285156222,8.0,4.0,12-18,3.6561698913574165
10-20,-0.5583515167236364,2.174293518066392,-0.01842117309569602,5.760753631591797,3.3981246948242188,14.38873291015625,-0.741485595703125,3.5799560546875,-2.100402832031264,-3.9416046142578125,8.744773864746065,9.163925170898438,7.0,5.0,12-19,3.3208578427632602
10-21,0.0628433227539027,2.235031127929684,-0.9807777404785156,6.76176452636718,4.1236419677734375,12.190238952636719,-0.06337738037110796,3.6722564697265625,-0.2913055419922017,-4.3565521240234375,7.321601867675781,9.7615966796875,8.0,4.0,12-20,3.369746843973792
10-22,-0.7394332885742116,2.566259384155277,-2.0400238037109446,6.206142425537109,2.5569229125976562,13.244232177734375,-4.6147689819335795,3.1525955200195312,-0.12053680419921875,-4.617103576660156,6.744804382324219,10.090316772460938,7.0,5.0,12-21,2.7024505933125824
10-23,-0.41466712951660156,2.3377838134765625,-1.3282203674316406,7.154079437255859,3.3023452758789062,14.86167144775392,-6.746917724609361,2.6108627319335938,-0.26285552978515625,-3.6274871826172017,7.526885986328125,9.522521972656222,7.0,5.0,12-22,2.911333560943602
10-24,0.22432518005371094,2.3882102966308665,-0.7328872680664134,6.4387359619140625,2.8828887939453125,14.83585357666017,-5.827537536621094,2.8257064819335938,-0.782684326171875,-0.889251708984375,9.15273284912108,12.451080322265653,8.0,4.0,12-23,3.5805977185567244
10-25,0.48486137390137074,2.3882102966308665,0.06866836547850852,8.345722198486328,2.3759994506835938,17.077560424804688,-4.420646667480469,4.704429626464844,-1.047332763671875,-5.969108581542983,8.752105712890625,12.451080322265653,9.0,3.0,12-24,3.767629146575929
10-26,0.48486137390137074,2.4007186889648438,-0.9300498962402415,8.30185317993164,2.8357391357421875,17.077560424804688,-4.420646667480469,3.4953536987304688,-1.94525146484375,-5.123619079589844,9.074714660644517,12.451080322265653,8.0,4.0,12-25,3.6418595314025892
10-27,0.16619682312012074,2.621875762939453,-2.674583435058601,7.382221221923821,2.3341293334960938,17.744705200195312,-3.50433349609375,2.723388671875,-1.2268295288085938,-5.9050140380859375,9.604713439941392,16.375755310058594,8.0,4.0,12-26,3.803518772125242
10-28,0.8720932006835973,2.7600383758544993,-2.776897430419922,8.255363464355462,3.2656631469726562,16.482635498046875,-4.78717041015625,2.3572235107421875,0.4555969238281392,-6.5998306274414205,10.12490081787108,18.547271728515625,9.0,3.0,12-27,4.07974068323771
10-29,0.5792331695556605,2.7855377197265625,-1.0120429992675781,8.034877777099602,1.2034912109375,17.993515014648438,-3.3804855346679545,1.8258285522460938,0.5409927368164205,-3.0582275390625,8.81488037109375,15.668510437011719,9.0,3.0,12-28,4.166342576344809
10-30,1.487813949584961,2.8905029296875036,-0.8179168701171875,8.034877777099602,2.9219741821289062,17.880531311035156,-3.2242279052734375,2.9093093872070312,0.7402420043945312,-4.3360671997070455,7.905693054199219,14.054824829101562,9.0,3.0,12-29,4.2039631207784005
10-31,1.1497974395751918,3.239242553710934,-1.3226509094238281,8.034877777099602,2.7352371215820312,12.964012145996108,-3.436538696289034,1.807159423828125,0.6646347045898295,-5.171936035156236,8.569786071777344,8.616073608398438,9.0,3.0,12-30,3.1541412671407087
11-01,0.9747524261474574,3.390506744384762,-0.5468292236328125,5.249038696289055,2.524993896484375,14.860702514648423,-2.8112411499023295,2.169921875,0.9670715332031108,-4.682479858398452,8.207870483398438,8.616073608398438,9.0,3.0,12-31,3.243365128835039
11-02,0.9747524261474574,2.985759735107422,-1.4469413757324148,6.07410812377929,2.20806884765625,14.860702514648423,-2.8112411499023295,2.5047225952148438,0.7402420043945312,-4.845809936523452,5.6171722412109375,8.616073608398438,9.0,3.0,01-01,2.9564674695332833
11-03,0.7771015167236328,2.8814277648925852,-2.2870864868164062,5.072639465332031,2.5171279907226562,14.497627258300781,-2.9853668212890483,3.0906753540039062,1.0357513427734517,-4.5871810913085795,5.2343902587890625,6.9426116943359375,9.0,3.0,01-02,2.682476520538334
11-04,0.9061851501464844,2.2127418518066406,-1.7051048278808594,6.241222381591797,3.0500640869140625,15.357131958007812,-2.6829757690429688,2.70257568359375,0.8832473754882812,-3.622161865234389,5.793853759765653,10.976852416992159,9.0,3.0,01-03,3.3428026835123688
11-05,0.24831771850585582,2.079864501953118,-2.0879554748535156,7.652336120605469,3.1125640869140625,12.29010009765625,-2.8321685791015767,0.7565460205078125,2.00286865234375,-4.143280029296861,5.011749267578153,5.548065185546875,9.0,3.0,01-04,2.4699172973632826
11-06,-0.10584068298339844,2.3529930114746165,-1.3847770690917898,7.033546447753913,3.0722579956054688,11.373313903808608,-3.8436660766601562,1.2142181396484375,2.1831588745117188,-5.017608642578111,4.15143585205081,5.0500030517578125,8.0,4.0,01-05,2.173252900441494
11-07,-0.10991668701171875,1.8235664367675852,-1.3071403503417898,7.897834777832031,4.165000915527344,10.211502075195312,-3.466651916503892,3.1009521484375,2.1831588745117188,-7.102493286132798,2.23779296875,1.4000091552734375,8.0,4.0,01-06,1.7528012593587274
11-08,-0.0936279296875,2.0210304260253977,-1.7601089477538991,8.881214141845703,3.5111465454101562,7.810638427734375,-3.1448287963867045,2.3630752563476562,2.391082763671875,-10.325645446777358,0.7557525634765625,1.4000091552734375,8.0,4.0,01-07,1.1508115132649752
11-09,0.2930908203125,2.369770050048828,-0.051780700683586645,9.741127014160156,2.4004669189453125,7.56103515625,-4.836761474609361,1.8493728637695312,2.2202835083007812,-7.5270919799804545,-0.10797119140626421,1.4000091552734375,8.0,4.0,01-08,1.2759625116984068
11-10,0.25238609313964844,2.4706153869628906,-0.7247505187988281,9.167842864990234,2.7408523559570312,8.010322570800781,-4.275840759277344,-1.16754150390625,4.032600402832017,-4.979469299316406,-1.0992584228515625,0.4499969482421875,7.0,5.0,01-09,1.2398130098978666
11-11,0.16689300537109375,2.3067550659179688,-1.4451828002929688,10.03659439086914,3.2737655639648438,8.46871948242189,-4.726402282714844,-0.16814422607421875,3.9566726684570312,-4.1785125732421875,-0.775360107421875,0.6200103759765625,7.0,5.0,01-10,1.4613173802693697
11-12,0.6676120758056712,2.3277587890625,-1.276947021484375,10.552509307861328,3.1170272827148438,9.0859375,-3.6413726806640625,0.28020477294921875,3.4822463989257812,-3.763557434082017,-1.805908203125,3.4000091552734375,8.0,4.0,01-11,1.8687933286031104
11-13,0.5658435821533203,2.40338134765625,-0.4961090087890625,10.561332702636719,2.1720657348632812,11.187294006347642,-5.8298568725585795,0.31755828857421875,1.9546127319335938,-2.711685180664034,-1.8746261596679688,0.4499969482421875,8.0,4.0,01-12,1.5583173433939639
11-14,0.10177421569823863,2.1722869873046946,-0.2976799011230469,11.064044952392578,2.0377197265625,10.470176696777358,-6.896553039550781,0.5417327880859375,2.1443862915039062,-3.7152938842773295,-1.0698089599609233,-1.0,7.0,5.0,01-13,1.2960654894510943
11-15,-0.2442531585693395,2.584064483642578,-0.32355499267577414,11.694637298583984,2.5438003540039062,9.494438171386705,-6.2804412841796875,0.37360382080078125,3.0552749633789062,-4.275016784667969,-1.3838882446289205,-1.0,6.0,6.0,01-14,1.3532220522562641
11-16,0.016279220581054688,3.1219024658203125,0.720428466796875,11.676979064941406,1.3928070068359375,9.830284118652344,-8.183883666992188,0.25217437744140625,2.4669876098632812,-5.124237060546889,0.2944488525390625,-1.0,9.0,3.0,01-15,1.288680871327717
11-17,0.0854873657226598,2.911802291870117,1.6781387329101562,9.251617431640632,2.7945556640625,9.821189880371108,-7.9631805419921875,0.0186920166015625,3.5486831665039205,-5.5391693115234375,0.9912948608398438,0.0,9.0,3.0,01-16,1.466592629750573
11-18,0.39079666137696023,2.2941513061523438,1.8981513977050781,8.859153747558587,2.7094802856445312,8.382507324218764,-10.280418395996094,1.56915283203125,3.1216964721679688,-6.4655990600585795,1.786300659179716,0.0,9.0,3.0,01-17,1.1887811024983772
11-19,0.8100872039794957,2.1680908203125,2.4546661376953125,8.413772583007812,2.6602249145507812,7.4021987915039205,-9.489631652832031,0.12143707275390625,1.6699523925781108,-4.979469299316392,1.913894653320341,0.0,9.0,3.0,01-18,1.095435301462813
11-20,1.441076278686527,2.4328041076660014,2.678985595703125,7.752311706542976,3.8067169189453125,6.494499206542983,-10.160896301269531,-0.20549774169921875,-0.36055755615234375,-3.22314453125,4.161476135253935,0.0,7.0,4.0,01-19,1.2348144849141471
11-21,0.6187744140625,2.4538078308105398,3.4813804626464844,7.664127349853516,3.3051300048828125,4.9242172241210795,-12.478126525878892,0.4669952392578125,-0.7970352172851562,-4.120613098144531,4.96629333496098,0.0,8.0,3.0,01-20,0.8737459182739288
11-22,1.5062141418457031,2.285736083984368,3.7229537963867188,6.949737548828125,1.7421417236328125,6.721427917480483,-12.753974914550767,0.06536865234375,-0.7306060791015625,-4.5838165283203125,1.9629669189453125,0.0,8.0,3.0,01-21,0.5740124384562192
11-23,1.058420181274414,2.886585235595703,4.4563255310058665,8.206546783447273,2.3691024780273438,5.713897705078139,-10.98849487304686,-0.84063720703125,2.1918182373046875,0.0675506591796875,0.687042236328125,0.0,9.0,2.0,01-22,1.3173464139302606
11-24,1.3352336883544886,2.100860595703118,3.584918975830078,8.695999145507812,2.6019973754882812,5.6548843383789205,-11.006889343261719,-0.5884399414062358,2.2202835083007812,-1.8431777954101562,-1.8648147583007955,0.0,7.0,4.0,01-23,0.9075713157653812
11-25,1.0014209747314453,1.5672454833984304,4.0853424072265625,8.713638305664062,1.3301162719726562,5.7320480346679545,-11.898857116699219,0.8125991821289205,0.8824310302734375,-2.8853683471679545,-1.599800109863267,0.0,8.0,3.0,01-24,0.6450680096944191
11-26,-0.09362602233887074,1.8991813659667827,2.4934768676757812,8.995872497558594,0.9091415405273438,5.028594970703111,-13.140213012695298,2.6993179321289062,1.3283920288085938,-5.104911804199219,-3.4842529296874716,0.0,7.0,4.0,01-25,0.1275811195373544
11-27,0.24017715454100852,2.3151626586914134,2.5668067932128906,9.269294738769538,1.1733779907226562,5.686676025390625,-11.999984741210923,4.156410217285156,2.9319381713867188,-3.618804931640625,-2.973876953125,0.0,8.0,3.0,01-26,0.8122647603352883
11-28,0.6716938018798828,2.428611755371108,2.963695526123047,9.485359191894531,1.2674179077148438,4.0800323486328125,-13.452842712402358,3.4839019775390767,1.518157958984375,-5.3944244384765625,-2.5322189331054545,0.0,8.0,3.0,01-27,0.37661536534627515
11-29,0.21983146667480113,2.9370307922363352,2.7091712951660156,9.41037368774414,-1.1017303466796875,3.608062744140625,-12.101119995117202,2.8767776489258097,1.8312759399414062,-6.031333923339844,-2.973884582519517,0.0,7.0,4.0,01-28,0.11537122726440696
11-30,0.03257179260253906,2.8697967529296875,0.720428466796875,8.793048858642578,-0.2104949951171875,2.7639236450195312,-11.898818969726577,4.810195922851577,3.1881103515625284,-5.626029968261719,-5.437408447265625,0.0,7.0,4.0,01-29,0.00044361750285067575
12-01,-0.1628284454345703,2.0714492797851562,0.9835853576660227,8.404972076416016,-0.5508575439453125,0.84869384765625,-12.836769104003892,6.173896789550781,5.256576538085923,-6.620002746582031,-4.3872222900390625,0.0,6.0,5.0,01-30,-0.06820885340372662
12-02,-0.4233684539794922,1.5672607421875,1.8075485229492188,8.872398376464844,-0.2060089111328125,1.1845321655273438,-11.530998229980469,6.949119567871094,1.9071884155273438,-5.867279052734375,-4.985923767089844,0.0,6.0,5.0,01-31,-0.06046088536580404
12-03,-0.23611068725586293,1.0210227966308665,1.8550148010253906,8.506412506103516,0.689666748046875,-0.6898498535156392,-11.227554321289077,5.641510009765625,0.7495880126953125,-5.317222595214858,-4.4559173583984375,0.0,6.0,5.0,02-01,-0.2886199951171908
12-04,-0.692047119140625,1.8193626403808665,1.9024658203125,8.784233093261712,0.111968994140625,0.9076766967773438,-9.967788696289048,3.754791259765625,1.1101608276367045,-1.6212234497070455,-5.574821472167983,0.0,7.0,4.0,02-02,0.04456488291422289
12-05,-0.3297328948974574,2.546264648437507,2.4546546936035156,9.159069061279297,1.2942886352539062,0.01361846923828125,-8.643653869628906,4.26849365234375,1.8787078857421733,-0.714111328125,-7.8714752197265625,0.0,7.0,4.0,02-03,0.3380103111267087
12-06,-0.15875816345214844,2.184906005859382,2.3381690979003906,6.464691162109375,-2.4542312622070312,0.40393829345701704,-10.988479614257812,4.053680419921875,2.4100646972655966,-0.3377532958984233,-12.464782714843736,0.0,6.0,5.0,02-04,-0.7123796145121263
12-07,-0.4559288024902308,1.9748191833496094,2.67034912109375,8.462268829345696,-4.4068603515625,1.8426055908202983,-9.085044860839844,2.2229766845703125,1.432746887207017,2.4511184692382812,-11.4244384765625,0.0,7.0,4.0,02-05,-0.3596156438191758
12-08,0.15061950683594105,2.2311286926269602,3.093109130859382,6.65870285034179,-4.24114990234375,2.0922317504882812,-7.025276184082031,1.0928039550781108,-0.2941589355468608,2.702049255371108,-10.256484985351562,0.0,7.0,4.0,02-06,-0.31636873881021926
12-09,-0.0936279296874929,2.331970214843757,3.1405677795410085,6.407363891601555,-4.250099182128906,0.7987518310547017,-5.9218292236328125,1.5317840576172017,-3.510711669921861,3.4257965087890767,-7.9696197509765625,0.0,6.0,5.0,02-07,-0.3424711227416945
12-10,-0.5332813262939418,2.079864501953118,3.606487274169922,6.389724731445305,-4.536720275878906,2.9953689575195455,-4.76318359375,1.1862030029296733,-1.6320266723632812,2.547630310058608,-7.46905517578125,0.0,6.0,5.0,02-08,-0.01074902216593395
12-11,-0.06920051574707031,2.365577697753899,3.7747344970703125,5.860553741455078,-2.2974777221679688,3.5263824462890625,-5.3884963989257955,1.2702865600585795,-1.4707183837890625,2.95294189453125,-7.3120269775390625,0.0,6.0,5.0,02-09,0.26771306991576854
12-12,-0.8182373046875036,2.634490966796868,3.921417236328125,6.076637268066406,-2.2392578125,5.010429382324247,-7.429878234863281,1.3543395996093608,-1.6699829101562358,2.547630310058608,-9.225898742675781,0.0,6.0,5.0,02-10,0.013474146525067768
12-13,-0.2157516479492223,2.5336532592773366,4.421833038330078,5.626808166503913,-0.16570281982421875,3.9529953002929688,-6.1977081298828125,2.848785400390625,-2.0115585327148438,3.8117904663085795,-10.207389831542955,0.0,6.0,5.0,02-11,0.36647955576578745
12-14,0.024423599243167615,2.1681060791015625,4.922260284423835,3.946727752685547,0.6852340698242188,4.597450256347656,-5.8758544921875,3.6707077026367188,-3.3399276733398295,4.554878234863281,-12.131088256835909,0.0,8.0,3.0,02-12,0.26857646306356237
12-15,0.3826541900634801,1.8445625305175852,5.137947082519524,4.034904479980469,1.2360763549804688,4.588401794433594,-6.6298675537109375,3.7641143798828125,-2.5808334350585795,7.324462890625,-11.090713500976534,0.0,8.0,3.0,02-13,0.6676424344380735
12-16,0.19132614135742898,2.5462570190429688,4.296726226806641,2.7560882568359375,1.504791259765625,5.2464447021484375,-8.165519714355469,4.315177917480469,-2.0400238037109233,10.113365173339858,-10.688316345214815,0.0,8.0,3.0,02-14,0.8396930694580131
12-17,0.5862026214599609,2.676525115966797,5.155193328857436,3.9290847778320384,0.9628677368164062,2.7049407958984375,-6.344810485839858,4.287200927734375,-1.4896926879882812,10.383560180664048,-10.541114807128878,0.0,8.0,3.0,02-15,1.0258297920227069
12-18,0.9973545074462855,2.575675964355476,4.913616180419936,2.928073883056655,0.2373504638671875,0.5491867065429545,-6.4551544189453125,4.997032165527344,0.18027496337892046,10.798507690429673,-9.117942810058594,0.0,9.0,2.0,02-16,1.050331274668377
12-19,0.8670864105224574,2.5168533325195384,4.909275054931655,3.483695983886726,0.20599365234375,2.3282394409179545,-5.0115203857421875,5.306465148925767,0.0095062255859375,11.059059143066392,-9.873695373535156,0.0,9.0,2.0,02-17,1.3167465527852362
12-20,1.2985973358154297,2.897369384765632,4.197471618652351,2.081390380859382,0.27317047119140625,3.2540740966796875,-3.319549560546875,5.8481979370117045,0.151824951171875,10.441452026367173,-11.787567138671875,0.0,9.0,2.0,02-18,1.278035958607991
12-21,1.6805419921875,2.846942901611328,3.6021385192871236,2.5311965942382812,1.5226974487304688,2.8365249633789062,-1.7133865356445312,5.6333541870117045,0.132843017578125,10.557243347167955,-12.621833801269531,0.0,9.0,2.0,02-19,1.4173552195231107
12-22,1.4200057983398402,2.7797203063964773,3.5158653259277415,1.8300247192382812,0.4881591796875,3.3189849853515625,-3.1202774047851562,6.445960998535142,0.42815399169920454,13.037345886230483,-13.4266357421875,0.0,9.0,2.0,02-20,1.393109003702798
12-23,1.2449607849121094,2.7124900817871094,3.6535911560058594,0.207244873046875,0.97344970703125,2.6518402099609375,-4.481163024902344,6.9887237548828125,0.31418609619139204,12.670639038085966,-13.240165710449219,0.0,9.0,2.0,02-21,1.1413164138793956
12-24,1.2582530975341797,2.9371566772460866,3.7720375061035156,-1.3916244506835938,0.0419158935546875,2.629119873046875,-4.905250549316406,6.467872619628892,-0.4097290039062642,13.645301818847685,-13.760353088378906,0.0,7.0,4.0,02-22,0.8570583661397292
12-26,1.1522712707519531,1.9266510009765554,3.6331100463867188,-1.1711387634277344,0.57733154296875,2.597869873046861,-2.580802917480483,6.880470275878892,-0.20017242431642046,10.103698730468764,-13.238685607910156,0.0,7.0,4.0,02-24,0.8067169189453084
12-27,0.8976402282714879,1.7110099792480398,3.6331100463867188,-1.0900840759277273,1.214935302734375,2.134757995605483,-4.288497924804702,6.880470275878892,-0.39942169189453125,8.872177124023452,-13.633171081542983,0.0,7.0,4.0,02-25,0.4944105148315421
12-28,1.1645889282226562,1.3622703552246094,4.137844085693359,0.0872039794921875,0.2993011474609375,2.2622222900390767,-3.5408172607422017,7.982620239257798,-0.8160400390625,10.325233459472642,-16.838302612304688,0.0,8.0,3.0,02-26,0.5355103810628231
12-29,1.3396339416503906,1.2110061645507812,3.793823242187507,-1.9760284423828125,1.3102645874023438,1.7615509033203267,-4.166114807128906,7.187919616699219,1.0400924682617188,10.213157653808608,-22.39757537841797,0.0,8.0,3.0,02-27,-0.05685583750406605
12-30,1.3803462982177734,1.1085891723632884,3.7794227600097656,-0.9219207763671875,2.3706817626953125,2.1246261596679688,-3.421295166015625,8.367408752441406,-0.012847900390625,9.389289855957045,-22.929847717285142,0.0,7.0,4.0,02-28,0.10287110010783174
12-31,1.246328353881836,1.6418991088867259,3.627582550048821,-0.04498291015625,1.8377456665039062,2.3561019897460795,-1.3200531005859375,7.1033172607421875,-2.1274490356445312,10.067771911621108,-23.489311218261733,0.0,7.0,4.0,03-01,0.07491254806518437
