,2009,2010,2011,2012,2013,2014,2015,2016,2017,2018,2019,2020,ups,downs,avg
01-02,-40.212491905589296,2.8534827885790994,3.476174488970116,6.717805209225171,-2.8887563373377336,2.452372316654256,2.540577305750889,-1.481405079518636,7.783910198725451,-4.94485720194745,9.342957919776897,-27.039299889790264,7.0,5.0,-3.449960848875125
01-03,-44.07455878913083,3.1948882567893384,3.772298164116814,6.717805209225171,-2.2946652709471804,4.251341295486725,5.982331259263532,1.6268354255812263,7.783910198725451,-5.113838380603371,12.503348975056916,-24.16467805707177,8.0,4.0,-2.4845818094589984
01-04,-45.23489895084304,3.7178268249832516,5.203956050319486,6.5205446008133565,-3.4567196398649322,4.841161780333508,4.715612635453973,1.3792436538078383,5.828254641399625,-5.724057758450803,11.3958834965225,-22.580950840935905,8.0,4.0,-2.7828452922050957
01-05,-39.974122485462814,3.6542727792251983,4.669924452438586,8.7632229933771,-1.9691704705793118,6.3289864700679415,5.039517631896081,1.0268843789973912,6.602846931225353,-7.8639439174107135,9.98563459557702,-23.661267451536645,8.0,4.0,-2.283101174348735
01-06,-45.63388961250661,2.144897527131827,6.841987447970883,8.367565258129238,-1.4975725061311835,6.023849563047563,5.273223359913564,2.8792918127757523,6.339409538971075,-5.285561344058948,9.489843915332266,-19.572061349208543,8.0,4.0,-2.052418032386093
01-07,-39.52134308926941,1.6531567605306736,7.056565452788674,7.95677875680845,-2.0745645049128134,5.642976288312053,4.852553049482074,5.034898203494417,4.792488755312507,-3.1719836061171733,9.326101224222759,-18.636534751023184,8.0,4.0,-1.4240756216975814
01-08,-55.16151452592003,2.4332452097492787,5.644418420350887,6.724921562637657,-3.5289766607550144,5.046603389922791,2.3656793958906444,7.8056397372879855,4.395713791262549,-3.216835929076478,8.575308091574804,-18.9422052158742,8.0,4.0,-3.1548335610790943
01-09,-47.212784707602225,2.942563264098728,7.035911146199053,6.8691341922405,-4.392762703801135,5.00149622132641,2.1554511245800496,8.6292014717343,9.809981444638648,-2.7821289089123096,8.186343556698708,-25.33853068640543,8.0,4.0,-2.424677048767059
01-10,-44.3389892578125,1.9863340122965034,6.212380500983893,4.870241318035772,-4.650478330987878,4.743342403034583,2.6001952131845822,6.954984769395899,9.772537922368002,-1.382371773335471,6.5458804185442645,-26.2592411937081,8.0,4.0,-2.745431999833371
01-11,-30.253911348485623,3.171115280329653,6.83702903328946,4.362235720057246,-3.465858375235565,6.260613257046006,0.6237089561056637,7.655457493649866,9.547883930365774,-1.880414332974408,7.087473171330528,-32.65578109301235,8.0,4.0,-1.892537358961146
01-12,-29.383172374590522,4.5054927747419,5.724021284320377,5.3152596423920615,-2.3588329429484305,4.936459050765934,-0.47517868328531676,7.000387288002323,5.88749396738223,-0.44198609122161814,8.391737386513604,-26.711116853397797,7.0,5.0,-1.467452962610438
01-13,-26.70920983373553,3.5007841688029493,4.522841146027764,5.659157259862187,-1.3583436811406564,4.791852281990102,-0.8038071215274148,9.024243095129345,5.651872710396872,-0.15455976866805615,8.268108245834394,-33.25770815099734,7.0,5.0,-1.7387308040021152
01-14,-22.36402505158421,0.790014208827941,4.982857840401786,5.424852960605145,0.3462446851122764,3.2047092485466395,-0.794923440422687,9.075895087859246,6.534864690815964,-0.4910827055422454,8.416421981921083,-33.989884541778395,8.0,4.0,-1.572004586269788
01-15,-20.588234313946007,3.28866007577075,5.293709119246105,6.648284174931657,0.9751306113273217,3.301054482022507,1.5237266201569204,12.484525610564075,5.662048506988362,-1.3908192466861642,9.278722411889163,-34.825207638804315,9.0,3.0,-0.6956999655449687
01-16,-25.54545547022964,0.4031547766293264,4.158986732061458,6.020494632018943,1.688806753458754,3.7145376620664057,-1.0837616519742703,12.545350064584701,7.756631703008587,-1.3908192466861642,7.895446663933709,-41.724139599077446,8.0,4.0,-2.1300639150171365
01-17,-20.21857961466924,0.6342760466988604,2.7245022136574746,6.020494632018943,0.1757716427685965,2.621033022676074,0.8344915480116986,12.5620498222175,7.756631703008587,0.4694027392470735,2.1152440630643747,-36.415757684150385,10.0,2.0,-1.72670332212087
01-18,-16.573438478379416,2.5341398031523212,2.7245022136574746,4.035011493363575,-1.0120259341094617,3.041440349902491,-0.3960262153603079,14.079356580336643,7.064589013305328,-3.613935007812318,4.180676656507084,-52.742055552583125,7.0,5.0,-3.0564804231683094
01-19,-13.17518312235843,2.5341398031523212,3.1922308637747108,6.279364899342359,-1.183556411556883,4.021017601485859,0.6444851643758439,14.079356580336643,5.9061982091907606,-3.054034740198625,5.948624295321058,-52.37230114332873,8.0,4.0,-2.2649715000385924
01-20,-13.17518312235843,4.203338988810019,6.654431858725609,4.989847581663627,-1.3487678150999085,2.6439862498891715,0.6444851643758439,12.278401549895639,5.254089363584051,-3.1443186011402178,5.906224492007195,-72.64125418376881,8.0,4.0,-3.977893206118017
01-21,-15.633029847415363,8.71176950224269,6.071344173540552,6.489516528510764,-1.248145404005159,2.6439862498891715,0.7010976374458817,15.97806500285893,5.0487845471842085,-2.5735620065395004,5.838297453997649,-72.64125418376881,8.0,4.0,-3.384427528838249
01-22,-11.937329411838865,7.716005101929908,5.928184445269947,5.961884867376626,-1.248145404005159,4.099200578952035,-2.2903161234943736,14.453625016735277,4.058198082822609,-2.483547088061883,5.838297453997649,-73.01152883988628,7.0,5.0,-3.576289276683543
01-23,-12.964563868320736,6.719611026734941,5.426267428780462,6.17165667756804,-1.7020135088063486,4.031018733739951,0.5457085537950592,16.328403782677512,3.8465248309165303,-2.89600977633787,7.913730975651697,-64.91641348290244,8.0,4.0,-2.6246732188752673
01-24,-4.999995876002957,7.524604074292858,5.629815688068018,5.9910765096824585,-4.872898804403987,6.929063833540962,-0.613882742304295,17.05207242535015,2.3501169767311287,-4.379118584294978,9.250708651817433,-57.81484650293904,7.0,5.0,-1.4961070292051872
01-25,-6.1765463572247645,6.648324092667,5.3239658056547405,5.013810549506051,-6.060164315060269,5.186069004852312,-1.0333060332136517,17.05207242535015,3.0407656296837526,-7.995689265192839,2.989973163753721,-69.59999873720366,7.0,5.0,-3.800893669702288
01-26,-5.341641401710904,8.344794526985131,3.9533279474716005,4.442768173507665,-4.563448082907342,5.018920993853777,-2.4094221201951638,15.713760999900812,2.6476813226344977,-10.95176972609234,3.138427691923531,-49.859834870339355,7.0,5.0,-2.4888695454140075
01-27,-6.100867502266012,9.047840372964634,5.3676162830963055,4.901232132939962,-4.44643913189737,3.7918182248004797,-1.573316503807255,15.5134685490286,1.7053707070505852,-6.825694066664944,4.300483237228954,-43.46050682288277,7.0,5.0,-1.4815828767007362
01-28,-10.92732826079289,8.780343029075906,6.943200933543077,6.225764818584984,-4.44643913189737,4.190962046557697,0.3236542295124433,15.622139588700554,1.724138817943554,-6.844782219686742,5.795789223009098,-44.708902233282515,8.0,4.0,-1.4434549298943506
01-29,-1.7308240751452824,11.185105832878268,5.705972959096339,6.548983479180906,-5.237246063923242,3.7865692848058816,-1.992771622817357,12.693891316243208,2.800802521879362,-6.844782219686742,5.0872078315511775,-43.997199261788644,7.0,5.0,-0.9995241681438435
01-30,-2.1195723102315056,9.48905333904918,6.96544631159732,5.602445270081214,-4.618026523018835,2.56423819007719,0.035881695660955566,12.623404931782822,3.535972376354142,-5.7546194274606925,4.569402884837049,-37.15463199689452,8.0,4.0,-0.3550837715138068
01-31,-1.6815914416689948,9.886453129876651,12.144273416884733,5.486386384484783,-3.3353297926202217,4.428487530192107,0.33854948863110956,13.547981729473413,5.445773555494871,-6.094182353363055,5.621194692694942,-40.988230985753674,8.0,4.0,0.39998044619388945
02-01,-1.598916336559251,9.886453129876651,10.340871611995716,4.135891769816705,-4.94250783673351,8.575421803441154,0.8025173417015726,14.575518289172049,4.925781648697987,-6.956443976503948,6.290427864573293,-41.22439353327107,8.0,4.0,0.40088514801727965
02-02,5.016466888776675,9.250574023836062,11.237359267177291,6.155292339191931,-3.56290895111749,10.053907818259317,0.8025173417015726,16.85433454260485,4.4188932600395265,-3.5931919274715294,6.9690063031008265,-45.14353893852305,9.0,3.0,1.5382259972979977
02-03,6.25792030482009,10.355796595384291,10.093478314000752,4.780795078451343,-3.9269952158920596,10.336611557059436,-0.6029975396098451,15.004468888809042,3.939854698808106,-3.436173237851959,6.98529050836917,-51.88383685682313,8.0,4.0,0.658684424627103
02-04,7.600709164474047,11.72783150564229,9.726603731247312,6.961510063997732,-4.6865590442240235,10.149036586827071,-0.8468580823651246,14.162706267894306,4.910547746664028,-1.6336930901907576,7.261301764588756,-53.37338805283983,8.0,4.0,0.9966457134763177
02-05,10.439951175502857,12.270676462273848,10.778320816798313,5.016725581571901,-4.257077941921407,10.159177655983516,-2.6329805874300636,17.894083418400406,4.629186436498815,-1.0741063557834756,6.606737278627363,-56.28990056861861,8.0,4.0,1.12839944765862
02-06,12.208263630501023,13.807528566337313,10.648679085330997,5.016725581571901,-4.226944363135263,9.347923901648583,-3.2561046245978256,20.090917572891,4.838096981956845,-2.8612673912353346,7.400945384376188,-54.04433969922627,8.0,4.0,1.5808687188682644
02-07,11.316923615147301,14.67455383559356,10.70429097833825,4.609117525129039,-3.0395873859151914,7.696198242044849,-1.1595781327984205,19.545902108630994,4.75237891787573,-3.014709188816792,8.826088283372963,-52.443118419908096,8.0,4.0,1.872371698224515
02-08,8.271030323902563,14.48479923663067,10.040452170400831,4.2537622092838285,-5.42777604734916,4.734041695605703,-0.8537187549316159,20.012491023140726,4.6666681198846724,1.226824697457997,8.785663321639042,-39.547504585519015,9.0,3.0,2.5538944508455192
02-09,8.271030323902563,12.290581876810771,10.289394690935527,2.0123503263369598,-6.009896796257818,4.451951856737013,-0.3051352878906357,18.816919720500607,4.882682201535908,-2.7242009082738923,8.46153861543964,-32.71490201977528,8.0,4.0,2.310192883333446
02-10,12.640186784694116,11.415859594702093,8.899763796104649,5.6703697502948085,-5.050895224510689,6.009509744447061,-0.933091834250429,18.504644141982432,5.195664288233252,-3.986864996120918,8.365416223933012,-32.71490201977528,8.0,4.0,2.8346383541445093
02-11,12.71027739177735,11.335199070141574,7.300188118117836,3.363393282700597,-3.48284740372833,5.3809589902017505,-0.9242454750636713,19.293014962055814,4.707442398937194,-3.2801764466848704,8.859878302858805,-33.87858365465185,8.0,4.0,2.615374961388517
02-12,13.879171707919308,12.114152093556728,6.793769129737955,1.0967472548594002,-1.3292687044805933,5.074356283246303,-2.053955731200997,17.929001809414274,4.950028399821141,-4.300882714254875,6.344648232128542,-34.32869198552551,8.0,4.0,2.1807563146018065
02-13,19.47965732364171,10.843375362005858,5.620738217138426,3.659825524609639,-3.3046166844077756,1.4371503947356206,-3.167757852924168,16.17120120813319,4.950028399821141,-4.8316241199457135,6.100959132408373,-29.04124376377694,8.0,4.0,2.3264744284532792
02-14,23.820074774150573,11.409207346315519,4.096671634138298,4.252172872362103,-1.0101005620836225,-0.5750114631831307,-2.7266038875718404,17.106427551962813,4.233450845865811,-6.442167820431083,6.339499405910503,-23.649278367772784,7.0,5.0,3.071195194138596
02-15,22.093813197399992,11.638618499003657,4.248399600694989,4.865663665723078,-2.304586707998853,1.0447609494113195,-3.461133162516462,18.042545745141616,4.299450936791276,-5.58887811224208,5.614185077366087,-27.380445604526493,8.0,4.0,2.759366173687345
02-16,22.637258932198908,11.638618499003657,3.8690796843032995,5.607766397288559,-3.2486337440266646,1.0290152516668283,-3.7752460376462875,18.042545745141616,3.1315448238921464,-5.600003329190341,6.645486204729006,-28.602220771275128,8.0,4.0,2.6146009713404665
02-17,22.637258932198908,11.07754355675095,3.286842886519512,3.760967852288787,-0.8621357382379319,1.0290152516668283,-3.7752460376462875,16.834459241715816,1.9632210862966089,-3.2477453626529083,8.167228077975762,-34.86663348064123,8.0,4.0,2.1670646888529017
02-18,23.289826269032808,10.92786803347307,2.7091226064679312,5.087719533068465,-2.5000097960508527,1.0290152516668283,-3.9468478250871617,17.30853141653491,2.2677667743522036,-2.0516445501038953,8.167228077975762,-34.86663348064123,8.0,4.0,2.28516185922407
02-19,27.49945811609718,9.658767735914433,4.737938352087487,6.477522223308367,-2.5000097960508527,0.7797174084873282,-3.8588754134509373,17.095796689695963,1.6612544388559678,-1.9524684484539128,8.167228077975762,-35.081365402887286,8.0,4.0,2.7237469984649585
02-20,27.86487633356475,11.581193172148039,6.527809610153813,6.600995145142121,0.6722050080638786,1.5028987159780542,-4.426105976030214,16.44060369701674,1.9047619047619049,-1.9524684484539128,7.3141921879254,-34.26321547992967,9.0,3.0,3.3139788225284086
02-21,28.038895781566474,11.844913412173657,6.527809610153813,6.600995145142121,7.515103109929029,4.807987202385332,-3.869471671113585,17.01415813970294,1.9047619047619049,-2.1468329823861607,6.184515013184911,-27.4354375450928,9.0,3.0,4.74894976003397
02-22,28.780934100841577,11.944954495839243,6.527809610153813,6.773634697125375,6.547064943451179,4.0805888305877485,-4.157675540420212,16.67097314120519,2.0857166108630816,-5.673113147874006,7.024860775962773,-26.531282737410056,9.0,3.0,4.506205481693811
02-23,29.49183613279715,12.824510391248662,7.07536652466742,8.7128743086711,9.230233171937071,3.9926646534535064,-4.45671902327572,18.264837601431925,3.544236321439873,-7.890140645890901,4.196518473722795,-30.97374598928001,9.0,3.0,4.501039326743571
02-24,26.315793572962313,11.902396998029612,9.08610522963759,9.497485101816524,10.013811943648301,3.9633207632938845,-4.5803933990908074,17.566984960160784,2.482541837080933,-7.944527685600562,4.506038877738286,-27.97823585391916,9.0,3.0,4.5692768621464745
02-25,27.4500947962616,13.081848578945163,7.618342277019577,7.989307518220147,10.125529803000816,2.8171159925243447,-4.0945249657115195,12.017050374830497,5.147676213333999,-11.118466965557362,3.703703461445328,-21.716440129751362,9.0,3.0,4.418436412880102
02-26,27.640966669730727,13.652302772327488,5.40511937842525,8.882350547640918,8.483931172734506,1.6148742331448245,-4.409417053202846,13.278556811655928,7.552790804576165,-8.945125854249296,4.432440154319942,-21.116905415243796,9.0,3.0,4.705990351821652
02-27,31.67619865493737,11.79298643754319,5.948711178747544,10.780451113501972,7.118217940097095,0.4215680883178684,-5.405045656790042,14.271758359319689,7.268289432204692,-6.8872826236009255,3.8323055933587638,-14.438798254004737,9.0,3.0,5.5316133553027065
02-28,31.77378662646637,9.54176059123384,5.576924472008818,10.790052857196217,8.338438291904751,-2.5080379851977717,-7.629608503080029,14.988994993424129,7.286389217196384,-4.226923715317213,3.0814486247806543,-12.626697599965548,8.0,4.0,5.365543989220883
02-29,0.0,0.0,0.0,12.402801570555239,0.0,0.0,0.0,14.56766032009155,0.0,0.0,0.0,-9.697914123535172,2.0,1.0,1.439378980592635
03-01,30.52729012615408,10.783748996405071,6.260684514831211,11.936891667819559,6.982678278213002,-2.919515486630808,-7.6734928714096,11.868303643020754,6.507967254650716,-3.166205904117267,4.286559313314326,-15.105476027447843,8.0,4.0,5.024119458733602
03-02,31.912960918460165,10.469107389186632,5.972218407072073,12.455047516554904,7.774457626451943,-2.10362567802785,-6.990142191695639,12.08956216565691,8.006113387376432,-2.111696539334379,4.909913730708108,-9.835211280045845,8.0,4.0,6.045725454363622
03-03,32.45693572416523,9.982837135336876,4.673891602300895,12.941842829394801,7.849669090436584,-1.7766772689588064,-5.567806283088211,11.057900117509064,7.083028986421276,-6.497926956255595,5.225531395445479,-8.875680413024956,8.0,4.0,5.712795496640221
03-04,29.918402482216322,11.692866740797339,6.443433603151883,14.405827762571008,6.618457859732002,-3.393248367887964,-5.927892279555413,7.156446752023195,7.54613758936361,-5.462031488307102,3.5593665600608504,-12.599084456715575,8.0,4.0,4.99655689645418
03-05,35.34619742223452,10.061107794114124,7.02220418912371,14.525608116610798,6.184570190273531,-3.0575345099881006,-6.269181956447299,7.074788986265077,7.554584982407846,-6.669192236132917,4.087642825673457,-13.013320991460084,8.0,4.0,5.237289567722888
03-06,33.16674291150484,10.844556221403149,4.972857662252415,15.654443881993018,6.714876174188519,-3.8932724375844314,-3.304385690538172,5.598171007687629,7.326007530743596,-8.854413670812733,4.26084534245523,-15.28408744118432,8.0,4.0,4.766861791009061
03-07,36.55913978494624,7.1856315115048,3.1751330522862102,15.523835255759474,8.762119397355917,-2.505387248661514,-3.2262340782200942,4.807066734826983,7.710621249317594,-8.80711156865506,5.92669207924979,-12.184730632207309,8.0,4.0,5.243897961458587
03-08,35.547302370638064,5.809992459937462,1.725851940621213,13.302234060436465,9.810876386372422,-2.251265340675894,-4.833464828312457,6.519932259349104,2.17032525954266,-9.946648754259279,6.800986301789227,-10.354602205324673,8.0,4.0,4.525126659176193
03-09,35.77182711954894,6.7289177907028614,2.588777910931819,12.207818443655473,9.211911065870092,-2.4709683331925616,-4.611569508507573,5.810846092083331,6.333605535653759,-10.573308119045228,4.29099477554761,-9.69594630006167,8.0,4.0,4.6327422060989045
03-10,28.826478533628052,5.587669170823773,4.199912461488439,12.918620197255173,10.07701495783567,-0.7849439043350432,-2.5309592614045275,5.2219543869298874,7.66099982610281,-9.650692108421735,2.760786351555663,-14.842342175927303,8.0,4.0,4.120374869627572
03-11,28.34748611202702,2.254824840884411,3.1972556800121,12.599761082696363,11.1898934373142,0.618904574987792,-1.4095877419528184,3.0468059244282073,5.3029604203787235,-9.167602879002224,2.3855408449303894,-9.200448072263423,9.0,3.0,4.097149518703394
03-12,21.472672051091994,-0.5800325149266173,3.7686267390556463,12.129512750032994,10.313265478243636,0.7698494198489542,-2.1297377653903724,2.5130347322071223,4.793693316728111,-8.790280956989045,2.517098054450807,0.5090737952252283,9.0,3.0,3.940564591631538
03-13,26.2075154310983,3.875389202626408,4.292876981705746,10.977916381722636,8.779164090996046,0.6979799906805398,0.4977076509319386,3.669645332453343,4.793693316728111,-8.425965797222187,2.359230741281817,-2.402695155268277,10.0,2.0,4.610204847311202
03-14,24.345434235023546,2.9203709656690813,2.3891561028078683,11.572590007265005,7.594856146356692,1.037530941304817,-1.2096951470768575,2.4948802372541583,5.674543536183739,-7.463799753379218,2.834866252749912,8.847600267644768,10.0,2.0,5.086527815983626
03-15,24.605173581827952,4.657009985663846,3.5448326344455245,11.434790110117135,8.324142882373579,1.7301022440619582,-2.490086953140912,2.476257752798793,3.5326820700029673,-7.699555293517064,1.9689942324794165,5.9454516121982905,10.0,2.0,4.8358162382759575
03-16,21.365483154318486,4.435245456934639,4.967220054244257,11.027669773063426,7.904183852016941,0.8951545298725405,-2.07631236082446,0.7540472653144367,3.5734192914630944,-14.437916913212161,0.26966566450139173,2.1604935196787034,10.0,2.0,3.403196107280941
03-17,18.906656205162054,2.572439206786618,2.8424874020588904,8.397986260135577,10.018488425272706,0.30524565129164066,-0.8251999382066161,-1.7769129221958737,2.45519493593968,-9.954355519556056,0.5467915235756228,1.9230711755326833,9.0,3.0,2.95099103381641
03-18,16.471706401806998,3.0548082551923974,1.1416323299361673,7.555295750289873,9.822966062042722,-0.7122553788474181,-1.8811027542047178,-2.061860019268677,2.2318981174162227,-9.890325693621046,0.8844072463570308,13.43779674962788,8.0,4.0,3.3379139222272864
03-19,17.236504125422844,0.24580740776857535,0.06771065913849948,7.164620064400337,9.969966116068216,0.7122476159306231,1.1494776432400464,-0.6749220625209674,1.7130657336847737,-9.391305527249397,0.929069941794674,10.945682829469678,10.0,2.0,3.3389937122623246
03-20,17.748818822402974,0.9679361207853353,-1.3040487457404455,7.685503385576628,9.880492486262995,-0.056517806911555675,1.1394041538283526,-1.7568425529275284,-0.08532075751466044,-9.999998525720862,1.0005384332274516,8.28347572470911,7.0,5.0,2.7919533948314825
03-21,16.061709475853004,0.22854472460997885,0.5837497325686422,7.479116078969595,11.738996726055467,0.12285293428245254,1.948642507566293,-2.349844923716811,0.9480469929604588,-10.096615408929663,0.24796208274636589,21.06695568380765,10.0,2.0,3.998343050564452
03-22,17.151813420474014,-1.7402155623999573,1.1113667184714078,5.9585224891940065,14.398133747458388,1.443576142208432,1.5478989227158628,-3.2427831262661577,1.1661009838721637,-6.608556320727736,4.54504281491835,22.226990934753864,9.0,3.0,4.82982426372272
03-23,18.681318681318682,-2.6258583365122474,0.8980725587265523,4.007786111686345,14.75232301611451,1.2673083430931154,1.0920369021024643,-2.584829416088492,0.7306164223604903,-4.316347346751652,0.63114935832426,24.471297412785532,9.0,3.0,4.750406142263297
03-24,19.58241724705958,-1.6625228164651722,0.28111998104361846,4.149082997219187,15.760666079637552,2.0084148155669213,1.5026371784709704,-3.1332805544469813,2.7546166484920813,-6.569553085855133,1.7798187535837025,14.52234099618958,9.0,3.0,4.247979853374659
03-25,18.94505259754895,-5.084472057002321,-1.5786477472708071,3.878700777012988,15.017456809782903,2.180860725105511,2.826185370598026,-3.003485988987841,2.443148392084643,-8.838977334673448,1.3090023547174499,10.709447867564695,8.0,4.0,3.233689313873396
03-26,14.923078935224932,-5.391611329012212,-3.138695449303161,5.347221454825571,14.922252815127903,3.4285107113728475,3.3328920928370005,-2.7905677085285996,2.6991540166725647,-8.976731869231388,0.11062199748204671,6.49025509551605,8.0,4.0,2.5796983969152962
03-27,16.4206217185632,-6.8747008627551995,-4.014892279750605,5.019846264677285,15.315775573095603,3.874828554343291,2.7352393362709417,-1.5218999231042438,2.917526346879883,-8.957262836766535,-1.474924801446209,10.610996662611136,7.0,5.0,2.8375961460515455
03-28,17.387411943788617,-5.689490270131092,-2.3474125493883653,5.972226279963335,14.985718916549503,2.8214964974338517,2.050698938948587,-0.9970474834725213,1.8421555785754717,-7.068447279665111,-2.9867236020531003,10.667500627652153,7.0,5.0,3.0531739665167774
03-29,18.103068509572708,-6.304561085352278,-3.732960538742,5.069444896472573,14.471501249467774,2.715475148300528,0.9835902062157365,-2.0771787355419558,1.0940768390022155,-8.655437122861777,-5.6637362563585265,14.080001831054686,7.0,5.0,2.5069404117691403
03-30,15.84113723775697,-6.77336307802283,-9.847702157110136,8.061414724087564,14.455141174688372,2.3521040370326927,2.029324390708894,-3.3050238562969168,1.5990265994332402,-5.619514279249252,-6.004641504132831,16.052760674275984,7.0,5.0,2.403388663597646
03-31,15.772653802345745,-5.722600841576699,-9.023241827776797,5.330490389351264,14.727005592884884,3.3907581953222534,1.5710945767237607,-2.9265123503289376,1.711721792507308,-4.7001939445186744,-6.241278905352562,18.31949221253861,7.0,5.0,2.6841157243433464
04-01,9.906414098479805,-7.50080721608009,-9.184845166647088,7.059941271809198,14.602165213342339,1.8027468715862984,2.042416290585306,-5.0232161702931775,2.014170156417518,-7.145686020667489,-6.56839046042378,21.944308177153125,7.0,5.0,1.9957680871051637
04-02,4.626901584185195,-2.811494751904617,-9.897488052351216,4.478781278483849,14.90133848033347,1.4931363261743276,2.715170696327135,-3.3057127235048944,1.3148022931460053,-6.73370976092384,-6.587047526116498,21.346449886012504,7.0,5.0,1.7950939774884518
04-03,-0.20238396698311298,-4.448257355542528,-8.78241396115599,6.4345801814954156,15.518780353673659,1.8059725785136673,2.040280563326575,-4.188337781805964,1.203458792733683,-8.626639035466416,-6.904274589297193,20.891116599092456,6.0,6.0,1.2284901982153542
04-04,3.8444839760346716,-7.00351325439541,-11.214840350350688,8.155685305164198,14.336897199239509,1.9096305202421475,2.100160496105521,-3.8988691920635232,1.494926624822159,-9.228039615685518,-7.2361080667758575,16.19425853572166,7.0,5.0,0.7878893481715723
04-05,2.9804965560298284,-3.3832762219023143,-11.053476373631757,6.912220956229239,14.243867453860318,4.576678902305364,1.7656073512801205,-3.195033192245828,1.2786767605745948,-10.65200177868012,-9.851884766618173,19.42894349131805,7.0,5.0,1.0875682615432771
04-06,0.7399058915862841,-4.433794173255018,-11.12263864485215,4.759497906272394,15.270080272403892,4.288119097828263,2.5088065283917156,-3.796997913186141,3.5635827121112786,-7.2345820006573955,-6.142144017034121,22.430160264421918,7.0,5.0,1.735832993669243
04-07,4.035872866912735,-4.202060018921984,-11.48891927149507,3.600283076532186,14.398281428674183,5.292844723745635,2.2131446911204913,-2.227360194161737,3.957612017436655,-7.009665414218472,-2.4080229732811373,18.43660808651602,7.0,5.0,2.0498849182382926
04-08,3.8789228731479524,-6.207006375125024,-12.257148234203456,4.788360406162197,12.36082929923409,5.572451965240859,1.6783340658976367,-3.8636609388456575,2.371723588361357,-6.936585961318597,-1.8246578367600192,16.412967210750615,7.0,5.0,1.3312108385451629
04-09,0.06666395399307135,-11.15067047671306,-12.889422311488879,7.425594479798341,11.560778026286542,4.007651400218066,0.18796517311693065,-3.2926354681453955,2.389736485999893,-5.465217250550623,-1.717846311871861,12.553999489588586,7.0,5.0,0.30638309918596773
04-10,-0.199822714827824,-13.830136927586608,-10.807658850663078,9.54719718474512,10.220682225225577,6.492733240906818,-0.3805253460207275,-3.6281003840607737,1.9100580322104057,-6.1868568135235185,-2.2696956710196883,17.788501260139004,5.0,7.0,0.7213646029603922
04-11,-1.8965909578326365,-10.880409150680675,-12.42155816724683,7.140749255869873,9.030213047066207,8.349185557544095,-0.6532179721638612,-0.6579570770733086,1.6597134361173358,-5.147694081027209,-1.3541010781694036,17.3897715655699,5.0,7.0,0.8798420314977906
04-12,0.8567649071320148,-11.274429913486918,-11.024281260417562,5.6053810658631384,12.051380318624243,8.068842573501781,-0.14830810813113413,-1.7936057214065222,2.5869271719988,-6.741686705329963,-1.4124051588067428,15.921735913933965,6.0,6.0,1.0580262569562582
04-13,0.2651910096901055,-11.985142952560917,-9.259917083972127,7.677468230172534,14.798730277296135,8.377067656713432,0.9875834469121955,-2.9562924731052527,3.243143123965645,-5.616897156422511,-1.8183423744671463,14.086574175885112,7.0,5.0,1.483263823342267
04-14,2.475135761071321,-12.275888075512658,-8.479938478053088,4.962728132629348,13.469382670957227,8.287941653242235,1.690528759013255,-3.694649841328919,4.129901667355485,-7.5435353746459946,0.3252009057596412,14.902787842590703,8.0,4.0,1.5207996352565465
04-15,1.7900582835160723,-10.123189660459433,-10.153371600946477,6.961113676218757,12.924806161821628,8.302532498770601,1.98809751305694,-5.593189976048156,4.312692960162147,-7.959043717691324,0.44447957309299957,18.855463486763412,8.0,4.0,1.8125374331880977
04-16,-1.4521448544182973,-6.761353759414257,-9.005252124928429,4.916104362866598,10.864520853291333,6.794747473727944,3.094151597588472,-7.484443658527337,5.539123708953881,-8.199412721280146,-1.2052343686263556,10.707107567415477,6.0,6.0,0.6506595063874069
04-17,-0.35453100736830667,-9.567656130195292,-6.888888175027412,3.5030980236791964,12.28883963351006,2.023772020891604,2.846730713675643,-8.096748244947165,5.479821175203195,-9.467568722526256,-0.34191087544484555,8.186559007846848,6.0,6.0,-0.03237354839189418
04-18,1.7962731326740262,-7.04482309879982,-8.836486913276218,3.375529700510902,9.415862673850395,3.784212475962771,1.3774616330949294,-8.563118568959743,6.062782184960074,-9.574055273447685,-2.5233058385390192,11.724805069703256,7.0,5.0,0.08292809814448932
04-19,-0.27861372819832864,-5.500444818690642,-10.920564529757819,0.7468574295163706,7.956838943944608,3.1918091074570754,1.8620721225080819,-9.313449680523558,5.829596412556054,-5.463640203152079,-0.5920161252207812,13.039331217601394,6.0,6.0,0.04648134567003126
04-20,0.1156407257558474,-5.816054543634598,-12.587828440114567,2.736699146173017,8.045607270185934,2.9480032505267655,2.425646589071401,-8.863249582447713,4.446637586967512,-3.3118291745361517,-2.0099169515878845,13.130546306684204,7.0,5.0,0.10499184858698045
04-21,-0.9250640510054295,-5.936274261938665,-12.519318396011201,3.598011726462552,8.315771644245789,3.4628435476059387,2.6956344325233106,-3.0852683994056678,4.695934732577252,-3.695235479445671,-2.232296435107523,16.07704793437805,6.0,6.0,0.870982249573228
04-22,-1.942645975904771,-6.181977193923585,-10.241888265694136,4.869088485671547,6.888496622766842,3.5512529385479783,2.9742018300868884,-4.631172233404731,2.7900265116480147,-4.5616058055202595,-1.3660679159893143,14.112713515915488,6.0,6.0,0.5217018761833301
04-23,-1.1877087856105588,-6.9156806596118,-9.364391866349226,4.743491829374693,6.077703332991874,3.580722735528658,4.133770663024924,-3.855377583259411,2.500448342290525,-3.5571598682525183,-1.6946213232005742,13.31162781997902,6.0,6.0,0.6477353864088005
04-24,-6.16534191607559,-5.8524229980404066,-6.497203613513481,3.8098838934805874,5.96095385000621,4.285998750884704,4.812450234950211,-4.201370551637842,2.412358295612003,-0.5991984564154327,-0.847307363401124,10.586196710092146,6.0,6.0,0.6420830696618322
04-25,-5.6889076825860885,-7.9035706939524415,-6.485072464032743,1.763488052090547,2.112205577205273,5.665547823103387,6.55411291968935,-4.443002526666422,-0.12649023243803756,-2.6060470607528687,-0.2951613253620559,7.398474297690193,5.0,7.0,-0.33786860966765886
04-26,-6.070827655168647,-8.632876925206242,-7.100528275150703,-2.7338440751962434,2.6662198679894367,6.312078193810904,6.648911829315191,-5.324186646089471,0.1806983625684314,-3.259821473636191,-1.499093536955644,7.416339338743624,5.0,7.0,-0.9497442495812961
04-27,-2.4668315766373614,-5.9293405542643685,-6.678824655831588,-1.4108851005448446,-0.23180502703681127,5.693738673150468,6.395692202147081,-4.804749487505061,-0.6511723095689113,-2.418898782061442,-0.17963993304667955,5.771493337197443,3.0,9.0,-0.5759352678335063
04-28,-0.6283464046856756,-7.4039935603689395,-8.194457049035165,-3.8586755768877907,0.5479250142467317,6.357900876602389,6.433842408024969,-1.3936301073109107,0.7589482878289031,-0.7325626853726422,-0.7224597845855779,10.198272153270857,5.0,7.0,0.11356363097726237
04-29,-2.676280378199248,-12.882264577390082,-8.61633110520476,-2.3337238538919105,1.3288561929792366,5.609625447364529,5.836231300319921,-7.4564351040662595,1.2272158582356327,-0.04724125625838969,-1.367611743918607,5.88928166642516,5.0,7.0,-1.2907231294670654
04-30,-0.47901250853499355,-11.78713565323886,-8.245168174369903,-1.7008063874574901,1.248322557282928,5.306404870514084,5.911329378930068,-12.7165823405612,0.9322099730392022,-0.7325626853726422,-1.7051858751132885,11.618171842002562,5.0,7.0,-1.0291679169066277
05-01,-1.0328225065214238,-13.34075285589749,-6.4096746864431635,-3.4402758437436938,2.5503376186294044,4.906704685340016,4.859758076888351,-10.620525620988392,1.4495368819439973,-1.7220031853139348,0.051932449777279524,13.843743366109203,6.0,6.0,-0.7420034683516538
05-02,-6.019150371432875,-16.85245701524078,-5.597933473117109,-3.585232860570916,0.3690552615331689,4.346978800939621,2.1438544923616147,-8.537418462658733,1.4405316273676487,-0.5708291034506987,-0.7507142559013217,16.461420250588233,5.0,7.0,-1.4293245924651792
05-03,-5.922547571184942,-17.993707928059912,-3.3206182462868536,-3.5748762784948673,-4.009285547683271,6.785626895549732,1.9220727053625226,-6.83969390412929,1.6836254179526733,0.718882072885975,-0.7882770766534063,18.13124285328717,5.0,7.0,-1.100629717287873
05-04,-5.922547571184942,-13.342164200711034,-1.4022885444905655,0.4240525499338313,-2.2365885279072186,6.209901935651102,1.9220727053625226,-5.951798810874474,-0.2188762977015449,-2.5739883182668795,1.9725165574200427,18.13124285328717,5.0,7.0,-0.2490388057901658
05-05,-4.25967851227161,-11.68680912286652,-1.2340122073737052,-0.7350157926018177,-2.2365885279072186,6.209901935651102,3.425732447138911,-5.942047120910325,-0.8299097310090656,-2.3908181309947802,1.9725165574200427,16.773525669467524,4.0,8.0,-0.07776687802145539
05-06,-4.624142844505819,-7.184241290432346,0.44057883230012834,-2.101246076181146,-1.7976875790613145,6.410992698706715,3.220885334298092,-3.994235210530644,1.391413961472945,-3.43786401325024,1.5242573276172848,16.273802474208544,6.0,6.0,0.51020946788685
05-07,0.11420566115730026,-4.488127293543801,0.6205767058176024,-1.9260148029753323,-2.7770320222695615,4.845348600791827,3.4721014325710833,-2.793729326562828,1.9708889731004697,-4.127450082816329,3.07392443559018,15.035259137930776,7.0,5.0,1.0849959515659489
05-08,-6.097270704121575,-10.764399332865663,0.229532286999682,-1.5541618282788232,-4.064929892784183,5.77504628692296,1.194894394333646,-4.6663427611540085,2.0328875982979033,-4.588235593309589,3.4465236862051705,15.668833213264977,6.0,6.0,-0.28230188720745825
05-09,-1.2087411720838837,-10.782686288840695,1.329589588726064,-1.0106838441529087,-2.8945798095175923,6.442714269595834,1.2467398589204957,-4.341071348656421,2.5569225002273033,-4.950983384076273,5.206587573313123,17.71022895058119,6.0,6.0,0.775336407836353
05-10,-4.6131716312267175,-6.373865011127136,0.789107491164658,-0.22751492845226226,-1.12190443144592,4.304636246528353,1.2124080242188646,-5.5938642982868725,2.5569225002273033,-3.209807538296119,4.849102462782297,16.602103213423344,6.0,6.0,0.7645126749591494
05-11,-4.112867607017218,-5.327414977976126,2.7240343900867545,0.35994814295389704,0.013045104894095159,3.5735006192426755,-0.4995600787170043,-4.3216440667065585,2.3534792325876017,2.4951453347807946,4.407971622689906,15.074671614295882,8.0,4.0,1.3950257775928916
05-12,-4.471542194000054,-7.245916786010785,3.919892422026698,0.24184965982141887,2.120994116987625,4.046772863879741,0.7559644023644116,-4.328835423968623,3.495493021097256,0.914161821575241,4.0451978114943286,17.695128910754356,9.0,3.0,1.7657633855018011
05-13,-0.16738329826645634,-3.937741290734458,3.9622247254159437,-0.9594706900232546,1.8136290015574645,4.855168530977073,0.3536706730994503,-0.3574090053693648,2.7031896821550885,1.7461849024478429,3.6045433932129396,20.87912379267538,8.0,4.0,2.874644201428971
05-14,-0.7124180306632277,-0.727319051891311,1.8278430905548395,-2.220465458119545,-0.49346597384746704,5.418154830520396,-1.5625019049780038,-1.4539002372046803,2.694419961141446,0.7518060523343374,3.3359379441555452,18.186144154314157,6.0,6.0,2.0870196146930406
05-15,-0.6199383517978865,-3.6688680026201554,1.368943515222574,-1.2886628540364882,-0.2755754633889279,6.152656610438691,-0.826803251197712,0.4967739662310625,3.4513529214497054,0.6939770801957832,3.006672827827304,18.796713914885068,7.0,5.0,2.273936909434085
05-16,-1.1705350925009372,-1.2092467371580815,1.4566858157992857,-0.8624135311944297,1.5693195891259861,6.090466876552339,0.913929848590595,1.1966726445473004,3.9610093176303143,0.24096385542168677,2.655173992288524,16.02669520888937,9.0,3.0,2.572393482332663
05-17,0.11329987729518814,-2.4798607978346556,2.7910620790757514,1.7981374151982144,-0.7037346354012235,5.745474249446103,1.823828127990115,2.2471901498502986,5.686689189207626,-0.5489284902938287,4.502737723203301,17.78553753085698,9.0,3.0,3.230119368216156
05-18,4.381771605047596,-1.7203978116927914,0.9451778841728453,5.59318655324702,-0.04458377156546773,4.631253349644214,1.2950991413637807,2.8135578667301533,6.236656620166051,-0.9231648275734331,8.469969669737514,20.558730070747764,9.0,3.0,4.353104695835437
05-19,3.1236413760780546,0.24797898487185277,-0.5426832939457022,2.53598003284381,-1.433738874456349,4.737839699738697,1.6968717331071046,2.752460590415268,5.381205257626643,-2.598413559975842,8.578702368478734,19.373811618890578,9.0,3.0,3.6544713278060708
05-20,1.3015151713246123,4.705877976216848,1.8066188806375374,4.407948198366009,-0.12750028526328414,4.907911547809527,2.1499460992226926,2.8004005240242846,5.789660914069823,0.3605017262219263,7.606554069252486,16.978035302280624,11.0,1.0,4.390622510346924
05-21,10.635278323081703,-0.36823494333591517,2.310895551257087,4.463001647873038,-1.3260243675642465,4.188733854129708,-2.4995512221188725,2.6258029885168064,5.781318243230385,1.611242361314403,6.526027416619375,17.499570904484372,9.0,3.0,4.2873383964573195
05-22,9.947538677496247,0.9975908790989354,2.891073804818657,4.73174027224763,-0.43988425265932013,5.464608094122867,-2.4999982939637153,1.799222179054518,6.3204228887480465,3.662766896589578,6.971955416228909,14.032890001489998,10.0,2.0,4.489993880272697
05-23,10.763132255816844,4.811263365899097,3.010626589759636,3.253670515609128,1.9624996185302734,5.101408869350325,-2.2643231130187615,3.2718336036176217,6.07394508676051,3.7845441831637876,8.700854961688702,8.583965117506905,11.0,1.0,4.754451754557006
05-24,10.727741056263405,5.046302651944436,3.827642112311691,6.93104876713658,1.4639367789920341,5.092217907934119,-4.7592658436847675,2.063070679133291,5.862672642757168,3.6563581276107495,8.305677779594982,9.222951456385989,11.0,1.0,4.786696176364973
05-25,11.290639492091273,3.9814841196750645,2.260768525532173,9.371979193632294,1.502531747748987,5.706537270160437,-4.875570775288807,1.5541207883703148,-0.17803826764704958,1.5238080705915178,8.071821341038184,10.458452966743478,10.0,2.0,4.222377872720656
05-26,11.290639492091273,4.537040590967221,3.2007165763131473,5.101581513208945,1.1311525146268813,5.796206829401919,-4.875570775288807,0.8195961135122289,-0.8178951722509256,3.2276627031716245,9.625081570580386,10.458452966743478,10.0,2.0,4.1245554102564475
05-27,13.67487414129849,1.3787934274384686,1.2817622648475686,3.1871768259806594,-0.15915456906403921,5.796206829401919,-5.995007471993084,-0.8824867020682853,-1.0342574946368375,4.724188582800246,8.966974153019287,8.354227977757528,8.0,4.0,3.27444149706516
05-28,15.971032729476525,5.291946415825543,-0.16938892299834593,2.2234621240550068,-0.15915456906403921,4.78341385353826,-8.785389236002409,-1.022613758077109,0.58817780770051,7.5402616725967615,8.966974153019287,7.389698011456139,8.0,4.0,3.551535023460511
05-29,15.391932917069774,8.299114788832426,-2.436771797654245,2.2234621240550068,-0.012735085451840539,4.294831010839914,-10.842614716536774,-0.8617442399179985,0.2529242557999122,7.5402616725967615,9.246399923822336,8.040882404087423,8.0,4.0,3.427995271461891
05-30,12.8195422869041,9.09883991069173,-4.352937586167279,4.8655650120744,1.524600412072872,3.4758436714486973,-11.84197682613311,-1.4987312868039733,0.2529242557999122,7.183380821567393,9.226342967828042,6.223351538998249,9.0,3.0,3.0813954315234198
05-31,12.388198698473186,9.151649851113735,-4.352937586167279,4.425760664286688,2.227738518492116,3.0382883948451367,-7.10344308901146,-1.4987312868039733,0.36533900669642855,8.801739717002285,11.268442123468612,4.798304472843124,9.0,3.0,3.625862457103216
06-01,11.25674640006334,9.151649851113735,-2.070590748506417,10.378553952644136,3.7413903628490277,1.2976260260640404,-5.475729678119941,-1.781512945879839,-2.8356119575717984,6.789108314534027,8.992655153622815,6.376234654490212,8.0,4.0,3.8183766154419447
06-02,12.047031363384395,5.970356187678642,-1.9160201758902478,11.91098430052186,3.6696700093883474,1.027242048605399,-5.116514986451272,-2.578681745111845,-4.140337112316949,6.661197103054728,9.398117342987655,2.6175227997341013,8.0,4.0,3.2958805946320684
06-03,14.032387132058732,7.0619015284841264,-0.8669873912018398,10.679702666893704,3.3034174589304235,1.3256330050239133,-5.917843851724835,-2.826854274045726,-2.9548699385763064,7.43719779918243,8.18638781865347,-1.1502550502153865,7.0,5.0,3.192484741955226
06-04,17.294614728545472,11.0551319565646,-0.23837538093548016,9.522488569322588,4.288210407703729,0.27882017602655534,-5.404538955575802,-3.296077804518697,-3.091998840384299,6.652695551290659,4.838572565557615,-2.6987115348410198,7.0,5.0,3.26673595322966
06-05,18.10908924449574,14.904389594287212,-2.9123803449173407,8.39348500809114,6.51333631839017,-2.414797979125874,-5.476107527582641,-4.272350468579785,-2.0242929520872437,6.58890288503463,4.293381839792203,-5.852294782224211,6.0,6.0,2.9875300696311666
06-06,22.052092303052657,13.56754733041455,-1.7666978403384852,5.783823932265999,7.059468310495931,-3.2965337498126206,-5.729118520275158,-3.6327047340271714,-2.0431204101785374,5.285703886193605,2.3169364118614753,-5.606262270852621,6.0,6.0,2.832594554066636
06-07,22.35273456408591,14.616248867242602,-3.678607136955203,4.700852459388217,4.582410946931161,-2.238064800341213,-7.048997626895959,-3.297224912908777,-1.5441101626825988,5.698868801980572,0.15765990020376147,-5.204564952873501,6.0,6.0,2.424767162264581
06-08,22.447906772567098,12.344803222859605,-2.1902197143777715,5.054942122097983,4.706896748357599,-3.481153152093424,-6.998786912628206,-6.345245855461126,-3.104996710475005,6.128882928708389,-3.0912043380286613,-1.5583000239144547,5.0,7.0,1.9927937573010022
06-09,20.294169197552275,12.655188704276249,-9.757983781250863,7.2247518936899775,4.429435000365353,-3.1273574537638895,-7.538234297933914,-6.080693490719219,-4.685266230699184,5.792240216937048,-3.072622030608184,0.21494311776160704,6.0,6.0,1.3623809038006047
06-10,20.766941837857132,9.864769117687946,-7.999490981826131,8.572451440427953,4.2336533741825715,-3.4742841185151203,-8.7719358521001,-4.60595379157089,-4.7555640374982495,5.48381123090457,-1.3556607930379039,2.34641112363773,6.0,6.0,1.6920957125124592
06-11,19.070511242115266,6.858381111660304,-14.928032687067638,8.235083678891138,5.704887112996124,-3.3737275551605195,-11.20141028862405,-3.072357371109921,-6.51837307960063,4.869564938054205,-3.535351623419686,10.660449230570352,6.0,6.0,1.0641353924420789
06-12,19.69750808637753,8.169696463370302,-8.446512722171192,6.264061782233695,6.2946176796599556,-3.1725087545481734,-12.225752554767997,-3.1809903300332287,-6.549285540471018,5.235699057851831,-3.6593985744132183,10.623517657475958,6.0,6.0,1.5875543542137038
06-13,20.167000507495302,7.600226307174782,-14.75499471602275,8.280080008734219,4.053634977673779,-2.022776459427502,-8.273144774719961,-2.8656031426487596,-7.93266588987617,5.446221462921924,-0.22289081254129864,10.83463033262484,6.0,6.0,1.6924764834490338
06-14,20.253856164267006,4.444449248769227,-17.027104923497177,8.628895010641923,4.861154364321255,-1.9279103011768672,-10.554540998513142,-2.2829299206350733,-7.864948280352807,4.80725212344264,-1.057835083095094,14.633139656480958,6.0,6.0,1.409456421721071
06-15,20.799566884497597,2.192395456818084,-14.932937348320591,6.02779310916003,3.2415990121792264,-1.7491131732148397,-10.958378986492532,-1.843538313274955,-9.858874650397853,1.935605666085707,-2.114613228685126,14.703695536517184,6.0,6.0,0.6202666637393278
06-16,22.43832047249764,0.7606295496165505,-12.28139967759164,4.866534083942736,4.08576684745776,-0.49998009657432013,-11.506297569125117,-2.119535293088885,-10.354412744549808,1.0181012560451514,-1.6270262860276226,13.414328468551126,6.0,6.0,0.6829190842627976
06-17,22.13217606878849,1.0321538186404429,-12.9096759346974,3.4107710759028382,3.855388738737046,-0.24751250611171136,-12.150340803583608,-4.029236010654901,-8.336586637371045,1.7313977543660524,-4.2732707605776685,13.323411357803327,6.0,6.0,0.2948896801034883
06-18,23.184262156361644,-0.5278330815897889,-11.498299716501586,4.24929316724033,3.5720810293691994,-0.782140425730891,-13.804097158927487,-3.7909239126743266,-7.936660166290277,1.8966633677001812,-4.046451673995186,12.11177483826789,5.0,7.0,0.21897236860247501
06-19,21.546357166919908,-0.45105309386219755,-13.603728420327709,2.969935110058007,5.050192273716577,-0.8185711348565929,-12.034390134456578,-4.602022742735275,-7.10430200341846,2.709522151690313,-4.935585539064964,12.825686422659851,5.0,7.0,0.12933667136024019
06-20,21.35171061478199,1.3728968622734519,-13.45285105294759,3.0978702185821874,5.473327585539124,-1.137095468025819,-13.341641806739506,-4.662614153687342,-6.786197282143988,1.7658594891192556,-5.081189158242256,12.82374725429686,6.0,6.0,0.11865192523386432
06-21,21.32200331039354,0.654278723280669,-16.507303853137913,6.924757073049788,6.110096894611691,-0.29444512545836454,-13.00564073234308,-4.315089659934784,-6.689803917790529,3.336421152188472,-4.832007239104616,12.654818403829637,6.0,6.0,0.4465070857987094
06-22,22.028823489681912,2.54274956798908,-16.52057677004481,5.496596425028332,6.460050405285743,0.1270633628601268,-15.287803091653965,-4.073753615106142,-7.684066387026226,2.767017202237224,-4.730333855379287,12.618005139680813,7.0,5.0,0.31198098946273367
06-23,22.309567500578666,3.1970282912697283,-23.576193169628034,7.1729585639181925,7.731023746964223,-0.14209784571293202,-15.404878941977895,-7.179343566196891,-8.424763244376049,4.2103368315354235,-5.98367932140862,12.601143817560247,6.0,6.0,-0.29074144478949515
06-24,19.577014831982698,3.7810578838321756,-26.538918608601303,5.713221661772552,7.812210349373619,0.5145056067899517,-15.092684117759148,1.9096724299566166,-8.233226248097868,5.374505871707763,-5.600726963466419,14.126771933962793,8.0,4.0,0.2786170526211194
06-25,17.516464921939733,3.7461784492007424,-26.138665513367265,8.752814906428096,7.089434187685502,-0.19110122802296625,-17.893255858350372,6.197126413651561,-6.007268724219139,4.963831771710301,-5.031616845868983,13.083560132102598,7.0,5.0,0.5072918844074837
06-26,20.128322082132428,3.261040881277776,-22.2378406389559,7.393072029039641,6.354095010727952,1.2190364626871346,-21.396978960655304,7.281097164824164,-6.9381478644872985,4.312836083973836,-4.363145405787989,13.609070041814864,8.0,4.0,0.7185380738826087
06-27,19.002771238352835,2.055754109399174,-20.9625814755455,6.816748749926649,6.943487693402657,0.2444390088195128,-24.626057548920187,7.237519496584749,-6.619705483129601,4.963831771710301,-5.2588564902553365,14.155929245495248,8.0,4.0,0.3294400263200418
06-28,19.211641424365354,3.454098896349626,-23.04910256712307,5.037157511124725,9.757150699629186,-1.9007895311816225,-26.282261947396833,5.479840083185414,-7.179390754216078,3.6895286018204487,-9.54570873057231,13.253210894561487,7.0,5.0,-0.6728854516211392
06-29,18.384817193026016,6.35554103229902,-23.99499255314204,2.7759951781388326,7.381295011974631,-1.7872648758222542,-23.501616800664568,3.6657595152297593,-5.727511805846289,6.2285293966523065,-10.693290361362916,13.347223771705636,7.0,5.0,-0.6304596081509889
06-30,18.31038303917788,7.261282754921227,-27.729317074751965,4.27866193334497,5.907703086935542,-2.392315470622928,-23.222344898954773,2.4355957603007905,-6.016195324266917,7.603704811557783,-10.445948430096381,11.579824712827545,7.0,5.0,-1.0357470916356022
07-01,18.53368550072229,6.5370491085627105,-26.96986884696788,3.847922182837821,4.699532822022815,-1.7637863088578227,-25.134266282918773,1.1631237417811762,-6.2025914448666555,6.544099628349138,-8.804914777219985,11.338056540334417,7.0,5.0,-1.3509965113517293
07-02,23.627464079188105,9.731742068243648,-21.194860846166474,4.566586617481376,4.28864465290417,-1.4958058776371992,-21.766993055239432,4.6003689762437245,-6.499133410680183,8.042273922995456,-8.309637402577046,9.702790903114018,7.0,5.0,0.44112005232251356
07-03,23.09617176639784,7.513747299039519,-19.626037981175326,4.402517429004606,3.961221357564009,-2.3971925732135855,-19.75860757795501,4.3158065865969,-6.550431761564828,8.651265757917393,-9.217649421515132,10.02293254002295,7.0,5.0,0.3678119517599445
07-05,20.451185278880587,11.150237500710787,-19.454239768004257,3.8465055655080858,2.4137295688149,-1.2241349776495591,-25.998905743526894,3.0506193911284596,-6.6178623525199125,7.925851525400554,-7.100054238387063,11.38709898917907,7.0,5.0,-0.014164105038770044
07-06,20.229927286622036,11.150237500710787,-20.786011959193527,2.691490668671555,1.9076953192804527,-1.5546578310106283,-23.06211908087697,2.748390733095614,-6.0109870339241365,6.922106821447906,-5.04557838405719,12.779810822754307,7.0,5.0,0.1641920719600174
07-07,22.825887824275778,7.467728424015238,-21.908874802217493,6.044350208497713,2.5316524498163866,-2.3829441028861935,-23.019351074836766,2.691725111495578,-6.403374544399281,5.988784776328089,-5.388025837000112,13.93872417850021,7.0,5.0,0.19885688429909557
07-08,22.455035308407627,5.736507412019091,-22.777561302587728,4.437455397629197,3.592554817011658,-1.6066448641838065,-20.923767721844655,-0.32081178252612425,-6.109577629584457,5.42409831948485,-4.357963375758146,15.486586455275479,6.0,6.0,0.08632591944524852
07-09,21.91729951406996,6.239111341562423,-22.699465838678076,4.964598752544492,1.5162977381970475,-2.1078015873099174,-20.431947888126793,0.40171926522601975,-7.289250519689812,6.039783361062895,-3.9634199528238927,16.589935679445773,7.0,5.0,0.09807165545667695
07-10,22.491224997906194,8.85968030897848,-23.31967268645376,6.095428388376806,1.8245936269835752,-1.851490208656175,-22.260052587454915,0.938489231048231,-6.506724191229226,5.244118899079746,-3.488169957082602,12.826777329234748,7.0,5.0,0.07118359589425838
07-11,20.62306398378104,6.590509783905338,-20.343946236824927,7.253838037285076,1.5818698567990699,-1.9954853556851595,-24.884794586048695,0.11243581261841627,-6.497125211840162,6.193488760059884,-2.346924076280485,10.790313425556448,7.0,5.0,-0.2435629838895131
07-12,21.33959166829888,7.698986703764745,-19.784023350564333,10.920350741496128,0.9544767801952512,-1.9958843471775758,-20.88173955890862,-1.8457730060406952,-7.332053371789764,7.285717555454799,-1.0882727150760476,9.595835040367565,6.0,6.0,0.4056010116683611
07-13,22.83032164127927,5.45585633330851,-19.89067823494814,8.661837638877032,2.8767594123006193,-3.2413375169650585,-21.259105753968775,-2.5672236274613875,-8.066531311728413,6.743793496904307,-1.029951872148337,12.733364888130222,6.0,6.0,0.2705920911316541
07-14,21.838466553833797,6.628078049480695,-18.185464025017563,11.797222172987818,4.104820075200633,-2.7314030405581993,-22.382937021609763,-3.1623875642466737,-8.890826372679756,8.671597741878823,-0.3752046166978936,10.866439696129254,6.0,6.0,0.6815334707250974
07-15,18.349275200751304,6.795555115249963,-22.66757871505338,11.858121314810615,4.5189105695931,-1.5311620774110313,-21.727372751660663,-8.338286716063832,-6.666664265220517,9.077177301469705,-0.02549182462532302,7.754901767433832,6.0,6.0,-0.21688459006051883
07-16,13.546237924783316,11.74226077825865,-21.321110164508813,11.781981329499647,5.826542961769782,-1.644762650320283,-15.707781871945853,-6.364344861395718,-5.876836160454565,8.622686903483208,-0.14445799499019515,8.334655563533074,6.0,6.0,0.7329226464760211
07-17,13.507849854845096,13.246786634033372,-18.770914693790473,10.054418007401388,4.597979347272392,-3.117862593777502,-15.591399545833303,-8.046657863751495,-7.519514286560806,5.909127188539141,0.9092451496001214,11.974824078225376,7.0,5.0,0.5961567730169425
07-18,12.882056819425145,12.881967036393958,-16.723683005885075,10.00258662644928,1.762138640160512,-4.942914031453525,-17.72514248396093,-8.561782598781814,-7.509993882541306,4.713022259063541,1.0236012975585873,15.989560134168606,7.0,5.0,0.31595140088308177
07-19,15.081634585903705,13.234672750300453,-17.421049820749403,5.582731189373562,2.019206310022067,-4.5265600031173125,-17.575307498267446,-7.647990588897853,-8.128689428880316,5.807877588168323,1.5664224830043143,15.802031302833038,7.0,5.0,0.31624823914109434
07-20,15.762228624000644,9.75847847521171,-17.565787465948805,4.1989212533983675,3.311138814619287,-4.1043265271211276,-16.598294761702796,-9.28684788019456,-0.2253924269376945,6.3920819167226774,-1.3782908542633663,15.227832392173585,6.0,6.0,0.45764512999649326
07-21,15.795623945369,9.535103257782477,-16.223205224805014,6.5400843881856545,3.4046957317560995,-3.4286271149805656,-13.821394164119056,-7.259974939955457,-0.06585107508431971,7.593587365144411,0.22182590074339334,14.63111485302002,7.0,5.0,1.410248576921387
07-22,15.261311542488047,8.62522922247041,-13.09766420612872,5.704552679720153,4.814970471728549,-4.10246182637792,-13.695168491491264,-7.424411245762663,1.3202281103175997,7.822012221715183,2.0765329905354633,13.453188068960156,8.0,4.0,1.7298599615145827
07-23,11.487850369140203,6.10687208814986,-13.934639296132412,5.535651639392547,5.17251224722203,-4.20155360977373,-11.825109334329248,-5.451122286330538,2.722906634629875,9.248152201144908,0.3935369835905094,14.25144926030585,8.0,4.0,1.6255422414174874
07-24,11.886001628200981,6.138186745224456,-14.228595054612866,7.403616908336831,6.394133772508101,-3.3766491862054564,-10.795146791544562,-5.2636718242306735,3.1430918533967165,7.822685581286903,1.1136245731023822,12.093503610116505,8.0,4.0,1.8608984846316101
07-25,11.52621446089198,5.527088735594127,-20.410663515590514,8.316274460640386,5.5122385039756505,-2.988017174470399,-9.566616087058522,-4.030838659302556,1.5623536314544626,5.015214358460432,2.1128535919914317,8.202863361027799,8.0,4.0,0.8982471389678565
07-26,12.159011457860949,5.382914517547732,-17.74543821036027,8.566359005124925,5.514793262126874,-4.502206441764579,-11.755071294699535,-4.196762727093828,1.8932061435664158,4.5376074792287895,1.1068251477275792,8.765102106141033,8.0,4.0,0.810528370450507
07-27,10.56731235290723,4.550497635925048,-15.583354557795465,6.09745589951596,1.3768204780383895,-5.240064279611693,-13.8425579389472,-3.5428433396971193,2.6057403372375725,5.638903885353595,-0.06759766124727161,6.8373870510113886,7.0,5.0,-0.05019167810913072
07-28,11.007620802678208,4.495013056129203,-20.613416393969292,4.982449975572352,1.4069878476678706,-4.054056624611787,-18.87924757240375,-2.2687647674351346,2.5101170497533305,2.6178050525560947,-1.8927960807900541,8.231911670800653,7.0,5.0,-1.038031332004359
07-29,12.142249384561103,3.6808920444365,-22.348150714355004,3.5121281043206007,2.1076295150431696,-2.219014837944045,-20.71380559007096,-1.3944054306337894,3.5819013658265204,1.6137735673151232,-1.5172266308108242,6.6852569752507005,7.0,5.0,-1.2390643539217423
07-30,7.023240906017995,4.73120822116458,-15.8199871593629,3.150087834570745,2.1805128469384227,-1.939762401456821,-23.16422187190064,-2.4769911830969544,3.004333307576259,0.5888228367359452,-1.9715372451255195,9.037410908616977,7.0,5.0,-1.3047402499434924
07-31,4.596706774915386,2.2808409735602377,-12.587232025439507,4.485165321192521,2.5510185640259775,-0.48123039897624437,-22.685082348064135,-2.166911944199136,2.5372700416440903,-0.24459124373023278,-0.6257463608979482,10.47816920924831,6.0,6.0,-0.9884686197267234
08-01,3.301563448135859,2.76182206716329,-17.342659476753717,5.706807157597117,2.3342331425854916,0.030233086176059746,-27.64169923069598,-1.0620821447931943,2.6669111125005305,0.5978766522003743,0.8486246031943265,11.795630739554314,9.0,3.0,-1.3335615702612944
08-02,3.2686447544764405,2.441699234622087,-14.29370800098339,6.586829598342151,1.7607572982886837,-0.5815644060337306,-25.50320718631294,-0.1158663193353413,1.6482996708105757,-0.3027817575216239,3.425818820790674,10.762074611964815,7.0,5.0,-0.9085836400743003
08-03,2.387904847123105,3.9506238992191736,-15.580418726781032,4.911180398381431,3.0946954654012937,-1.9721406504475527,-23.012886011332828,-0.7338052896300712,3.8401473254678726,-1.6677354903600943,6.370772859390292,12.041287972767172,7.0,5.0,-0.5308644500667699
08-04,2.0099608097355324,2.7709248699313846,-7.366968823034846,4.889659348038366,2.9494624069022675,-4.943242683870739,-21.496177385462513,-1.9988251659090455,3.359103076444748,-0.5193619087236617,5.0569038446285415,11.70543963072931,7.0,5.0,-0.29859349838255483
08-05,1.8897070802643512,3.502751297887811,-10.217935489833861,4.126315834311871,2.850456083412028,-3.6825906849150623,-21.553191207986565,-1.035216416897987,5.279279829145552,-0.0998100093143548,3.0154745801999314,8.535385003815323,7.0,5.0,-0.6157811749925804
08-06,0.7072162591350479,4.8433348796019065,-6.217234455580828,5.754222664738589,3.1325019442045123,-4.038291203978891,-16.731390536553945,-1.0054146277852887,6.116616309300921,-1.4623344879987374,2.997989856993369,8.490718050202908,7.0,5.0,0.21566122102329718
08-07,0.1066433707495849,3.419160151916243,-3.2262612683903824,4.36498065401203,3.3305347288080793,-3.2170367809693676,-12.151946969370114,-2.381185921124712,6.3424217095076605,-1.1312385630130923,1.3547793043827572,7.755332050730184,7.0,5.0,0.38051520560323904
08-08,4.257908800759704,5.716220752612984,-0.26112535243745694,4.716576598243977,2.7989690121673463,-4.36278074063306,-12.707479371839234,-2.854894146095918,7.892393053404481,-0.478245771187357,-1.788833402315222,8.084498453944873,6.0,6.0,0.9177673238854265
08-09,5.066342734023772,6.674699505854867,-6.253429478801051,4.828229412548979,5.3891116348761825,-4.135509084870744,-14.143467739465166,-2.74660451391566,7.919115642684728,-0.6914991760380453,1.1061575074136807,7.073468464169536,7.0,5.0,0.8405512423734235
08-10,4.803868724050001,7.249873787407479,-0.4123081549690177,6.036970153633269,3.9128147108136475,-6.8447562665846835,-13.042098791399015,-3.06162685006053,10.351231597452,0.5184202703173247,2.7309619373585354,10.237323039942657,8.0,4.0,1.8733895131634721
08-11,4.70018568551801,10.313000085825566,-1.6280078585559299,6.439009303817109,0.9028937060048083,-5.091539048507862,-10.709369488892827,-2.4953472565238455,11.078739016244523,3.1940134527430804,-0.17801920814691774,6.243216146529794,7.0,5.0,1.897397878004626
08-12,4.043546216999522,10.328644215199862,-2.1502369753377013,4.813758308612473,0.7016244581641238,-5.276209605026569,-10.30643778212822,-10.946328965512567,8.948865310435203,-7.629874653751176,1.7716868099636365,6.165661879252251,7.0,5.0,0.03872493473923674
08-13,5.606213485965883,11.833534947770449,-0.23547919862213912,4.524966360163767,-0.1723281552557411,-6.584707332833199,-8.092304763133859,-11.305275208158095,8.738209587850406,-6.50602756647359,1.3004062396167857,11.986078432591558,6.0,6.0,0.9244405691235192
08-14,8.652716600745293,11.319997151692709,-0.5379919525453857,5.9639365612144495,0.06770101750619277,-8.353496020476946,-9.096588117637534,-13.174426468757606,8.762570752264644,-7.279116577380025,3.805202077741518,12.437445480263294,7.0,5.0,1.0473292087192172
08-15,11.878222121360057,11.907281938767591,1.4660485575234665,5.140430195736031,3.618036550511336,-10.198856393058435,-7.109108340541587,-13.617572667616,8.424518203174156,-7.459839778116368,5.222203635037628,12.590962512728257,8.0,4.0,1.8218605446255112
08-16,12.648413994302626,12.762324239469743,3.2921876513111523,4.694264863955128,4.893555419555847,-15.39158983987043,-7.285451542314537,-12.736565992518331,7.712841843151992,-11.952692053072676,7.090708297454841,10.968037996518955,8.0,4.0,1.3913362398286926
08-17,13.911909196191896,11.14900346034681,3.1635789826277065,3.4842013831491436,5.610068651230733,-14.748283686990165,-7.131116382211985,-12.671300399310933,9.45326373585341,-14.018300919571141,4.769214556397981,11.642765878086138,8.0,4.0,1.217917037983299
08-18,13.944414410169548,11.791707916667892,9.347231463871324,6.00998429845109,5.239302872125019,-12.891969126017155,-7.449650660434165,-12.646540978220514,10.06167239554653,-14.12376663083007,5.574821410142649,11.813652076018464,8.0,4.0,2.2225716206242176
08-19,13.164307873912268,14.070490286290719,13.586754429111956,7.350191864832668,5.6611741023963695,-13.368423757790843,-5.322647268207164,-13.099357540705004,9.52549169719346,-11.764109814480136,6.170138192989167,11.850804207022513,8.0,4.0,3.1520678560471644
08-20,14.384665015761444,14.810467128259816,11.433702871530164,8.245774109386675,4.361689295365613,-13.063712925792071,-0.6145482543052542,-13.544134390634866,9.3572944232408,-11.83245035198083,7.279754622867351,13.529330763643566,8.0,4.0,3.6956526922785335
08-21,11.011419386640233,15.439640402250099,14.604236870150885,9.666302330001804,4.277463938236329,-12.786668737760051,3.504068745435622,-13.360631238084448,9.293052904864316,-13.208315044532645,6.943512272865003,13.801399679026998,9.0,3.0,4.098790125757845
08-22,12.619008456968839,14.200864436517785,12.557070467196892,6.657138848181411,8.20771893392954,-9.238986943528872,8.81596969958598,-13.666812726384304,7.388373973085013,-12.719114735220268,9.188386329539371,9.857061324606429,9.0,3.0,4.488889838706484
08-23,11.534059245533774,16.07280802400354,9.766612513833358,8.480979750360094,7.697558428868236,-7.872164257941372,8.995852598407915,-14.995684149652162,8.194543076780517,-10.889987889617265,14.239718235038529,10.064623457120344,9.0,3.0,5.107409919394626
08-24,9.25087449715935,17.10560309399235,8.815318710132928,7.287863404744714,9.252022128656794,-5.1979202154599475,8.326706383386464,-14.941661836475085,9.273028344426034,-9.103465245583145,14.043954197442831,9.662013777651788,9.0,3.0,5.3145281033395895
08-25,9.016251748802528,15.90498301115245,11.898857756332006,7.068818955435402,11.020426039769767,-6.4632639408068195,9.529010727395772,-15.206125384228017,11.922554908996354,-9.315358302350944,14.448789781398078,10.602103420049886,9.0,3.0,5.868920726828872
08-26,9.937986714343031,14.803702550130406,13.551629930603326,5.331490058246616,10.187723724676886,-6.582003798509631,7.492051829546104,-14.472833020231954,10.899134169127015,-10.434264420735003,13.898933784922546,10.505112257920546,9.0,3.0,5.426555315003324
08-27,9.04746481683608,12.207250809631166,10.556876186047646,6.6484603885502285,11.594285679594154,-5.952195746050481,8.13549515704281,-15.40111640857456,11.316417438051438,-13.653097403134451,13.706111827173467,9.655943401189885,9.0,3.0,4.821824678863115
08-28,5.729695849572112,15.323934040516573,8.530232666492362,7.066654355800274,12.71504781700124,-5.407906041556816,7.577649211745367,-17.95658521620409,11.527352662342393,-12.364495927816485,12.40459732464284,9.048932106402624,9.0,3.0,4.516259070744867
08-29,4.827345134494798,15.291072740204006,11.041718924332681,6.366816762868101,12.966679706840123,-5.111051414287539,8.313287178175981,-16.299181126467115,11.773700702199822,-14.195137099706464,10.875548019314628,8.322546373856264,9.0,3.0,4.514445491818774
08-30,6.101692329018816,14.706257365913888,9.875085073232658,7.408039976803815,14.132581197148975,-6.536861858209901,7.422519544347329,-15.953310280774428,11.816176960473088,-6.701383317895782,10.682037973398115,5.487085247868782,9.0,3.0,4.86999335094378
08-31,3.231438382744281,14.250352078138043,9.745468080343295,6.102245999500186,13.090824675593622,-5.015611383576783,8.664814297776148,-14.440122238539626,12.092355857031047,-7.497810898749041,10.734782052846771,3.8415442806198694,9.0,3.0,4.566690098643984
09-01,5.537114705581332,11.215309831245957,15.630272661845385,6.766073695271242,15.25523617646697,-6.841967810907655,12.441295053318008,-13.529732286298692,11.311798467535223,-6.79366109946033,11.691325381680194,0.9663757633736049,9.0,3.0,5.3041200449709365
09-02,5.799126104496452,10.026110258697237,17.67931360208231,6.846369608676864,13.459207561021296,-6.841967810907655,10.351771170527385,-15.25788494656506,10.950413928793909,-5.430815550202163,12.343231177491457,-0.6149702724152691,8.0,4.0,4.942492069308064
09-03,7.361751837517004,8.761400076512766,15.2875895776171,7.610184081621749,13.459207561021296,-5.977607677748999,9.877249274007644,-15.558902523893606,11.011696195456375,-4.557998936574589,12.343231177491457,4.145202915679293,9.0,3.0,5.31358362989229
09-04,2.7290464419616427,10.94300194342086,13.475179351647547,7.610184081621749,12.506881406301579,-5.8591050980299135,10.502593855051897,-16.044862222954244,10.766042033015177,-4.557998936574589,11.478017406380193,5.48103649664229,9.0,3.0,4.9191680632070165
09-05,3.6528130588051924,12.055642302850785,15.570934804137506,7.09771528700481,12.054986464071938,-0.13255646778177407,7.307690840501052,-16.497083726207006,10.766042033015177,-5.243127155999162,9.414966552191208,10.497111688743253,9.0,3.0,5.545427973444416
09-06,4.467057904512693,12.337913320909225,15.570934804137506,7.224961273620262,12.859097127222983,-1.771723879955951,7.476725917065051,-16.497083726207006,10.110422192745402,-4.927864194773299,7.700895626673482,11.595793274738375,9.0,3.0,5.512260803390727
09-07,3.9368721189227456,12.337913320909225,13.483270153965957,5.653768247848952,11.893604341926277,-2.74600539866056,7.182745080524416,-15.533672364322035,10.459711727645324,-4.302682926341926,9.040514117209506,8.89993216783959,9.0,3.0,5.025497548955623
09-08,3.9368721189227456,11.285146982162537,15.587645785452416,4.918704158164154,11.826318496827884,0.6479911478950974,7.182745080524416,-14.768395696738745,11.104438837173673,-5.298261673403981,9.605087525830363,8.89993216783959,10.0,2.0,5.410685410887513
09-09,2.0811667813303063,12.409958341556795,17.410465811977954,6.006982205718062,11.575494151451492,1.8465253525616627,7.471598392670374,-8.673637822989475,8.973693605499564,-4.4057337003060715,10.218079447997997,5.62457748514565,10.0,2.0,5.8782641710511925
09-10,3.716838991865512,11.171082879914074,17.75027953706311,4.020224219710374,10.443105043321856,1.3593146339258526,6.365662002813288,-8.913623527419704,8.973693605499564,-2.3372569954576092,9.632432162944154,9.055400795960105,10.0,2.0,5.936429445845049
09-11,2.5510204412631654,9.419645079276638,18.19198367251475,3.9539097042433204,10.054707098450324,2.2659994429272117,6.097086193492111,-8.465278080323852,8.801240939519321,-2.7937529377313792,9.31648575883636,8.402995455682596,10.0,2.0,5.649670230679214
09-12,4.862820989671763,8.458986156246587,14.399433020398941,4.036806010627271,9.335339751413565,3.489609199464473,7.441265550993685,-7.839228826668963,8.120909474791912,-2.2824797113688495,8.95016759046414,8.218783960406071,10.0,2.0,5.599367763870049
09-13,5.018863887199585,8.177387244203317,12.561456283711289,-0.8247608329811957,10.535883742436155,3.1802964186342444,6.88291030006714,-6.160145545371198,9.524633935916635,-3.9385284360113175,7.3999387612661005,8.829295591425998,9.0,3.0,5.09893594587473
09-14,5.344884670566175,8.561907962821515,11.02786042012581,-1.243822728433534,9.310499765539362,2.7038818773737647,7.331952468744711,-5.6564165577315535,7.513240773770245,-4.14074749083867,10.712071721979207,8.720636323086268,9.0,3.0,5.0154957672502745
09-15,2.893103054813058,8.19020720916208,10.206452014807857,-0.8768185652451889,9.48441076082843,2.05492266210875,7.213858662557611,-4.511195409604406,7.299202276829074,-7.201134941185969,11.431861335622601,8.923937099343139,9.0,3.0,4.592400513336419
09-16,2.1085336859964197,7.5278417711838035,10.747930036435099,-0.8940000672971727,10.518902980480798,1.657670291907603,6.436375234959972,-4.636110052247453,6.76560435925809,-8.321350309973845,11.47943974300793,9.540835045690816,9.0,3.0,4.41097272661684
09-17,1.5772883449438804,6.160452986116051,10.963454684901814,-1.882901287400486,10.432236494541497,1.0151996701287818,4.787823852266744,-5.236854366976344,6.602532158382108,-7.252016611585586,10.059858427670413,7.592761484183747,9.0,3.0,3.7349863197643853
09-18,1.176274150585248,5.464476860382081,11.024610671597227,-0.9801387787615791,9.105187955358591,1.008620624919642,7.577109244180738,-5.040006551939542,5.811796783987152,-7.517796187620103,8.356358507523803,11.93811077354642,9.0,3.0,3.9937170044799726
09-19,2.832494985874516,3.863453424455368,8.48934305730041,-0.7995875889407296,9.478390001258822,0.5345739924072881,8.337420553641865,-4.898299284771978,4.453658240533367,-9.207408370318564,6.9826570779142685,16.76717385806841,9.0,3.0,3.9028224956185866
09-20,2.5628464541964617,4.495265623862435,8.724836495329432,-2.7071607345614277,10.07030596637654,2.751672480830278,8.121130872659156,-5.085099102160584,4.039158528713062,-8.255506337997561,7.907334257737079,16.186223040312832,9.0,3.0,4.067583962108142
09-21,1.3551474426870365,5.113037981106601,13.411043622655342,-1.7038518807393959,11.497425631890744,4.230219340152877,10.342517568358385,-6.3304259396878795,4.403126198052839,-8.22058910003897,8.198882907966352,16.186223040312832,9.0,3.0,4.873563067726397
09-22,0.6445205758824892,5.25762342761572,15.246041288759793,2.6988799756774293,11.550117434703127,5.212195383770924,12.098244463418895,-6.759133358909429,4.4540100265912725,-4.633245714539899,8.106215821299989,15.66971725284719,10.0,2.0,5.795432214759792
09-23,2.4128228804678353,7.8659005331623355,17.67942469983671,2.6988799756774293,10.307354058096793,5.876770467862308,13.710064717729614,-8.488280275687327,4.979103175542943,-4.633245714539899,6.442688953263957,17.41467427486673,10.0,2.0,6.355513145523285
09-24,1.613986368293363,5.763762267742442,11.475008162696748,3.899634203337428,10.27991001166686,4.803954334021884,14.762505302085868,-6.185670856871658,4.979103175542943,-6.431814662488995,8.118574421396369,16.974947022384836,10.0,2.0,5.837824979150675
09-25,2.7004193656052338,5.908209159633272,11.475008162696748,5.3640510972958255,9.637759523992772,7.171071069964984,15.561083904887674,-6.185670856871658,5.358065607767879,-5.345677945724235,7.778653231534091,16.067567240860196,10.0,2.0,6.290878296803566
09-26,2.924170648371256,5.908209159633272,10.865011155889444,5.717815222659673,9.093395571522034,7.847693836214624,19.87294855587651,-5.713099240479646,5.9216181884136265,-4.259541228959461,7.176954663561489,15.027574346788706,10.0,2.0,6.69856257329096
09-27,2.924170648371256,4.135931856400964,8.305648183604152,5.355233382395406,10.071822086071926,7.4732105872789685,19.87294855587651,-6.033941250189411,6.372462898810187,-2.0410077286818114,5.733196899330443,15.027574346788706,10.0,2.0,6.433104205504775
09-28,1.8212200173391975,3.6617476901283954,12.021652573674542,6.91416569570251,9.300181690513753,7.4732105872789685,19.888137408660064,-7.1931243538367955,5.569530975892052,-1.7149746688317167,7.261913070515738,15.027574346788706,10.0,2.0,6.669269586152119
09-29,1.8546312848015563,3.977867117891634,9.073773090855955,6.0645467481667845,9.300181690513753,7.400179960208149,18.52308399964271,-4.58038875749768,6.408264349521166,-2.24520564964716,7.261913070515738,16.01172733811088,10.0,2.0,6.587547853590291
09-30,2.74018284287438,6.414703438798261,11.063553963204134,5.588688922298627,9.7607123900078,8.662947507922315,16.873633313890384,-5.329668300537369,4.186446731118862,-3.733456365128692,8.634649601355196,14.7902574226972,10.0,2.0,6.637720955708424
10-01,6.774347980379604,5.848255927031401,16.80194092529072,5.209186541948506,9.89575262843822,11.248837703859635,15.339096347443473,-6.255782293519059,5.4030991441605805,-1.9602384079486328,9.899008019951365,14.999654395414035,10.0,2.0,7.766929909370821
10-02,5.17445375825789,7.146535951019663,17.392349279080026,5.9639082702698385,9.98757900150666,11.88292193682179,12.75773989187824,-5.551022899394118,5.136314867538637,-2.3875879871766066,11.795545647845632,13.959661501342532,10.0,2.0,7.771533268249183
10-03,3.1802109707945543,7.3370975986098586,21.732193384415062,4.3396233382362155,9.78107101422828,12.325198938844082,10.544734018478072,-7.82862724105012,4.290235177174305,-1.0126383997266915,11.293446622467854,12.110005992964577,10.0,2.0,7.341045951286337
10-04,3.9559321280604776,9.541701337771217,19.464389551059472,4.582520201036786,7.149844527146651,13.007682485044484,11.399405727634205,-6.379654672274425,4.059482021434158,0.009221108249199219,9.484627397272591,12.110005992964577,11.0,1.0,7.365429817116616
10-05,4.971095556498187,7.337841930334248,17.082618648170424,5.093742956991801,8.57562870845644,12.713914110142346,10.205050668046438,-5.889712819665307,3.2691482624796424,1.1982119876048336,9.95330810546875,12.110005992964577,11.0,1.0,7.218404508957698
10-06,4.161850519431981,6.386173848163031,14.835359346673505,2.662478217050793,7.569084951454272,14.328581484129463,11.334721119329414,-7.297359023020923,2.2858634683886865,-0.2286655042650778,9.573304226044247,13.066239032912112,10.0,2.0,6.556469307190958
10-07,4.426094696852513,7.033294946922494,13.42052435612434,2.152769005443002,8.22082182946837,16.50093937306919,10.470855480113006,0.8987084559793301,4.185095501123264,0.8863926819641127,10.371809749030163,10.002094928260709,12.0,0.0,7.380783417029208
10-08,0.6209077545516742,6.918321480389529,10.250083263148618,1.456552718152243,11.008472110194232,15.107944350731529,8.17833764056408,2.2293983094838103,3.5203431352047643,-2.67028800195006,12.974443716109473,5.779296804898916,11.0,1.0,6.281151106789902
10-09,1.043393602137432,6.191366025250386,10.53370756417299,3.1391260913607546,11.18885026628026,16.843237586043408,9.428084135604209,2.4631082067291548,3.055342953063487,7.654835136673942,11.247098052666576,5.158092531074858,12.0,0.0,7.328853512588121
10-10,0.3646630433050642,6.774390497178594,9.720084924435005,3.4321099159074158,9.379471430439715,17.63518150118543,7.2864098309680925,4.410268708082721,3.2791161958272945,6.680412872252858,11.797453400942267,5.039436731622243,12.0,0.0,7.1499165876788915
10-11,-2.158396421601326,6.062119939744599,9.991731743742445,6.290073904380608,11.227638814447955,20.754801992489476,5.265210376748784,5.988996980180296,3.2532909027203836,8.894984006686245,10.087517575411201,5.039436731622243,11.0,1.0,7.558117212214409
10-12,-1.127190442668557,5.435867406009563,8.161091510746317,5.882836968008164,11.022441803343465,21.755507808221587,4.1457475010822264,6.3556710576223026,2.3339928259642533,7.885311202497634,11.858924010929691,5.039436731622243,11.0,1.0,7.3958031986149075
10-13,-2.018843860471167,4.509016331721178,6.0026615627988225,6.217697977988604,11.326394731462411,20.040755509365784,4.303301442890871,7.333266921813775,2.08764510625538,7.065530275740008,11.519590847445055,6.7704311153613,11.0,1.0,7.096453996864336
10-14,-3.5161510781879066,4.64709691303558,5.039317648205136,7.117723497052304,8.894982548832711,19.592484979230488,4.165438926454429,6.747235016845352,2.169780540809841,6.686722950727543,11.412590698170073,6.058496318645512,11.0,1.0,6.584643246651755
10-15,-5.149052961359004,5.1050739244935155,5.671352999950721,6.752311084741212,9.251444919831725,18.270321479911107,1.6058635619486834,6.071969357444127,2.3470543058317435,7.065530275740008,10.656789913307122,4.557826889485239,11.0,1.0,6.01720714594385
10-16,-4.768417356970852,4.449418185173181,4.326455562996986,5.403454991596323,8.845628924002265,18.31536529855334,-2.035849730065633,4.523440753842316,2.649463940692204,5.1034204774986325,10.08993932465991,4.26467538783065,10.0,2.0,5.097249646650776
10-17,-3.81973973270277,5.471541223963876,2.9426442645310957,4.48012982282775,5.138101915138997,14.816671021296221,-3.5301307988724453,3.6497811933715574,2.8301083144321235,5.161411545664745,9.360045721612655,6.246944008755438,10.0,2.0,4.395625708334937
10-18,-5.373235459312931,6.358101483215674,-0.6608558963330768,4.887790744613922,3.903558715595565,12.346984484530878,-2.6686932237198673,3.493813740589777,2.898927093834018,1.8929669308473798,6.601001061954862,6.246944008755438,9.0,3.0,3.327275307047637
10-19,-4.53779098650336,7.710111995982534,1.695761424067449,9.389663670104778,3.174338530635465,11.760366729276578,-0.9578917110154083,3.7537700728762933,-0.43050242934750893,-1.2482524541828723,6.431519470787405,6.246944008755438,8.0,4.0,3.582336526786399
10-20,-3.255736074424166,5.651643697790106,-0.6989485014934549,9.600614664352944,3.812428504292132,13.983623953567022,-1.1574496294011232,3.5795992368699987,-2.319928650011454,-4.663859298659675,6.3260746898774505,6.0305710420846275,7.0,5.0,3.074052802903701
10-21,-0.6578937207816457,5.880187784633035,-3.4747093646074036,11.149697392886113,4.653671282197139,11.796995351719342,-0.41907619619800063,3.6905765044868977,-0.6544408457807954,-5.129272875284548,5.29433643330744,6.449364987518296,7.0,5.0,3.2149530611746555
10-22,-4.064481008519303,6.804050342280791,-6.6599323333520255,10.296478221426074,2.7587327799046135,12.845311121471584,-5.476389454194655,3.097072665898509,-0.4986689392392811,-5.423626817776624,4.846181199548345,6.679700592469549,7.0,5.0,2.100369030826465
10-23,-2.699898591638551,6.107332129699706,-4.481310722066763,11.942691103211226,3.660313629370144,14.144751943679108,-7.996673460411715,2.509411900036758,-0.6284398282755757,-4.3554878512395305,5.453849607791731,6.281845279270339,7.0,5.0,2.494865428285573
10-24,0.0343473431579968,6.243939520215813,-2.7263848149054737,10.700409897500641,3.1516439512736563,14.063180628046174,-6.890873924632444,2.7433032309016943,-1.1019272890350191,-1.3999776727664637,6.675726068665454,8.333916441224888,8.0,4.0,3.31894194830391
10-25,1.1211140808338826,6.243939520215813,-0.45033483531614626,13.669173919199382,2.5184851951640366,16.114982150008515,-5.23491095293189,4.85031959180235,-1.3429730625108538,-6.840423828704806,6.363705161541356,8.333916441224888,8.0,4.0,3.7789161150438773
10-26,1.1211140808338826,6.280310492664802,-3.2862668304473,13.59475907883192,3.070408250702694,16.114982150008515,-5.23491095293189,3.494321484866207,-2.1608078750902115,-5.933864380693506,6.61281954820531,8.333916441224888,8.0,4.0,3.5005651240146087
10-27,-0.22082736618637336,6.92289825590457,-8.240015021066267,12.14167292716739,2.485175531186826,16.648634613459443,-4.222355284271019,2.6285638888758607,-1.506283349460482,-6.821012993812602,6.991952339254713,11.083970411987293,7.0,5.0,3.1576978294199463
10-28,2.7518242929801717,7.308810455150995,-8.511415838126407,13.427982050050497,3.566479569304861,15.441211236258374,-5.639934765433575,2.2421023720188993,0.02581872679793509,-7.62552409192846,7.361086338081242,12.605573148195779,9.0,3.0,3.57950112444586
10-29,1.5008421603692437,7.367156858318648,-3.4726397457733595,13.106726244719754,1.1035330547033184,16.886659036501964,-4.030328213911071,1.647486691061821,0.10319497630478526,-3.646623218491741,6.357638655997007,10.588397931569867,9.0,3.0,3.9593370359475197
10-30,5.271108621343939,7.648757806413893,-2.9180617012295995,13.106726244719754,3.1559857720212645,16.7748311841275,-3.8549683933767365,2.8377686635410044,0.2832811466320545,-4.986405505215111,5.661217844305706,9.457669189420388,9.0,3.0,4.369825906058671
10-31,3.846795788329285,8.56291047803867,-4.372512026271878,13.106726244719754,2.924287508748775,12.047149850021235,-4.104102514011471,1.6267042836307204,0.2146107001326974,-5.862798319365836,6.178762617019603,5.646689017538307,9.0,3.0,3.3179353023774882
11-01,3.1502677100017813,8.953807145828163,-2.186251405457206,8.503600120676495,2.678665891998846,13.804530099742685,-3.40027650296718,2.038660972329981,0.48931213432658555,-5.245513499184012,5.903529563661151,5.646689017538307,9.0,3.0,3.361418437374633
11-02,3.1502677100017813,7.801923484447169,-4.7227877635903255,9.915863455840752,2.300560279855522,13.804530099742685,-3.40027650296718,2.418929924811754,0.2832811466320545,-5.413139018222834,3.915686232316376,5.646689017538307,9.0,3.0,2.9751273388671713
11-03,2.3247996191472096,7.505046625739191,-7.090231527562535,8.229086978204329,2.6582450652022374,13.506866981906935,-3.589183281598369,3.08439656218686,0.5462143890500313,-5.156567636279815,3.6337660980972797,4.474072360547485,9.0,3.0,2.51054268622007
11-04,2.863882657445599,5.629101140842464,-5.381598270537267,10.025863843582256,3.2690060257975384,14.327031821088957,-3.2610844298912665,2.6230196873765252,0.41089142115008975,-4.12794038221304,4.045253526901659,7.300904866293608,9.0,3.0,3.1436943256530934
11-05,0.11812301182396454,5.233735627276079,-6.479822494350583,12.103936415068992,3.3428220054164437,11.40032946758907,-3.4479328025970375,0.43267586836896943,1.4067827644994704,-4.680887395571333,3.4459554380280464,3.496900688365522,9.0,3.0,2.197718216159801
11-06,-0.4441378842962066,6.6123579431823325,-4.440787896295809,11.086250647438472,3.6169990920031108,10.841444179235568,-4.22991329496504,0.9448834917363844,1.5652813819280256,-5.57576756103667,2.7867263972010425,3.147909283961615,8.0,4.0,2.159270481674402
11-07,-0.4455453210596599,5.201970455963085,-4.2203966533702335,12.926743607085125,4.922199074619952,9.808195553027351,-3.8485139931555077,3.0019515469505835,1.5652813819280256,-7.709702182776565,1.3449879866028551,0.9771823225544108,8.0,4.0,1.9603628148641186
11-08,-0.3792868478748655,5.733021573908599,-4.78311143691813,14.62068921208598,4.139166985011247,7.70090915701468,-3.4787975620704,2.601006339684327,1.7514169151916308,-10.921707476697524,0.5937267776741885,0.9771823225544108,8.0,4.0,1.546184663297012
11-09,1.1690229240450243,6.722287588884962,-0.14067422379186797,15.838534289771053,2.858362035105156,7.473192908389755,-5.4524744165771155,2.035566768655996,1.9920013135002537,-7.80702145577181,-0.08521234291746853,0.9771823225544108,8.0,4.0,2.1317306426540292
11-10,1.0066551880966697,7.008348958132994,-1.9872253217201208,15.036882765900081,3.2504754391683424,7.88227672419308,-4.820152863106835,-1.3072578582881096,3.5738312020171574,-5.147649413482687,-0.874449641767527,0.3140901338890272,7.0,5.0,1.9946521094193395
11-11,0.6656922331487963,6.566983210494907,-3.9523341077042744,16.230475076857054,3.8581292613592897,8.333335036931638,-5.328080568682898,-0.18830454239114924,3.512464728831334,-4.284161318026031,-0.6152116374138445,0.43275658371411074,7.0,5.0,2.102645329759911
11-12,2.650718309295572,6.7298359281646905,-3.5100189970381703,16.923616484241037,3.673408280480185,8.940695085820796,-4.157479353777067,0.31136006965674423,3.1043800804009996,-3.8423660353486757,-1.4329073167323354,2.3731479401700417,8.0,4.0,2.647032539611151
11-13,2.251011157325405,6.926617938814437,-1.3350377687802764,16.937763777964108,2.5597752004371883,10.722989660557666,-6.709709080982138,0.35272988903779606,1.7665702322369223,-2.7684705010776,-1.4874259073578693,0.3140901338890272,8.0,4.0,2.4609087276720554
11-14,0.40531776712559714,6.302570091284874,-0.7967695768637286,17.743986860606523,2.3931010018972017,10.16434207170211,-7.940709626607967,0.6002216890673056,1.9380860341320045,-3.79310194494689,-0.8471912846770975,-0.6979828088078155,7.0,5.0,2.1226558561593434
11-15,-0.9863528786132388,7.408747581750355,-0.8660508235737724,18.706357814233694,2.980379829991552,9.246408030473066,-7.180397397439709,0.4139438143989106,2.7613422552518903,-4.315635888284855,-1.1007913985647277,-0.6979828088078155,6.0,6.0,2.1974973442346126
11-16,0.06507388113385025,8.95072896514585,1.9284043861090394,18.63476581249665,1.6563702073597353,9.54227196701914,-9.564743261248367,0.2794128642664759,2.229653083365369,-5.213035074392214,0.23216456347608794,-0.6979828088078155,9.0,3.0,2.33692371549365
11-17,0.3416347730593272,8.348391912823608,4.491916233475335,14.876264560117777,3.2689012065146543,9.534299366992531,-9.306819719175992,0.020694032531067597,3.1810818010354875,-5.629656645067273,0.7773374615330053,0.0,9.0,3.0,2.492003748653294
11-18,1.5617421182783147,6.577519508446775,5.000001733953303,14.335661784921202,3.1725239373757375,8.137639829654448,-12.015045608281252,1.7342833256346601,2.784125384197526,-6.63366034479426,1.392081419419812,0.0,9.0,3.0,2.1705727574005222
11-19,3.2373542198605922,6.2515187846801865,6.501365436766726,13.713793690387313,3.1148413930066567,7.18597060002396,-11.090810700010282,0.13496392631837642,1.5089181631002988,-5.032178648960295,1.4915191411195388,0.0,9.0,3.0,2.251438000524422
11-20,5.637841796323237,6.964157996190992,7.053610881298182,12.635665359073423,4.45726278763758,6.304796881363571,-11.809343900606054,-0.2292395726839389,-0.3318753304960302,-3.257261856904123,3.2430819297967353,0.0,7.0,4.0,2.5557247475827976
11-21,2.449638157055473,7.020079091112537,8.976640220079599,12.491917108355933,3.869947426389544,4.796636158756989,-14.766049477162332,0.5171165450150836,-0.7336212557996725,-4.164225282759703,3.8702806909801235,0.0,8.0,3.0,2.027363281835298
11-22,5.760554856389108,6.5708447653682445,9.59956032962718,11.327536536424986,2.0727870344766353,6.428508223240612,-15.141924648067102,0.07239600067919107,-0.6724861511496998,-4.632338558211112,1.5697354544498634,0.0,8.0,3.0,1.912931153602326
11-23,4.118489220383549,8.298106861469494,11.490546891794056,13.107475377495973,2.7918479023714355,5.518055809876134,-12.778020751268595,-0.9308034685693405,1.9508530669250135,0.0652009076250596,0.5447930171300058,0.0,9.0,2.0,2.8480454029360653
11-24,5.195632090129557,6.039376669534794,9.469012062110698,13.816292427383384,3.0578934518914473,5.464189589869604,-12.799402962329523,-0.64615102914662,1.9756871994685847,-1.8116248005180722,-1.5092553301220666,0.0,7.0,4.0,2.354304114022649
11-25,3.896725578248686,4.5845665301765415,10.650024084245265,13.840443752120846,1.5868781591098051,5.538747072939582,-13.836615596548596,0.8787906531131772,0.7963695109582881,-2.86535496645077,-1.292007931280299,0.0,8.0,3.0,1.9815472372193772
11-26,-0.3891765869237734,5.5021353481497615,6.543641638717556,14.224950146395432,1.0846327952428212,4.859010608415025,-15.546128372699583,2.8830800590958283,1.1940311521355278,-5.183726729973583,-2.8138894647353605,0.0,7.0,4.0,1.0298800494849711
11-27,0.9846401133510079,6.613845478702182,6.723160393493997,14.657278945467786,1.399877283987778,5.4160356380930486,-14.008152543333418,4.371320672136134,2.5979518276934455,-3.674669169875548,-2.401711074305295,0.0,8.0,3.0,1.889964797117593
11-28,2.7013776627622854,6.915528419083235,7.682839697902591,14.998955154419027,1.5142607096671847,3.9462667708702006,-16.057509774350446,3.6901496728976406,1.3452211793116673,-5.477703254017054,-2.0433978758185125,0.0,8.0,3.0,1.6013323635606518
11-29,0.90045173342587,8.243894077478979,7.023036130499337,14.821500882854188,-1.3546207997789987,3.4896022963063453,-14.21472863732488,3.0470931690351652,1.6226671141414635,-6.114263280535118,-2.4083926858719575,0.0,7.0,4.0,1.2546866666858658
11-30,0.134427858534278,8.055197260652381,1.8675891334621906,13.827064102676696,-0.25656488587768644,2.6951723383472155,-13.943959468185183,5.094975695080248,2.7951090890454626,-5.632852010680858,-4.505531031861347,0.0,7.0,4.0,0.8442190067661172
12-01,-0.6721585232076235,5.81436519865984,2.5666990119320188,13.614283970424095,-0.6742372612567762,0.8433346846084624,-15.043101967019016,6.489936877152827,4.560797612458669,-6.615237041690043,-3.603967801900244,0.0,6.0,5.0,0.6067262300135173
12-02,-1.7476070321968535,4.444704252769321,4.704687768776413,14.263430785067188,-0.2510953720141977,1.1770544537269265,-13.512923355335275,7.292682862989845,1.6810254590286333,-5.81928982227266,-4.116028120581278,0.0,6.0,5.0,0.6763868233298386
12-03,-0.9828873878192272,2.9196205781161324,4.806083595719011,13.755967962526675,0.8406077029400238,-0.6854825363115079,-13.258776413745322,5.919828469852876,0.6675124002642674,-5.245115989307692,-3.678496988237429,0.0,6.0,5.0,0.4215717828331506
12-04,-2.8970701330918365,5.137638696926914,4.922977865558114,14.205233385051946,0.1364628843692777,0.8860927475561161,-11.396127023640277,4.019602226370361,0.9854339806784008,-1.5992387019237542,-4.60217794428675,0.0,7.0,4.0,0.816568998630709
12-05,-1.3608893935842592,7.045698218202437,6.26238433104082,14.811379359535623,1.564953386204359,0.013459609942420802,-9.83366658227693,4.544550323961,1.6676520685181682,-0.7044244095880234,-6.514502666476783,0.0,7.0,4.0,1.4580495204565695
12-06,-0.650656011479998,6.106875495541038,5.965219164138774,10.633202692329146,-3.0050426130718018,0.39780065554207605,-12.843934684708124,4.315827807535331,2.139308383485384,-0.33194088203441063,-10.597461061692902,0.0,6.0,5.0,0.1774332454653759
12-07,-1.8915770374935588,5.519676445582078,6.8126814878108535,13.65252927242845,-5.563414863080683,1.7893334807430703,-10.387968867642543,2.366743547334733,1.2837970591480559,2.401430809064243,-9.592879298623842,0.0,7.0,4.0,0.5325293362725715
12-08,0.6248926492245038,6.236060003327724,7.984415985161268,10.86800477773388,-5.343038212142445,2.026819376656488,-8.032803428262113,1.1632512901626022,-0.26814078103723604,2.635048932304826,-8.528521221211225,0.0,7.0,4.0,0.7804991143265229
12-09,-0.3884471302020954,6.483639627681975,7.980704540535136,10.500830593360371,-5.35492914332258,0.773794034051553,-6.771109662578764,1.624726916962803,-3.3041586330807076,3.31744975319078,-6.50327973529924,0.0,6.0,5.0,0.6966017634416023
12-10,-2.269186529843283,5.7658672524430274,9.198944611584627,10.474955036045621,-5.716061851391674,2.9017326591692436,-5.412748662862834,1.271013477121055,-1.5093025925949481,2.4882181221636506,-6.094826664385466,0.0,6.0,5.0,0.9248837381207521
12-11,-0.2913921297577706,6.5396648773465555,9.58694020141034,9.607460955403369,-2.8947098789508283,3.372830307054265,-6.30989602352221,1.3598645948422505,-1.3581031184256929,2.8840693709718717,-5.966680211296244,0.0,6.0,5.0,1.3775040787563257
12-12,-3.484740483527413,7.229337057277635,9.922501808452147,9.961684809436127,-2.7945450766653526,4.782116112338686,-9.012829552180504,1.4485484219233589,-1.5421030216293767,2.4882181221636506,-7.558695601760822,0.0,6.0,5.0,0.9532910496523451
12-13,-0.8958735305339243,6.9719030272087,11.188734779728613,9.24838879708277,-0.20270099133649494,3.840052214360887,-7.407413618423458,3.0469485203357043,-1.8575333370723934,3.7672837441357894,-8.48217424738055,0.0,6.0,5.0,1.6014679465088033
12-14,0.10042070843685813,5.966003191308169,12.454976079129171,6.444421005445193,0.8318375687611863,4.438312582811398,-6.995847684736766,3.926074290792129,-3.1912933324350656,4.501240886162246,-10.224171290226613,0.0,8.0,3.0,1.5209978337873256
12-15,1.5732194589271589,5.075730718091984,12.941428002489689,6.566206497670592,1.4906079666435934,4.429936270386115,-7.893592076789083,4.024766693139299,-2.4205691241662923,7.247902863645717,-9.266095395273954,0.0,8.0,3.0,1.9807951562304018
12-16,0.7866129216788584,6.92412910309891,10.965538790804409,4.580432495261052,1.8087859117738394,5.065286783262482,-9.721923843704822,4.595188685609531,-1.8862904309201998,9.738874916357432,-8.899966766367564,0.0,8.0,3.0,1.9963890472378274
12-17,2.4100395426091668,7.207507711187613,13.120338534690557,6.405005839275605,1.157404155933708,2.611518132498612,-7.554195098009392,4.553116207767783,-1.3704606566713533,9.973122807583273,-8.777382673742375,0.0,8.0,3.0,2.4780012085936
12-18,4.0677416263657475,6.927333485593616,12.582854410126512,4.773200604208995,0.2853137354487654,0.5301931063864395,-7.863789107699244,5.267301851132838,0.1633446027379233,10.371677175558373,-7.592344916470102,0.0,9.0,2.0,2.4594022144491547
12-19,3.528828771664965,6.779850557127154,12.019129302371063,5.678954684654416,0.24762675962566796,2.201435398740704,-5.938117945220648,5.2019692406865765,0.00859881039949796,10.621928954772237,-8.221639022893772,0.0,9.0,2.0,2.677380459327322
12-20,5.193745883766382,7.147684956054857,10.184571284703834,3.3929992092544756,0.3258028223422016,3.0282544408347256,-3.8560142111118934,5.773399616109914,0.13754817153938054,10.028732742640416,-9.9701164100196,0.0,9.0,2.0,2.615550708842891
12-21,5.791945884993402,7.012394369007764,8.650209659895628,4.129500354794289,1.7998909509481358,2.649989331463849,-2.347371954666941,5.546795323564488,0.12035710971091665,10.199517269738083,-10.703281579390692,0.0,9.0,2.0,2.7374955600049105
12-22,4.7565157354561505,6.8320155209586435,8.427842589834139,2.977253687248791,0.5841665465906227,2.810700658335631,-3.957896985505772,6.403940886699508,0.0,12.382001705303573,-11.46400106081381,0.0,8.0,3.0,2.4793782736756227
12-23,4.060834946551357,6.651628071562519,8.63238430845593,0.3463276084674509,0.8339557248765087,2.1884515952971992,-5.515787225020544,6.956858047752064,-0.1033015783440799,12.075788170179628,-11.28681245202504,0.0,8.0,3.0,2.0700272681460827
12-24,4.089520029893567,7.1883739793712085,8.858015000886605,-2.8362946864348304,-0.27798796067986364,2.1672918459717514,-6.019639667629468,6.369057436289502,-0.7625626011977356,12.885000605888223,-11.730251871522041,0.0,6.0,5.0,1.660876842569743
12-26,3.673270163536017,4.640479013117737,8.540309048644438,-2.456095446160351,0.3549659173220199,2.134044567606063,-3.2878414650961516,6.769768747933301,-0.5708320507148061,9.540733938869307,-11.729222460129446,0.0,7.0,4.0,1.4674649979106773
12-27,2.701382956553621,4.078574562938404,8.540309048644438,-2.3370181759999475,1.1007512464519265,1.7040884120633137,-5.301990759643021,6.769768747933301,-0.7524607304277117,7.908834379093133,-12.109993653185763,0.0,7.0,4.0,1.0251871695351416
12-28,3.7198029232744685,3.119589234470723,9.814816815583896,-0.28717473019205864,0.026524003089652685,1.8203309037550581,-4.41053637880773,7.9175173455376076,-1.130672839368782,9.161879810475536,-15.311878233615392,0.0,7.0,4.0,1.203349904516915
12-29,4.412234993711596,2.70364400320796,8.904554616288593,-3.8756737785738022,1.2056418725414177,1.3620704714297027,-5.121239036632655,7.105264155891867,0.5448658220984446,8.983258872244797,-21.2441863532029,0.0,8.0,3.0,0.4150363032504183
12-30,4.573269279179466,2.443279288753997,8.92331239071288,-2.0123707982550822,2.412884349553528,1.701529485293789,-4.274661710749783,8.276058101263652,-0.39989894119348585,8.289223793471532,-21.844351114693087,0.0,7.0,4.0,0.6740228436114508
12-31,4.127088766928823,3.8430751442564657,8.414030007965975,-0.512403403120063,1.796717823731546,1.9179379248862398,-1.8657844745245635,7.027815678588692,-2.332844071078342,8.861544953438043,-22.366862200359698,0.0,7.0,4.0,0.7425263458927601
