,2009,2010,2011,2012,2013,2014,2015,2016,2017,2018,2019,2020,ups,downs,end_day_sum,avg
01-02,-6.24499988555908,0.8900012969970632,1.5249977111816406,3.0649986267089844,-1.9449996948242045,2.375,2.990005493164034,-1.4300003051757812,8.040000915527344,-5.559997558593764,10.479995727539077,-28.010009765625,7.0,5.0,03-02,-1.1520839532216407
01-03,-6.619998931884769,1.0,1.6599998474120952,3.0649986267089844,-1.5449981689453125,4.2050018310546875,7.110000610351577,1.6200027465820312,8.040000915527344,-5.75,14.0,-25.24000549316402,8.0,4.0,03-03,0.12875016530355143
01-04,-6.739999771118168,1.1700000762939382,2.2900009155273366,2.9749984741210938,-2.3300018310546733,4.769996643066392,5.529998779296889,1.3700027465820312,6.0200042724609375,-6.3600006103515625,12.849998474121108,-23.77999877929686,8.0,4.0,03-04,-0.18625005086262814
01-05,-6.179999351501468,1.1499996185302699,2.055000305175774,4.060001373291016,-1.3349990844726562,6.334999084472642,5.9300003051757955,1.0200042724609233,6.759994506835909,-8.669998168945312,11.120002746582045,-24.699996948242188,8.0,4.0,03-05,-0.2045826117197708
01-06,-7.054999351501468,0.6749992370605433,3.069999694824226,3.8699989318847727,-1.0199966430664062,6.009994506835923,6.2050018310546875,2.8600006103515625,6.470001220703139,-5.959999084472642,10.510002136230483,-21.12999725341797,8.0,4.0,03-06,0.375417153040571
01-07,-6.109999656677246,0.5200004577636648,3.125,3.645000457763679,-1.4049987792968608,5.629997253417969,5.709999084472656,5.050003051757798,4.849998474121108,-3.6500015258789062,10.310005187988281,-20.12000274658206,8.0,4.0,03-07,0.629583438237507
01-08,-7.854999542236325,0.7700004577636719,2.4699974060058594,3.0400009155273438,-2.3899993896484233,5.034996032714844,2.784996032714858,8.0,4.430000305175781,-3.7000045776367188,9.48000335693358,-20.45000457763672,8.0,4.0,03-08,0.1345822016398127
01-09,-6.945000648498535,0.9349994659423828,3.125,3.1100006103515554,-2.9749984741210795,5.004997253417983,2.5,8.920005798339844,10.480003356933594,-3.2000045776367188,9.050003051757798,-26.01000213623047,8.0,4.0,03-09,0.3329169750213629
01-10,-6.540000915527344,0.625,2.7350006103515625,2.2050018310546804,-3.1500015258789062,4.745002746582031,3.0199966430664062,7.060005187988281,10.44000244140625,-1.5900039672851562,7.189994812011719,-26.639999389648423,8.0,4.0,03-10,0.008333206176758404
01-11,-4.945001602172852,1.0100002288818395,3.0100021362304688,1.9750022888183523,-2.3800048828125,6.270004272460952,0.7099990844726562,7.830001831054673,10.200004577636733,-2.1699981689453125,7.769996643066392,-31.80999755859375,8.0,4.0,03-11,-0.21083259582519562
01-12,-4.835000991821289,1.4349994659423864,2.520000457763679,2.470001220703132,-1.625,4.875,-0.535003662109375,7.1599960327148295,6.059997558593736,-0.5199966430664062,9.340003967285142,-27.23999786376953,7.0,5.0,03-12,-0.07458337148030807
01-13,-4.395000457763672,1.1149997711181712,1.9549980163574219,2.625,-0.9449996948242188,4.725006103515639,-0.9050064086914205,9.229995727539077,5.769996643066406,-0.18000030517578125,9.19000244140625,-32.25,7.0,5.0,03-13,-0.33875068028767724
01-14,-3.680000305175785,0.25,2.1800003051757812,2.5249977111816406,0.24500274658203125,3.160003662109375,-0.8950042724609375,9.340003967285156,6.709999084472656,-0.5699996948242188,9.370002746582031,-32.9599914550781,8.0,4.0,03-14,-0.36041545867919716
01-15,-3.534999847412106,1.0550022125244212,2.3249969482421804,3.1349983215332102,0.69000244140625,3.2550048828125,1.75,13.110000610351577,5.760002136230469,-1.5999984741210938,10.330001831054688,-33.77000427246094,9.0,3.0,03-15,0.20875056584676344
01-16,-4.215000152587891,0.12999725341796875,1.8050003051757741,2.8199996948242188,1.1949996948242188,3.6200027465820312,-1.2350006103515483,13.139999389648423,8.069999694824219,-1.5999984741210938,8.790000915527344,-37.51000213623047,8.0,4.0,03-16,-0.415833473205567
01-17,-3.3299999237060547,0.20499801635741477,1.164997100830071,2.8199996948242188,0.125,2.5500030517578267,0.9599990844726562,13.16000366210939,8.069999694824219,0.5400009155273438,2.3199996948242188,-34.30000305175783,10.0,2.0,03-17,-0.47625017166137695
01-18,-2.8149986267089844,0.834999084472642,1.164997100830071,1.8899993896484375,-0.714996337890625,2.9800033569335938,-0.45000457763673296,15.010002136230469,7.349998474121108,-4.1300048828125,4.599998474121094,-43.470001220703125,7.0,5.0,03-18,-1.479167302449546
01-19,-2.304998397827145,0.834999084472642,1.3649978637695312,2.9399986267089915,-0.8349990844726562,3.9800033569335938,0.7399978637695312,15.010002136230469,6.1200027465820455,-3.5100021362304545,6.599998474121108,-43.269996643066406,8.0,4.0,03-19,-1.027499675750729
01-20,-2.304998397827145,1.3850002288818324,2.9000015258789062,2.3349990844726562,-0.9500045776367188,2.5800018310546875,0.7399978637695312,13.090003967285156,5.489997863769517,-3.55999755859375,6.5500030517578125,-52.970001220703125,8.0,4.0,03-20,-2.059583028157553
01-21,-2.734998703002926,2.8199996948242223,2.654998779296875,3.0649986267089844,-0.8800048828125,2.5800018310546875,0.8050003051757812,17.480003356933594,5.330001831054702,-2.9300003051757812,6.470001220703125,-52.970001220703125,8.0,4.0,03-21,-1.5258332888285302
01-22,-2.095001220703125,2.5050010681152344,2.625,2.799999237060547,-0.8800048828125,4.0,-2.590003967285142,15.739997863769531,4.240005493164077,-2.8300018310546733,6.470001220703125,-53.24000549316406,7.0,5.0,03-22,-1.9379177093505824
01-23,-2.25,2.2000007629394602,2.3899993896484304,2.904998779296875,-1.2000045776367188,3.9250030517578267,0.625,17.779998779296875,4.010002136230483,-3.3000030517577983,8.76999664306642,-49.70000457763673,8.0,4.0,03-23,-1.1537510553995733
01-24,-0.9249992370605469,2.4850006103515625,2.4850006103515554,2.8199996948242188,-3.345001220703139,6.759994506835966,-0.69500732421875,18.729995727539062,2.4499969482422017,-4.990005493164034,10.419998168945312,-46.08999633789064,7.0,5.0,03-24,-0.8245852788289358
01-25,-1.1299991607666016,2.174999237060547,2.3499984741210938,2.3600006103515625,-4.120002746582031,5.010002136230469,-1.1650009155273295,18.729995727539062,3.1699981689453125,-8.900001525878892,3.190002441406236,-50.459999084472656,7.0,5.0,03-25,-2.399167219797769
01-26,-0.9849987030029332,2.7299995422363317,1.7449989318847656,2.0649986267089844,-3.0550003051757812,4.839996337890639,-2.6800003051757812,17.259994506835938,2.7700042724609517,-11.989997863769531,3.3600006103515625,-40.909996032714844,7.0,5.0,03-26,-2.070833365122475
01-27,-1.125,2.960000991821289,2.3800010681152344,2.295001983642571,-2.980003356933608,3.6100006103515625,-1.75,17.039993286132827,1.7700042724609375,-7.6399993896484375,4.660003662109361,-37.25,7.0,5.0,03-27,-1.3358330726623553
01-28,-2.0149993896484375,2.8400020599365234,3.1049995422363352,2.970001220703125,-2.980003356933608,3.9900054931640625,0.3600006103515483,17.050003051757812,1.7900009155273438,-7.659996032714844,6.380004882812486,-38.31999969482422,8.0,4.0,03-28,-1.040831724802656
01-29,-0.3350009918212855,3.6949996948242188,2.5499992370605398,3.1349983215332102,-3.510002136230483,3.6050033569335938,-2.2050018310546875,13.829994201660156,2.94000244140625,-7.659996032714844,5.599998474121094,-37.709999084472656,7.0,5.0,03-29,-1.3387503623962411
01-30,-0.3900012969970703,3.120000839233395,3.154998779296875,2.654998779296875,-3.095001220703139,2.4300003051757812,0.04000091552735796,13.810005187988281,3.7399978637695312,-6.439994812011719,5.029998779296889,-33.349998474121094,8.0,4.0,03-30,-0.774582862854003
01-31,-0.3100013732910121,3.2650012969970668,5.825000762939453,2.5999984741210938,-2.2249984741210938,4.224998474121094,0.3800048828125284,14.980003356933594,5.759994506835923,-6.819999694824219,6.279998779296889,-34.839996337890625,8.0,4.0,03-31,-0.07333294550577563
02-01,-0.2950000762939453,3.2650012969970668,4.959999084472663,1.9599990844726562,-3.3099975585937784,8.295005798339844,0.9049987792968892,16.31000518798828,5.209999084472642,-7.6500015258789205,7.100006103515639,-35.41999816894531,8.0,4.0,04-01,0.1108347574869768
02-02,0.9899997711181605,3.0550022125244176,5.3899993896484375,2.944999694824226,-2.3899993896484233,9.885002136230469,0.9049987792968892,18.860000610351562,4.650001525878906,-4.010002136230469,7.959999084472642,-37.73999786376953,9.0,3.0,04-02,0.8750003178914406
02-03,1.235000610351559,3.420001983642578,4.805000305175781,2.2900009155273366,-2.625,10.194999694824205,-0.6800003051757955,16.790000915527344,4.139999389648452,-3.720001220703111,7.979995727539034,-41.44999694824219,8.0,4.0,04-03,0.19833342234293264
02-04,1.5,3.835000991821282,4.625,3.4000015258789134,-3.1100006103515483,10.009994506835923,-0.9550018310546875,15.790000915527315,5.160003662109375,-1.8000030517578125,8.319999694824205,-42.63999938964844,8.0,4.0,04-04,0.3445830345153773
02-05,2.1949996948242223,4.079999923706055,5.20000076293946,2.4000015258789134,-2.8249969482421875,10.019996643066392,-2.9549942016601705,20.239997863769517,4.849998474121094,-1.19000244140625,7.5699996948242045,-44.970001220703125,8.0,4.0,04-05,0.38458331425984343
02-06,2.7200012207031214,4.619998931884766,5.130001068115234,2.4000015258789134,-2.8050003051757812,9.224998474121108,-3.6399993896484375,22.54000091552733,5.0800018310546875,-3.1699981689453125,8.480003356933594,-43.62999725341797,8.0,4.0,04-06,0.5791676839192709
02-07,2.505001068115238,4.959999084472663,5.160003662109375,2.2050018310546875,-2.035003662109375,7.610000610351548,-1.3000030517578125,21.779998779296875,4.989997863769517,-3.339996337890611,10.150001525878906,-42.18000030517578,8.0,4.0,04-07,0.8754167556762695
02-08,1.7700004577636719,4.884998321533196,4.840000152587891,2.0349998474121094,-3.5750045776367188,4.57000732421875,-0.9600067138671733,22.43000030517578,4.900001525878906,1.3699951171875142,10.099998474121094,-34.26000213623047,9.0,3.0,04-08,1.5087490081787127
02-09,1.7700004577636719,4.1449985504150355,4.960002899169915,0.9449996948242188,-3.9500045776367045,4.285003662109375,-0.3450012207031392,21.09000396728517,5.139999389648452,-2.980003356933608,9.680000305175781,-29.800003051757812,8.0,4.0,04-09,1.2449997266133626
02-10,2.7049999237060547,3.8499984741210866,4.275001525878906,2.729999542236328,-3.350006103515625,5.8800048828125,-1.0550003051758097,20.740005493164062,5.5100021362304545,-4.370002746582031,9.55999755859375,-29.800003051757812,8.0,4.0,04-10,1.389583110809322
02-11,2.719999313354492,3.8500003814697266,3.4799995422363352,1.5849990844726562,-2.345001220703125,5.2649993896484375,-1.0449981689453267,21.340003967285156,4.9800033569335795,-3.6200027465820312,10.180000305175781,-30.860000610351577,8.0,4.0,04-11,1.294166882832842
02-12,2.97500038146973,4.159999847412109,3.2250022888183594,0.5049972534179688,-0.8949966430664205,4.9650039672851705,-2.345001220703125,20.050003051757812,5.25,-4.700004577636719,7.290000915527344,-31.270004272460938,8.0,4.0,04-12,0.767500082651774
02-13,4.380001068115231,3.7350006103515625,2.6350021362304545,1.7299995422363281,-2.2249984741210938,1.3650054931640767,-3.635002136230483,18.059997558593736,5.25,-5.279998779296889,7.010002136230469,-27.110000610351562,8.0,4.0,04-13,0.492917378743486
02-14,5.375,3.9550018310546875,1.8899993896484304,2.0100021362304688,-0.6949996948242188,-0.5399932861328267,-3.130004882812486,19.31999969482419,4.4899978637695455,-7.040000915527344,7.259994506835923,-22.980003356933594,7.0,5.0,04-14,0.8262494405110647
02-15,4.875,4.045001983642578,1.9599990844726562,2.2999992370605398,-1.5699996948242188,0.9850006103515625,-3.9449996948242045,20.61000061035155,4.559997558593764,-6.150001525878892,6.489997863769531,-25.650001525878906,8.0,4.0,04-15,0.7091662089029965
02-16,5.029998779296875,4.045001983642578,1.7849998474121094,2.7150001525878906,-2.135002136230497,0.970001220703125,-4.290000915527315,20.61000061035155,3.290000915527358,-6.160003662109375,7.739997863769531,-26.540000915527344,8.0,4.0,04-16,0.5883328119913737
02-17,5.029998779296875,3.850000381469723,1.520000457763679,1.7999992370605398,-0.5800018310547159,0.970001220703125,-4.290000915527315,19.230003356933594,2.049995422363267,-3.6300048828125,9.669998168945312,-30.849998474121094,8.0,4.0,04-17,0.39749924341837445
02-18,5.174999237060543,3.8100013732910227,1.2550010681152344,2.4650001525878906,-1.6550064086914205,0.970001220703125,-4.4850006103515625,19.819999694824247,2.3899993896484375,-2.3199996948242188,9.669998168945312,-30.849998474121094,8.0,4.0,04-18,0.5204162597656262
02-19,6.340000152587891,3.3400020599365305,2.1650009155273366,3.18499755859375,-1.6550064086914205,0.7350006103515625,-4.375,19.72000122070314,1.739997863769517,-2.2099990844726705,9.669998168945312,-31.039993286132812,8.0,4.0,04-19,0.6345833142598446
02-20,6.310001373291019,4.064998626708977,3.0400009155273366,3.25,0.44499969482421875,1.4400024414062358,-5.0149993896484375,19.029998779296875,2.0,-2.2099990844726705,8.66000366210939,-30.459999084472656,9.0,3.0,04-20,0.8795839945475237
02-21,6.054999351501461,4.170001983642578,3.0400009155273366,3.25,5.284996032714844,4.7950057983398295,-4.4050064086914205,19.830001831054673,2.0,-2.4300003051758097,7.260002136230483,-25.60000610351561,9.0,3.0,04-21,1.9374996026356968
02-22,6.279999732971191,4.209999084472663,3.0400009155273366,3.3349990844726634,4.634994506835923,4.009994506835923,-4.720001220703139,19.349998474121094,2.190002441406236,-6.220001220703125,8.419998168945327,-24.169998168945312,9.0,3.0,04-22,1.6966655254363985
02-23,6.500000953674316,4.519998550415043,3.2949981689453125,4.400001525878906,6.625000000000014,3.9199981689452983,-5.045005798339844,21.199996948242173,3.7700042724609517,-8.58999633789061,4.919998168945298,-27.259994506835938,9.0,3.0,04-23,1.5212500095367432
02-24,5.80000114440918,4.194999694824222,4.295001983642578,4.810001373291016,7.250000000000014,3.8899993896484233,-5.185005187988281,20.389999389648438,2.6300048828124716,-8.65000152587892,5.300003051757827,-25.199996948242188,9.0,3.0,04-24,1.6270839373270647
02-25,6.05000114440918,4.594999313354489,3.604999542236328,4.034999847412095,7.339996337890639,2.7649993896484233,-4.6350021362304545,13.25,5.560005187988281,-11.760002136230469,4.319999694824219,-19.559997558593736,9.0,3.0,04-25,1.2970832188924166
02-26,6.00500011444092,4.864997863769531,2.5250015258789134,4.529998779296868,6.1500015258789205,1.5849990844726705,-4.979995727539077,15.02999877929686,8.370002746582017,-9.65000152587892,5.1699981689453125,-19.019996643066406,9.0,3.0,04-26,1.7150003910064673
02-27,7.199999809265135,4.170000076293949,2.7950019836425852,5.614997863769524,5.159996032714844,0.40999603271482954,-6.035003662109361,16.06999969482422,8.030006408691392,-7.43000030517581,4.470001220703125,-13.069999694824219,9.0,3.0,04-27,2.2820829550425175
02-28,6.994998931884769,3.2899990081787145,2.6100006103515696,5.619998931884766,6.125,-2.420005798339858,-8.424995422363295,17.020004272460923,8.050003051757812,-4.560005187988281,3.55999755859375,-11.709999084472685,8.0,4.0,04-28,2.1795830726623486
02-29,0.0,0.0,0.0,6.459999084472656,0.0,0.0,0.0,16.459999084472642,0.0,0.0,0.0,-9.309997558593764,2.0,1.0,04-29,1.1341667175292944
03-01,6.600000381469727,3.7699985504150426,2.930000305175774,6.279998779296875,5.059997558593736,-2.7949981689453125,-8.47000122070314,13.40999603271483,7.19000244140625,-3.410003662109361,5.049995422363281,-13.819999694824247,8.0,4.0,04-30,1.8162488937377883
03-02,7.0399990081787145,3.659999847412106,2.7949981689453196,6.5800018310546875,5.715003967285156,-2.029998779296875,-7.7649993896484375,13.65999603271483,8.91000366210939,-2.279998779296875,5.75,-9.43000030517581,8.0,4.0,05-01,2.7170837720235173
03-03,7.159999847412113,3.4899997711181676,2.200000762939446,6.80999755859375,5.775001525878906,-1.7200012207031108,-6.18499755859375,12.469993591308608,7.779998779296861,-6.880004882812528,6.1399993896484375,-8.510002136230483,8.0,4.0,05-02,2.3774987856547014
03-04,6.599999427795414,4.164999008178722,3.049999237060547,7.709999084472649,4.805000305175781,-3.285003662109361,-6.584999084472656,7.9000015258789205,8.260002136230455,-5.8400039672851705,4.1100006103515625,-12.080001831054702,8.0,4.0,05-03,1.56749939918518
03-05,7.784999847412109,3.5400009155273438,3.305000305175774,7.784999847412109,4.489997863769531,-2.959999084472642,-6.944999694824219,7.869995117187472,8.270004272460923,-7.050003051757827,4.720001220703125,-11.819999694824219,8.0,4.0,05-04,1.5824998219807902
03-06,7.300000190734867,3.864999771118164,2.2900009155273438,8.389999389648445,4.874999999999986,-3.75,-3.7099990844726562,6.1299972534179545,8.0,-9.360000610351562,4.919998168945327,-13.449996948242202,8.0,4.0,05-05,1.2916665871938058
03-07,8.5,2.460000991821282,1.4350013732910156,8.319999694824233,6.504997253417969,-2.44500732421875,-3.6299972534179688,5.2199935913085795,8.419998168945327,-9.30999755859375,6.920005798339858,-10.580001831054688,8.0,4.0,05-06,1.8179160753885923
03-08,8.13500022888184,1.960000991821282,0.779998779296875,7.129997253417962,7.470001220703125,-2.2050018310546875,-5.3549957275390625,7.079994201660142,2.369995117187514,-10.44000244140625,8.0,-9.140007019042969,8.0,4.0,05-07,1.3154150644938143
03-09,8.21500015258789,2.2700004577636648,1.1699981689453125,6.450000762939453,6.989997863769531,-2.4150009155273438,-5.1199951171875,6.30999755859375,6.959999084472656,-11.25,4.9899978637695455,-8.610000610351562,8.0,4.0,05-08,1.3299996058146164
03-10,6.620000839233398,1.8850002288818253,1.895000457763679,6.905002593994141,7.720001220703125,-0.7799987792968608,-2.80999755859375,5.6699981689453125,8.47000122070314,-10.25,3.159996032714858,-13.180000305175781,8.0,4.0,05-09,1.2754170099894242
03-11,6.510000228881836,0.7299995422363281,1.4449996948242188,6.710002899169915,8.680000305175781,0.6150054931640909,-1.5649948120117188,3.2999954223632812,5.75,-9.779998779296875,2.719993591308608,-8.169998168945312,9.0,3.0,05-10,1.4120837847391794
03-12,4.694999694824219,-0.18500137329102273,1.720001220703125,6.42500305175782,8.0,0.7649993896484517,-2.3949966430664062,2.7000045776367188,5.1699981689453125,-9.409996032714858,2.8699951171875,0.45999908447265625,9.0,3.0,05-11,1.734583854675293
03-13,5.860000610351559,1.2999992370605327,1.970001220703125,5.81500244140625,6.80999755859375,0.68499755859375,0.5699996948242188,3.9900054931640767,5.1699981689453125,-9.01999664306642,2.6899948120117188,-2.209999084472642,10.0,2.0,05-12,1.9691667556762695
03-14,5.30000114440918,0.9700012207031179,1.0750007629394602,6.1300010681152415,5.845001220703125,1.0199966430664205,-1.375,2.6800003051757955,6.1199951171875,-7.9899978637695455,3.1999969482421733,8.0,10.0,2.0,05-13,2.5812497138977055
03-15,5.3749999999999964,1.575000762939446,1.5949974060058665,6.045001983642578,6.415000915527344,1.7249984741210938,-2.7949981689452983,2.6599960327148295,3.80999755859375,-8.169998168945312,2.209999084472642,5.209999084472656,10.0,2.0,05-14,2.137916247049966
03-16,4.475000381469727,1.5,2.2350006103515696,5.80000305175782,6.055000305175781,0.8849945068359233,-2.340003967285142,0.80999755859375,3.839996337890611,-14.5,0.3000030517577983,1.8199996948242188,10.0,2.0,05-15,0.9066659609476714
03-17,3.9599990844726562,0.8699989318847727,1.2749977111816406,4.330001831054695,7.8549957275390625,0.29999542236328125,-0.9300003051757528,-1.9100036621093892,2.6300048828125284,-10.25,0.6100006103515625,1.6199951171875,9.0,3.0,05-16,0.863332112630213
03-18,3.4499988555908168,1.0200004577636719,0.5050010681152344,3.8600006103515625,7.68499755859375,-0.7000045776367188,-2.120002746582017,-2.2000045776367045,2.410003662109375,-10.19000244140625,0.9900054931640341,11.319999694824219,8.0,4.0,05-17,1.3358327547709143
03-19,3.6550006866455043,0.07999801635741477,0.03000259399413352,3.645000457763672,7.8000030517578125,0.6999969482421875,1.31500244140625,-0.7299957275390625,1.8400039672851562,-9.720001220703125,1.0400009155273295,9.410003662109375,10.0,2.0,05-18,1.588751316070554
03-20,3.7450008392333984,0.31999969482421164,-0.5699996948242259,3.9099998474121094,7.730003356933594,-0.05500030517580967,1.3199996948242188,-1.8799972534179545,-0.089996337890625,-10.349998474121094,1.120002746582017,7.1999969482421875,7.0,5.0,05-19,1.0333342552185023
03-21,3.5400009155273438,0.0749969482421804,0.26000213623046164,3.8050003051757812,9.130004882812514,0.12000274658201704,2.25,-2.5,1.0,-10.449996948242202,0.279998779296875,19.349998474121094,10.0,2.0,05-20,2.2383340199788386
03-22,3.829999923706051,-0.5600013732910227,0.49500274658203125,2.9449996948242188,11.43499755859375,1.4149932861328125,1.7800064086914205,-3.4499969482421875,1.2300033569335938,-6.899993896484389,5.0799942016601705,20.720001220703125,9.0,3.0,05-21,3.1683338483174643
03-23,4.25,-0.845001220703125,0.40000152587890625,1.954998016357429,11.584999084472656,1.2399978637695312,1.25,-2.75,0.769996643066392,-4.530006408691392,0.6800003051757528,23.489997863769517,9.0,3.0,05-22,3.1245819727579724
03-24,4.454999923706055,-0.5349998474121094,0.125,2.0649986267089844,12.525001525878906,1.9799957275390625,1.7199935913085795,-3.309997558593764,2.94000244140625,-6.900001525878906,1.9400024414062358,13.939994812011705,9.0,3.0,05-23,2.578749179840083
03-25,4.309999465942386,-1.5650005340576136,-0.6949996948242259,1.9249992370605398,11.830001831054688,2.150001525878892,3.2349929809570312,-3.19000244140625,2.5999984741210938,-9.090003967285156,1.4200057983398295,10.27999877929686,8.0,4.0,05-24,1.9341659545898395
03-26,3.395000457763672,-1.6900005340576207,-1.3599967956542898,2.6949996948242116,11.755004882812514,3.3799972534179688,3.8149948120117188,-2.970001220703125,2.879997253417983,-9.220001220703125,0.12000274658203125,6.229995727539048,8.0,4.0,05-25,1.5858327547709157
03-27,3.6149997711181676,-2.1150016784667933,-1.7249984741210866,2.5300025939941264,12.06500244140625,3.8199996948242188,3.1349945068359233,-1.6399993896484233,3.120002746582017,-9.200004577636719,-1.5999984741210938,10.089996337890625,7.0,5.0,05-26,1.841249624888101
03-28,3.8800010681152273,-1.7700004577636754,-1.0249977111816335,3.0100021362304616,11.805000305175795,2.7700042724609233,2.3499984741210795,-1.0800018310546875,1.9700012207031108,-7.260002136230469,-3.2399978637695312,10.260002136230469,7.0,5.0,05-27,1.805834134419756
03-29,4.075000762939453,-1.9500007629394531,-1.6299972534179688,2.555000305175767,11.349998474121094,2.6999969482421875,1.114997863769517,-2.25,1.1700057983398295,-8.889999389648438,-6.050003051757827,14.080001831054688,7.0,5.0,05-28,1.3562501271565708
03-30,3.4700012207031214,-2.095001220703125,-4.299999237060547,4.199996948242195,11.334999084472656,2.3299942016601705,2.3249969482421733,-3.5800018310546875,1.709999084472642,-5.760002136230483,-6.470001220703125,16.43000030517578,7.0,5.0,05-29,1.632915178934731
03-31,3.4549999237060547,-1.7700004577636648,-3.9399986267089844,2.75,11.584999084472656,3.3949966430664062,1.8000030517578125,-3.1699981689452983,1.8300018310546875,-4.860000610351577,-6.709999084472642,18.75,7.0,5.0,05-30,1.9262502988179542
04-01,2.170000076293949,-2.3199996948242188,-4.0,3.7099990844726562,11.470001220703125,1.8050003051757812,2.339996337890625,-5.410003662109361,2.1599960327148295,-7.220001220703139,-7.040000915527344,22.459999084472656,7.0,5.0,05-31,1.6770822207132967
04-02,1.0200004577636719,-0.9150009155273509,-4.3449974060058665,2.2900009155273366,11.705001831054702,1.4950027465820455,3.1200027465820312,-3.590003967285142,1.4000015258789062,-6.830001831054702,-7.059997558593736,21.909996032714844,7.0,5.0,06-01,1.6833337148030616
04-03,-0.045000076293948865,-1.4249992370605469,-3.895000457763679,3.2900009155273366,12.19000244140625,1.8150024414062358,2.3349990844726562,-4.5100021362304545,1.279998779296875,-8.75,-7.400001525878906,21.23999786376953,6.0,6.0,06-02,1.3437498410542792
04-04,0.8850002288818324,-2.1899986267089844,-4.8649978637695455,4.170001983642571,11.205001831054688,1.9250030517578267,2.404998779296875,-4.209999084472642,1.5900039672851562,-9.360000610351562,-7.760002136230483,16.740005493164077,7.0,5.0,06-03,0.877918084462484
04-05,0.6800003051757741,-1.0949974060058523,-4.79499816894532,3.5750007629394602,10.94000244140625,4.629997253417969,2.0149993896484375,-3.4499969482421875,1.3600006103515625,-10.75,-10.30999755859375,20.889999389648438,7.0,5.0,06-04,1.1408341725667317
04-06,0.16499900817870738,-1.43499755859375,-4.82500076293946,2.354999542236328,11.84500122070311,4.3249969482421875,2.885002136230483,-4.099998474121094,3.8900070190429688,-7.3799972534179545,-6.620002746582031,25.050003051757812,7.0,5.0,06-05,2.179584344228109
04-07,0.8999996185302734,-1.3599967956542827,-4.950000762939453,1.7599983215332031,11.055000305175767,5.394996643066406,2.5450057983398438,-2.410003662109361,4.369995117187514,-7.180000305175781,-2.69000244140625,20.590003967285156,7.0,5.0,06-06,2.335416316986086
04-08,0.8649997711181605,-1.9850006103515625,-5.204998016357422,2.3699989318847727,9.270004272460923,5.680000305175781,1.9300003051758097,-4.160003662109375,2.5699996948242188,-7.1100006103515625,-2.0500030517578125,18.330001831054688,7.0,5.0,06-07,1.7087499300638849
04-09,0.014999389648441053,-3.4449996948242188,-5.420001983642585,3.779998779296882,8.670005798339844,4.084999084472656,0.21500396728517046,-3.559997558593736,2.589996337890611,-5.680000305175781,-1.9300003051757812,13.950004577636733,7.0,5.0,06-08,1.1058340072631863
04-10,-0.04500007629394176,-4.184999465942379,-4.6300010681152415,4.86000061035157,7.665000915527344,6.594993591308608,-0.4349975585937642,-3.910003662109375,2.05999755859375,-6.430000305175781,-2.5500030517578125,20.26999664306642,5.0,7.0,06-09,1.605415344238283
04-11,-0.42000007629394176,-3.379999160766605,-5.245002746582038,3.6349983215332102,6.8300018310546875,8.55499267578125,-0.7449951171875142,-0.7300033569335795,1.7900009155273295,-5.349998474121094,-1.5299987792968892,19.720001220703125,5.0,7.0,06-10,1.9274997711181616
04-12,0.19499969482422586,-3.4899997711181676,-4.6550025939941335,2.875,9.334999084472656,8.275001525878906,-0.1699981689453125,-1.990005493164034,2.7900009155273295,-6.950004577636719,-1.6100006103515767,17.73999786376953,6.0,6.0,06-11,1.8620823224385588
04-13,0.059999465942386365,-3.7100009918212926,-3.9099998474121094,3.979999542236328,11.415000915527358,8.620002746582031,1.1450042724609233,-3.280006408691392,3.5,-5.849998474121094,-2.0800018310546875,15.360000610351562,7.0,5.0,06-12,2.104166666666668
04-14,0.5599994659423864,-3.8000011444091832,-3.6149978637695455,2.529998779296875,10.229995727539077,8.520004272460923,1.959999084472642,-4.080001831054702,4.540000915527344,-7.839996337890625,0.37999725341796875,16.25,8.0,4.0,06-13,2.1362498601277635
04-15,0.40500068664551137,-3.2050018310546946,-4.270000457763672,3.625,9.754997253417983,8.53500366210936,2.305000305175753,-6.110000610351577,4.75,-8.239997863769531,0.519996643066392,20.55999755859375,8.0,4.0,06-14,2.385832945505773
04-16,-0.32999992370605113,-2.19000244140625,-3.7750015258789062,2.5050010681152344,8.199996948242202,6.9850006103515625,3.6200027465820455,-8.059997558593764,6.180000305175781,-8.469993591308608,-1.4100036621093892,10.659996032714858,6.0,6.0,06-15,1.1595832506815595
04-17,-0.07999992370605824,-3.0649986267089773,-2.9449996948242188,1.785003662109375,9.275001525878906,2.05999755859375,3.3199996948242188,-8.669998168945312,6.1100006103515625,-9.77999877929689,-0.40000152587892046,8.31999969482419,6.0,6.0,06-16,0.4941671689351355
04-18,0.3950004577636754,-2.309997558593743,-3.7099990844726562,1.720001220703125,7.310005187988281,3.8650054931640767,1.5900039672851562,-9.129997253417955,6.760002136230483,-9.889999389648438,-2.9499969482421875,12.099998474121108,7.0,5.0,06-17,0.4791688919067439
04-19,-0.05999946594237926,-1.8299980163574148,-4.584999084472656,0.38000106811522727,6.120002746582031,3.2400054931640767,2.160003662109375,-9.930000305175753,6.5,-5.680000305175781,-0.6899948120117188,13.66000366210939,6.0,6.0,06-18,0.7737520535786997
04-20,0.025001525878909803,-1.9350013732910156,-5.284999847412109,1.4249992370605469,6.279998779296875,2.9850006103515483,2.8300018310546875,-9.449996948242173,4.949996948242173,-3.490005493164091,-2.309997558593736,13.770004272460952,7.0,5.0,06-19,0.8162501653035473
04-21,-0.1999988555908203,-1.9749984741211009,-5.2649993896484375,1.8849983215332102,6.510002136230469,3.5250015258789062,3.1449966430664062,-3.3000030517578267,5.220001220703139,-3.8799972534179545,-2.559997558593736,16.860000610351577,6.0,6.0,06-20,1.6637504895528192
04-22,-0.4200000762939453,-2.0449981689453054,-4.340000152587891,2.5849990844726634,5.30999755859375,3.6149978637695312,3.470001220703111,-5.0100021362304545,3.0999984741210795,-4.75,-1.579994201660142,14.800003051757827,6.0,6.0,06-21,1.2279168764750186
04-23,-0.2550010681152379,-2.3049964904785085,-4.0,2.5149993896484446,4.68499755859375,3.6449966430664062,4.869995117187528,-4.180000305175781,2.769996643066392,-3.739997863769517,-1.9599990844726705,13.900001525878906,6.0,6.0,06-22,1.3287493387858094
04-24,-1.3199996948242188,-1.9550018310546875,-2.8499984741210938,2.020000457763672,4.595001220703125,4.355003356933608,5.645004272460923,-4.5400009155273295,2.6699981689452983,-0.6299972534179688,-0.9799957275390625,10.980003356933608,6.0,6.0,06-23,1.4991680781046561
04-25,-1.18499946594239,-2.5900001525878906,-2.845001220703118,0.9350013732910156,1.5849990844726562,5.795005798339858,7.744995117187514,-4.7900009155273295,-0.1399993896484375,-2.739997863769517,-0.3399963378906392,7.6699981689453125,5.0,7.0,06-24,0.7583336830139196
04-26,-1.2600002288818395,-2.8100013732910085,-3.1150016784667898,-1.4000015258789062,1.9850006103515625,6.449996948242202,7.8649978637695455,-5.740005493164034,0.1999969482421875,-3.3999938964844034,-1.7399978637695455,7.690002441406236,5.0,7.0,06-25,0.3937493960062672
04-27,-0.5299987792968821,-1.9300003051757741,-2.930000305175774,-0.7350006103515554,-0.17000579833984375,5.779998779296875,7.544998168945327,-5.180000305175753,-0.720001220703125,-2.5500030517578125,-0.20999908447265625,5.8799972534179545,3.0,9.0,06-26,0.354165395100915
04-28,-0.1350002288818395,-2.4099998474121023,-3.5649986267089915,-1.954998016357429,0.404998779296875,6.5,7.5900039672851705,-1.5499954223632812,0.8400039672851562,-0.769996643066392,-0.8400039672851562,10.389999389648438,5.0,7.0,06-27,1.2083344459533707
04-29,-0.5749988555908274,-4.0649986267089915,-3.7549972534179688,-1.2000007629394602,0.9899978637695312,5.7350006103515625,6.885002136230469,-7.659996032714844,1.3600006103515625,-0.04999542236326704,-1.5800018310546875,6.0,5.0,7.0,06-28,0.1737510363260899
04-30,-0.10499954223632812,-3.7100009918212855,-3.584999084472649,-0.8799972534179759,0.9300003051757812,5.425003051757798,6.959999084472642,-12.549995422363281,1.0299987792968608,-0.769996643066392,-1.970001220703125,11.939994812011719,5.0,7.0,06-29,0.22625048955281368
05-01,-0.22500038146973012,-4.194999694824219,-2.834999084472649,-1.779998779296875,1.9000015258789062,4.970001220703125,5.735000610351577,-10.680000305175753,1.6100006103515625,-1.80999755859375,0.05999755859375,14.139999389648438,6.0,6.0,06-30,0.5741670926411985
05-02,-1.3199996948242188,-5.1399993896484375,-2.4949989318847585,-1.8549995422363352,0.27500152587890625,4.435005187988281,2.4650039672851562,-8.75,1.5999984741210938,-0.5999984741210938,-0.8700027465820455,17.11000061035155,5.0,7.0,07-01,0.40458424886067473
05-03,-1.2999992370605469,-5.434999465942386,-1.4799995422363281,-1.8499984741210938,-2.93499755859375,7.129997253417983,2.2050018310546875,-7.010002136230483,1.870002746582017,0.7600021362304688,-0.9199981689452983,19.229995727539077,5.0,7.0,07-02,0.8554170926411956
05-04,-1.2999992370605469,-4.030000686645504,-0.625,0.22500228881836648,-1.6599960327148438,6.4850006103515625,2.2050018310546875,-6.099998474121108,-0.23999786376953125,-2.6699981689453125,2.339996337890611,19.229995727539077,5.0,7.0,07-03,1.1550005276997881
05-05,-0.9349994659423864,-3.5300006866455043,-0.549999237060554,-0.3899993896484304,-1.6599960327148438,6.4850006103515625,3.9300003051757812,-6.0900039672851705,-0.909996032714858,-2.4799957275390625,2.339996337890611,17.790000915527358,4.0,8.0,07-04,1.166667302449542
05-06,-1.0149993896484375,-2.170000076293949,0.20000076293945312,-1.1000022888183594,-1.339996337890625,6.694999694824219,3.6949996948242188,-4.159996032714858,1.529998779296875,-3.529998779296875,1.7999954223632812,17.25999450683595,6.0,6.0,07-05,1.4887496630350745
05-07,0.02499961853027699,-1.3700008392333984,0.2849998474121094,-1.0100021362304759,-2.0699996948242188,5.059997558593736,4.0449981689453125,-2.9200057983398295,2.1800003051757812,-4.209999084472656,3.6299972534179688,15.989997863769531,7.0,5.0,07-06,1.6362485885620115
05-08,-1.2849998474121058,-3.259998321533196,0.10499954223633523,-0.81500244140625,-3.029998779296875,6.0149993896484375,1.3850021362304688,-4.7900009155273295,2.25,-4.680000305175781,4.069999694824219,17.089996337890625,6.0,6.0,07-07,1.0879163742065456
05-09,-0.2600002288818324,-3.264997482299794,0.6150016784667898,-0.5300025939941548,-2.1650009155273438,6.770004272460923,1.43499755859375,-4.470001220703111,2.8300018310546875,-5.050003051757798,6.200004577636733,19.459999084472642,6.0,6.0,07-08,1.7975002924601242
05-10,-0.9600009918212855,-2.009998321533196,0.36500167846678977,-0.12000274658202414,-0.8550033569335938,4.485000610351548,1.3949966430664205,-5.760002136230469,2.8300018310546875,-3.3000030517577983,5.720001220703139,18.0,6.0,6.0,07-09,1.6491659482320182
05-11,-0.8600006103515625,-1.6800003051757812,1.2600021362304545,0.18999862670897727,0.0099945068359375,3.6949996948242188,-0.56500244140625,-4.4499969482421875,2.590003967285142,2.5699996948242188,5.1299972534179545,16.050003051757812,8.0,4.0,07-10,1.9949998855590778
05-12,-0.9349994659423793,-2.2849998474121094,1.8300018310546946,0.125,1.6599960327148438,4.2050018310546875,0.8549957275390483,-4.459999084472642,3.8799972534179545,0.9499969482421875,4.690002441406236,18.840003967285156,9.0,3.0,07-11,2.4462498029073063
05-13,-0.034999847412109375,-1.2649993896484446,1.8250007629394602,-0.490001678466804,1.4149932861328125,5.045005798339858,0.40000152587889204,-0.37999725341798296,3.0,1.8300018310546733,4.160003662109375,22.230003356933594,8.0,4.0,07-12,3.144584337870277
05-14,-0.14999961853026988,-0.23499679565428977,0.8249969482421875,-1.1200027465820455,-0.38500213623046875,5.6300048828125,-1.7600021362304688,-1.5500030517578125,2.9899978637695312,0.779998779296875,3.850006103515611,19.110000610351562,6.0,6.0,07-13,2.332083225250243
05-15,-0.13000106811523793,-1.1700019836425746,0.6149978637695312,-0.6500015258789134,-0.21500396728515625,6.379997253417983,-0.9499969482421875,0.5399932861328267,3.8599929809570312,0.720001220703125,3.470001220703139,20.12000274658203,7.0,5.0,07-14,2.7158317565918
05-16,-0.2550010681152344,-0.3950004577636719,0.654998779296875,-0.43500137329102273,1.2399978637695312,6.334999084472656,1.06500244140625,1.30999755859375,4.42999267578125,0.25,3.0800018310546875,17.52999877929686,9.0,3.0,07-15,2.9008321762084943
05-17,0.024999618530269885,-0.8000030517578196,1.2550010681152344,0.9050025939941406,-0.5550003051757812,5.975006103515639,2.1450042724609375,2.459999084472642,6.359992980957031,-0.57000732421875,5.2700042724609375,19.87000274658203,9.0,3.0,07-16,3.528333504994709
05-18,1.0099983215332067,-0.5550003051757884,0.4249992370605469,2.8899993896484304,-0.03499603271484375,4.760002136230469,1.5150070190429688,3.0800018310546875,7.010002136230469,-0.9599990844726847,9.97000122070314,23.77000427246095,9.0,3.0,07-17,4.406668345133462
05-19,0.7199993133544993,0.07999801635741477,-0.24000167846679688,1.2949981689453054,-1.1100006103515625,4.875,1.9850006103515483,2.989997863769517,6.0699996948242045,-2.6599960327148295,10.110000610351577,22.40000152587892,9.0,3.0,07-18,3.87624979019165
05-20,0.2999992370605504,1.5199985504150426,0.80999755859375,2.2949981689453054,-0.09999847412109375,5.049995422363281,2.5150070190429688,3.05999755859375,6.540000915527344,0.3800048828125,8.870002746582045,19.63000488281253,11.0,1.0,07-19,4.239167372385665
05-21,2.6200008392333984,-0.11499977111816051,1.0249977111816406,2.3250007629394602,-1.0400009155273438,4.30999755859375,-2.7949981689452983,2.870002746582017,6.529998779296889,1.720001220703125,7.6100006103515625,20.170005798339858,9.0,3.0,07-20,3.7691672643025753
05-22,2.4650001525878977,0.3100013732910085,1.2899971008300852,2.465000152587905,-0.345001220703125,5.6749954223632955,-2.7949981689453267,1.9499969482421733,7.180000305175781,3.910003662109375,8.129997253417969,15.699996948242173,10.0,2.0,07-21,3.8279158274332676
05-23,2.7150001525878906,1.5550003051757777,1.3449974060058594,1.694999694824233,1.5699996948242188,5.345001220703125,-2.5100021362304688,3.5999984741210938,6.900001525878892,4.040000915527344,10.180000305175781,9.389999389648438,11.0,1.0,07-22,3.818749745686849
05-24,2.704999923706051,1.6350021362304652,1.7099990844726562,3.8800010681152344,1.1650009155273438,5.315002441406236,-5.150001525878906,2.269996643066392,6.659996032714858,3.8899993896484375,9.760002136230483,10.160003662109375,11.0,1.0,07-23,3.6666668256123853
05-25,2.8649997711181605,1.2900009155273473,1.0099983215332031,5.334999084472656,1.1999969482421875,5.995002746582017,-5.2700042724609375,1.7099990844726562,-0.19000244140625,1.5999984741210938,9.439994812011719,11.680000305175781,10.0,2.0,07-24,3.0554153124491363
05-26,2.8649997711181605,1.470001220703125,1.44000244140625,2.825000762939453,0.9000015258789062,6.095001220703111,-5.2700042724609375,0.8899993896484233,-0.8699951171874716,3.3700027465820312,11.449996948242173,11.680000305175781,10.0,2.0,07-25,3.070417245229084
05-27,3.469999313354492,0.4550018310546946,0.5699996948242259,1.7299995422363352,-0.125,6.095001220703111,-6.480003356933594,-0.9499969482421875,-1.0900039672851562,5.0100021362304545,10.58999633789061,9.330001831054688,8.0,4.0,07-26,2.3837498029073063
05-28,4.190000534057614,1.7900009155273366,-0.0749969482421875,1.1949996948242259,-0.125,5.029998779296875,-9.28000640869142,-1.0900039672851562,0.6299972534179688,8.239997863769531,10.58999633789061,8.19000244140625,8.0,4.0,07-27,2.4404155413309705
05-29,4.045000076293952,2.8299980163574148,-1.0550003051757812,1.1949996948242259,-0.01000213623046875,4.510002136230483,-11.194999694824219,-0.9199981689452983,0.26999664306640625,8.239997863769531,10.919998168945312,8.889999389648452,8.0,4.0,07-28,2.3099993069966676
05-30,3.3850002288818395,3.1300010681152344,-1.8499984741210938,2.6149978637695455,1.2099990844726562,3.629997253417983,-12.125,-1.5900039672851562,0.26999664306640625,7.849998474121094,10.90000152587892,6.860000610351548,9.0,3.0,07-29,2.0237491925557483
05-31,3.2549991607666016,3.1499977111816335,-1.8499984741210938,2.3950004577636648,1.75,3.1699981689453125,-7.595001220703125,-1.5900039672851562,0.3899993896484375,9.740005493164062,13.29000091552733,5.209999084472642,9.0,3.0,07-30,2.6095830599466923
06-01,2.9200000762939418,3.1499977111816335,-0.8800010681152273,5.729999542236328,3.0149993896484375,1.3300018310547017,-5.944999694824219,-1.8900070190429688,-3.0100021362304688,7.430000305175753,10.650001525878906,7.0400009155273295,8.0,4.0,07-31,2.4616659482320125
06-02,3.125,2.0549964904785014,-0.80999755859375,6.61000061035157,2.9550018310546875,1.0499954223632812,-5.555000305175781,-2.719993591308608,-4.3899993896484375,7.309997558593736,11.180000305175781,2.8900070190429688,8.0,4.0,08-01,1.9750006993611624
06-03,3.6400012969970668,2.4300003051757812,-0.3650016784667969,5.845001220703125,2.6500015258789062,1.3549957275390625,-6.425003051757827,-2.9599990844726562,-3.1100006103515625,8.230003356933594,9.610000610351562,-1.2699966430664062,7.0,5.0,08-02,1.6358335812886542
06-04,4.704999923706051,3.8400001525878835,-0.09999847412109375,5.145000457763679,3.44000244140625,0.28499603271484375,-5.865005493164077,-3.450004577636733,-3.25,7.3000030517578125,5.680000305175781,-2.9200057983398438,7.0,5.0,08-03,1.2341656684875462
06-05,4.979999542236328,5.300001144409176,-1.1899986267089844,4.534999847412109,5.224998474121094,-2.3949966430664205,-5.935005187988281,-4.43000030517581,-2.1500015258789062,7.230003356933594,5.040000915527344,-6.2999954223632955,6.0,6.0,08-04,0.825833797454829
06-06,6.2649993896484375,4.7499980926513565,-0.7299995422363281,3.125,5.7449951171875,-3.2699966430664062,-6.180000305175753,-3.790000915527358,-2.1699981689452983,5.8000030517578125,2.6800003051757955,-6.020004272460952,6.0,6.0,08-05,0.5170830090840672
06-07,6.375,5.179998397827145,-1.5200004577636719,2.529998779296875,3.720001220703125,-2.245002746582017,-7.5100021362304545,-3.4399948120117188,-1.6399993896484375,6.230003356933594,0.18000030517579546,-5.6100006103515625,6.0,6.0,08-06,0.18750015894572267
06-08,6.409999847412109,4.374998092651371,-0.904998779296875,2.759998321533203,3.80999755859375,-3.4499969482421875,-7.460006713867173,-6.619995117187514,-3.25,6.7999954223632955,-3.4300003051757812,-1.7399978637695312,5.0,7.0,08-07,-0.22500054041544448
06-09,5.795000076293942,4.484998703002933,-3.7900009155273366,3.970001220703125,3.5749969482421875,-3.1100006103515625,-8.035003662109375,-6.3300018310546875,-4.919998168945298,6.3899993896484375,-3.4099960327148438,0.2400054931640625,6.0,6.0,08-08,-0.42833328247070135
06-10,5.930000305175781,3.4650001525878906,-3.115001678466804,4.779998779296875,3.4099960327148438,-3.4550018310546875,-9.35000610351561,-4.809997558593736,-5.0,6.029998779296875,-1.529998779296875,2.6200027465820312,6.0,6.0,08-09,-0.08541742960611802
06-11,5.354999542236321,2.3850021362304616,-5.444999694824219,4.575000762939453,4.595001220703125,-3.3550033569335795,-11.78500366210939,-3.209999084472642,-6.739997863769531,5.319999694824219,-3.9899978637695312,11.880004882812472,6.0,6.0,08-10,-0.03458277384440341
06-12,5.5349998474121165,2.8499984741210866,-3.2649993896484304,3.479999542236328,5.069999694824219,-3.1299972534179688,-12.705001831054688,-3.3199996948241903,-6.769996643066392,5.720001220703125,-4.1299972534179545,12.080001831054702,6.0,6.0,08-11,0.1179173787434961
06-13,5.555000305175781,2.634998321533196,-5.38999938964843,4.599998474121094,3.279998779296875,-2.0250015258789205,-8.819999694824219,-3.0,-8.199996948242173,5.949996948242202,-0.26000213623046875,12.540000915527315,6.0,6.0,08-12,0.5720828374226876
06-14,5.5850009918212855,1.4900016784667969,-6.220001220703118,4.8050003051757955,3.9300003051757812,-1.920005798339858,-11.019996643066406,-2.3899993896484517,-8.129997253417955,5.25,-1.2200012207031108,17.690002441406236,6.0,6.0,08-13,0.6541670163472496
06-15,5.774999618530277,0.7350006103515625,-5.45500183105468,3.3400001525878906,2.6149978637695312,-1.7450027465820455,-11.400001525878906,-1.9300003051758097,-9.989997863769531,2.0800018310547017,-2.379997253417983,17.790000915527315,6.0,6.0,08-14,-0.047083377838139796
06-16,6.229999542236332,0.2550010681152344,-4.599998474121094,2.6800003051757812,3.3249969482421875,-0.5050048828125284,-11.970001220703125,-2.220001220703139,-10.430000305175781,1.0800018310546875,-1.8400039672851562,16.229995727539034,6.0,6.0,08-15,-0.14708455403646395
06-17,6.144998550415043,0.3449974060058594,-4.845001220703118,1.8500022888183594,3.1299972534179688,-0.25,-12.639999389648438,-4.190002441406264,-8.550003051757798,1.8499984741210938,-4.709999084472656,16.11999511718747,6.0,6.0,08-16,-0.4787513415018732
06-18,6.480001449584961,-0.1750030517578196,-4.404998779296875,2.325000762939453,2.899993896484375,-0.790000915527358,-14.290000915527358,-3.9599990844726562,-8.169998168945327,2.029998779296875,-4.459999084472656,14.389999389648452,5.0,7.0,08-17,-0.6770838101704945
06-19,5.880001068115234,-0.14999771118164062,-5.115001678466797,1.625,4.099998474121094,-0.8249969482421875,-12.600006103515597,-4.769996643066406,-7.3700027465820455,2.9000015258789205,-5.44000244140625,15.260002136230469,5.0,7.0,08-18,-0.5420834223429338
06-20,5.655000686645508,0.46500015258789773,-5.064998626708984,1.6949996948242188,4.345001220703125,-1.150001525878892,-13.90999603271483,-4.8300018310546875,-7.040000915527358,1.8899993896484375,-5.56999969482419,15.25,6.0,6.0,08-19,-0.6887497901916463
06-21,5.645000457763679,0.220001220703125,-6.215000152587891,3.8100013732910156,4.845001220703125,-0.29999542236328125,-13.599998474121094,-4.470001220703139,-6.940002441406264,3.599998474121108,-5.349998474121094,15.020004272460923,6.0,6.0,08-20,-0.31124909718831556
06-22,5.8850002288818395,0.8549995422363281,-6.2199974060058665,3.029998779296868,5.06500244140625,0.13000488281247158,-15.669998168945312,-4.220001220703139,-7.8899993896484375,3.0,-5.279998779296861,14.970001220703125,7.0,5.0,08-21,-0.5287489891052278
06-23,5.960000991821289,1.075000762939446,-8.29999923706054,3.9150009155273438,6.1450042724609375,-0.14499664306642046,-15.790000915527344,-7.450004577636719,-8.599998474121094,4.620002746582031,-6.599998474121108,14.949996948242202,6.0,6.0,08-22,-0.8516659736633313
06-24,5.229999542236332,1.2399978637695241,-9.140003204345703,3.0699996948242188,6.215003967285156,0.5250015258789062,-15.470001220703125,2.0,-8.430000305175781,5.970001220703125,-6.2000045776367045,16.760002136230483,8.0,4.0,08-23,0.14749972025553593
06-25,4.655000686645504,1.225000381469716,-9.009998321533203,4.860000610351555,5.6399993896484375,-0.19499969482421875,-17.86999511718747,6.5199966430664205,-6.279998779296875,5.489997863769531,-5.5699996948242045,15.47000122070311,7.0,5.0,08-24,0.41125043233235853
06-26,5.489999771118164,1.0600013732910156,-7.909999847412109,4.105003356933587,5.055000305175781,1.25,-20.800003051757827,7.75,-7.190002441406264,4.769996643066406,-4.830001831054673,16.090003967285156,8.0,4.0,08-25,0.4033331871032697
06-27,5.145000457763668,0.6599998474121094,-7.534999847412109,3.7849998474121023,5.55999755859375,0.25,-22.72000122070311,7.699996948242202,-6.8600006103515625,5.489997863769531,-5.790000915527344,17.13999938964845,8.0,4.0,08-26,0.2354157765706407
06-28,5.215000152587891,1.125,-8.28499984741211,2.7449989318847727,7.915000915527344,-1.9599990844726847,-23.930000305175795,5.830001831054673,-7.440002441406264,4.049995422363281,-10.169998168945312,15.879997253417983,7.0,5.0,08-27,-0.7520837783813518
06-29,4.940000534057617,2.0699996948242188,-8.625,1.5149993896484304,5.915000915527344,-1.844993591308608,-21.8800048828125,3.9000015258789205,-5.94000244140625,6.889999389648452,-11.459999084472642,16.009994506835966,7.0,5.0,08-28,-0.7091670036315877
06-30,4.920000076293945,2.3649997711181676,-9.854999542236328,2.3400001525878835,4.659996032714844,-2.4549942016601562,-21.62000274658203,2.5999984741210938,-6.239997863769531,8.449996948242173,-11.21999359130858,13.889999389648438,7.0,5.0,08-29,-1.0137497584025068
07-01,4.980001449584957,2.135000228881836,-9.755001068115234,2.095001220703125,3.6599960327148438,-1.8099975585937358,-23.400001525878906,1.2300033569335938,-6.459999084472656,7.190002441406264,-9.59999847412108,13.599998474121108,7.0,5.0,08-30,-1.344582875569657
07-02,6.5199985504150355,3.2649993896484446,-8.0,2.5050010681152344,3.339996337890625,-1.5349960327148295,-20.72000122070314,4.9499969482421875,-6.75,8.980003356933594,-9.05999755859375,11.720001220703125,7.0,5.0,08-31,-0.39874982833862277
07-03,6.459999084472649,2.4600009918212926,-7.504997253417976,2.415000915527351,3.0849990844726562,-2.459999084472642,-18.98999786376953,4.629997253417969,-6.800003051757798,9.660003662109375,-10.050003051757812,12.240005493164091,7.0,5.0,09-01,-0.404582818349198
07-05,5.530000686645504,3.8000011444091832,-7.45000076293946,2.1100006103515554,1.8850021362304688,-1.2600021362304545,-23.75,3.2299957275390483,-6.870002746582017,8.85000610351561,-7.819999694824219,14.120002746582045,7.0,5.0,09-03,-0.6354163487752279
07-06,5.454999923706051,3.8000011444091832,-7.960002899169915,1.4599990844726634,1.4900054931640625,-1.5950012207031108,-21.56999969482422,2.9099960327148295,-6.240005493164034,7.660003662109375,-5.589996337890611,16.10000610351564,7.0,5.0,09-04,-0.3399995168050071
07-07,6.155000686645504,2.5450019836425852,-8.39000320434571,3.3249969482421804,1.9900054931640625,-2.4250030517577983,-21.52999877929689,2.8499984741210795,-6.680000305175781,6.620002746582031,-5.949996948242173,17.56000518798828,7.0,5.0,09-05,-0.32749923070271897
07-08,6.055000305175781,1.9550018310546946,-8.545001983642585,2.3999977111816335,2.8550033569335938,-1.6350021362304688,-19.56999969482422,-0.339996337890625,-6.390007019042969,5.959999084472642,-4.860000610351548,19.51000213623047,6.0,6.0,09-06,-0.21708361307780008
07-09,5.909999847412109,2.1499977111816406,-8.349998474121094,2.6999969482421804,1.2050018310546875,-2.1450042724609375,-19.110000610351562,0.43000030517578125,-7.540000915527358,6.680000305175781,-4.4200057983398295,20.900001525878906,7.0,5.0,09-07,-0.13250096638997455
07-10,6.085000991821293,3.100002288818363,-8.53499984741211,3.3149986267089844,1.4500045776367188,-1.8850021362304545,-20.919998168945312,1.010002136230483,-6.780006408691392,5.7999954223632955,-3.8900070190429688,15.75,7.0,5.0,09-08,-0.45833412806192503
07-11,5.659999847412109,2.2500000000000036,-7.629997253417976,3.944999694824226,1.2700042724609375,-2.0349960327148438,-23.22000122070311,0.12000274658203125,-6.770004272460923,6.849998474121094,-2.660003662109375,13.230003356933608,7.0,5.0,09-09,-0.7491661707560183
07-12,5.909999847412109,2.659999847412113,-7.41999816894532,6.1699981689453125,0.7600021362304688,-2.035003662109389,-20.12999725341797,-1.969993591308608,-7.639999389648423,8.160003662109375,-1.2600021362304688,11.610000610351562,6.0,6.0,09-10,-0.4320824940999364
07-13,6.444999694824219,1.8849983215332102,-7.459999084472663,4.900001525878906,2.3249969482421875,-3.2649993896484517,-20.43000030517578,-2.7399978637695312,-8.389999389648423,7.520004272460966,-1.1999969482421733,15.95999908447267,6.0,6.0,09-11,-0.37083276112873875
07-14,6.1649990081787145,2.290000915527358,-6.805000305175781,6.830001831054695,3.3600006103515625,-2.7649993896484517,-21.51000213623047,-3.3299942016601562,-9.210006713867173,9.71999359130858,-0.44000244140625,13.6199951171875,6.0,6.0,09-12,-0.17291784286498935
07-15,5.180000305175778,2.354999542236321,-8.28499984741211,6.8700027465820455,3.714996337890625,-1.5499954223632812,-20.8800048828125,-8.409996032714844,-7.05999755859375,10.21999359130858,-0.029998779296875,9.71999359130858,6.0,6.0,09-13,-0.6795838673909526
07-16,3.860000610351559,4.154998779296875,-7.7949981689453125,6.819999694824226,4.790000915527344,-1.6649932861328125,-15.180000305175781,-6.540000915527315,-6.2699966430664205,9.65999603271483,-0.1699981689453125,10.479995727539034,6.0,6.0,09-14,0.17875035603840939
07-17,3.869998931884762,4.744998931884769,-7.009998321533196,5.819999694824226,3.779998779296875,-3.1399993896484375,-15.080001831054673,-8.139999389648423,-7.900001525878892,6.6199951171875,1.0699996948242188,15.22000122070314,7.0,5.0,09-15,-0.012084007263177673
07-18,3.729999542236321,4.594997406005863,-6.354999542236328,5.789997100830071,1.43499755859375,-4.935005187988281,-16.68999481201172,-8.620002746582017,-7.8899993896484375,5.279998779296875,1.2099990844726562,20.82000732421878,7.0,5.0,09-16,-0.13583374023437234
07-19,4.479999542236321,4.739997863769535,-6.619998931884773,3.3100013732910156,1.6399993896484375,-4.519996643066406,-16.56999969482422,-7.699996948242173,-8.54000091552733,6.559997558593764,1.8699951171874716,20.529998779296847,7.0,5.0,09-17,-0.0683336257934591
07-20,4.719999313354489,3.4949989318847656,-6.674999237060547,2.4949989318847656,2.7350006103515625,-4.114997863769517,-15.779998779296875,-9.349998474121094,-0.23999786376953125,7.1699981689453125,-1.5899963378906392,19.649993896484347,6.0,6.0,09-18,0.20958344141641985
07-21,4.729999542236328,3.414997100830078,-6.280002593994141,3.875,2.81500244140625,-3.4599990844726562,-13.139999389648438,-7.349998474121108,-0.06999969482424717,8.579994201660142,0.26000213623045454,18.87998962402341,7.0,5.0,09-19,1.0212488174438394
07-22,4.569999694824219,3.115001678466797,-5.150001525878913,3.3499984741210938,4.040000915527344,-4.1399993896484375,-13.019996643066406,-7.44000244140625,1.4100036621093608,8.859992980957031,2.4800033569335795,17.359992980957003,8.0,4.0,09-20,1.286249478658035
07-23,3.404998779296882,2.2000007629394602,-5.415000915527344,3.2449989318847727,4.339996337890625,-4.239997863769531,-11.169998168945298,-5.5099945068359375,2.9499969482421875,10.639999389648423,0.470001220703125,18.419998168945312,8.0,4.0,09-21,1.6112499237060565
07-24,3.545000076293938,2.230003356933601,-5.515003204345703,4.340000152587891,5.364997863769531,-3.4300003051757955,-10.059997558593764,-5.329994201660142,3.4199981689453267,9.0,1.3300018310546875,15.209999084472642,8.0,4.0,09-22,1.675417105356851
07-25,3.4399986267089773,1.9950027465820455,-7.505001068115234,4.875,4.6300048828125,-3.029998779296889,-8.940002441406236,-4.129997253417969,1.6999969482422017,5.770004272460923,2.5500030517577983,9.849998474121094,8.0,4.0,09-23,0.9337507883707676
07-26,3.654998779296875,1.940002441406257,-6.524997711181641,5.069999694824226,4.584999084472656,-4.495002746582031,-10.769996643066392,-4.300003051757827,2.059997558593764,5.2599945068359375,1.3199996948242472,10.589996337890625,8.0,4.0,09-24,0.6991656621297248
07-27,3.119998931884762,1.6399993896484375,-5.729999542236328,3.5849990844726562,1.125,-5.194999694824219,-12.449996948242188,-3.6299972534179688,2.839996337890611,6.540000915527358,-0.0800018310546875,8.089996337890625,7.0,5.0,09-25,-0.012083689371745088
07-28,3.25,1.6200027465820384,-7.225002288818352,2.9099998474121094,1.1500015258789062,-4.06500244140625,-16.979995727539062,-2.3400039672851562,2.730003356933608,2.9500045776367188,-2.1999969482421875,9.739997863769531,7.0,5.0,09-26,-0.7049992879231747
07-29,3.58499908447266,1.3149986267089844,-7.689998626708984,2.0200004577636648,1.7350006103515625,-2.225006103515639,-18.62999725341797,-1.44000244140625,3.910003662109375,1.8000030517578267,-1.7699966430664062,7.909996032714844,7.0,5.0,09-27,-0.7899999618530277
07-30,2.0550003051757884,1.7249984741211009,-5.729999542236321,1.8050003051757741,1.7949981689453125,-1.9449996948242188,-20.409996032714844,-2.529998779296875,3.260002136230483,0.6500015258789205,-2.2999954223632812,10.75,7.0,5.0,09-28,-0.90624904632568
07-31,1.3250007629394496,0.8299980163574219,-4.69000244140625,2.5699996948242188,2.0999984741210938,-0.47499847412109375,-20.04000091552733,-2.220001220703111,2.739997863769517,-0.2700042724609375,-0.7299957275390625,12.599998474121094,6.0,6.0,09-29,-0.5216674804687491
08-01,0.9699993133544922,1.0099983215332031,-6.200000762939453,3.2700004577636648,1.9449996948242188,0.029998779296875,-23.360000610351577,-1.0999984741210938,2.8799972534179545,0.6599960327148438,0.9900054931640625,14.360000610351562,9.0,3.0,09-30,-0.3787503242492705
08-02,0.9600009918212891,0.8899993896484375,-5.1100006103515625,3.795001983642578,1.4550018310546875,-0.5799942016601705,-21.920005798339858,-0.12000274658201704,1.7799987792968608,-0.3300018310547017,4.0500030517578125,12.950004577636733,7.0,5.0,10-01,-0.18166621526082594
08-03,0.6949996948242188,1.440002441406257,-5.569999694824219,2.8199996948242188,2.5849990844726562,-1.9399948120117188,-20.180000305175795,-0.7600021362304688,4.180000305175781,-1.8199996948242472,7.550003051757827,14.700004577636733,7.0,5.0,10-02,0.3083343505859369
08-04,0.5849990844726562,1.0100021362304688,-2.6650009155273438,2.825000762939446,2.4599990844726562,-4.724998474121108,-18.849998474121094,-2.0400009155273295,3.650001525878892,-0.5699996948242188,5.910003662109389,14.290000915527344,7.0,5.0,10-03,0.15666739145914654
08-05,0.5499992370605469,1.2750015258789062,-3.6099967956542898,2.364997863769524,2.375,-3.5200042724609375,-18.899993896484375,-1.0699996948242188,5.8600006103515625,-0.1100006103515625,3.4500045776367188,10.419998168945312,7.0,5.0,10-04,-0.0762494405110677
08-06,0.20000076293946023,1.7699966430664062,-2.134998321533203,3.354999542236328,2.6100006103515625,-3.8600006103515625,-15.080001831054702,-1.040000915527358,6.8499984741210795,-1.589996337890625,3.4300003051757812,10.33999633789064,7.0,5.0,10-05,0.40416622161865057
08-07,0.029998779296871447,1.2350006103515767,-1.1399993896484375,2.545001983642578,2.7750015258789062,-3.0750045776367188,-11.259994506835938,-2.4300003051757955,7.1200027465820455,-1.2299957275390625,1.5500030517578125,9.55999755859375,7.0,5.0,10-06,0.47333431243896573
08-08,1.2250003814697266,2.115001678466804,-0.09499740600586648,2.75,2.3300018310546875,-4.184997558593764,-12.020004272460938,-2.9000015258789062,8.860000610351577,-0.5199966430664062,-2.0500030517578125,10.180000305175795,6.0,6.0,10-07,0.4741670290629081
08-09,1.4699993133544957,2.4950027465820312,-2.274997711181655,2.8249969482421804,4.6049957275390625,-3.954994201660142,-13.209999084472656,-2.790000915527358,8.889999389648438,-0.75,1.290000915527358,8.810005187988281,7.0,5.0,10-08,0.6170840263366696
08-10,1.389999389648441,2.710002899169922,-0.14999771118165484,3.5600013732910227,3.285003662109375,-6.379997253417969,-12.300003051757798,-3.1100006103515483,11.699996948242188,0.55999755859375,3.159996032714858,13.200004577636705,8.0,4.0,10-09,1.468750317891441
08-11,1.3599987030029368,3.854999542236321,-0.6000022888183594,3.7900009155273438,0.7350006103515625,-4.8249969482421875,-10.10000610351561,-2.5499954223632812,12.549995422363281,3.5,-0.20000457763670454,8.050003051757784,7.0,5.0,10-10,1.297082742055257
08-12,1.1700000762939453,3.8500022888183523,-0.7899971008300852,2.7849998474121094,0.5699996948242188,-5.0,-9.72000122070311,-10.259994506835923,10.080001831054673,-7.520004272460923,2.029998779296889,7.9500045776367045,7.0,5.0,10-11,-0.4045825004577625
08-13,1.6599998474121094,4.450000762939453,-0.09000015258788352,2.6100006103515625,-0.1399993896484375,-6.239997863769517,-7.75,-10.610000610351562,9.81999969482419,-6.480003356933594,1.4900054931640625,16.1800079345703,6.0,6.0,10-12,0.4083344141642235
08-14,2.5849990844726562,4.244998931884766,-0.2050018310546875,3.4399986267089844,0.05500030517578125,-7.7700042724609375,-8.729995727539077,-12.159996032714858,9.85000610351561,-7.25,4.3600006103515625,16.900001525878906,7.0,5.0,10-13,0.44333394368489226
08-15,3.5699996948242223,4.494998931884766,0.5699996948242116,2.9650001525878906,2.9799957275390625,-9.360000610351577,-6.920005798339858,-12.51999664306642,9.47000122070314,-7.430000305175781,6.0400009155273295,17.13000488281247,8.0,4.0,10-14,0.9158331553141213
08-16,3.83499908447266,4.864997863769538,1.2800025939941335,2.7099990844726562,4.0800018310546875,-13.59000396728517,-7.080001831054702,-11.70999908447267,8.670005798339858,-11.520004272460952,8.449996948242188,14.650009155273466,8.0,4.0,10-15,0.3866669336954744
08-17,4.279998779296882,4.25,1.229999542236321,1.9900016784667969,4.660003662109375,-13.09500122070314,-6.940002441406264,-11.64999389648439,10.720001220703125,-13.330001831054688,5.589996337890611,15.669998168945312,8.0,4.0,10-16,0.2812499999999953
08-18,4.289999008178711,4.494998931884773,3.6299972534179688,3.4899978637695312,4.334999084472656,-11.635002136230483,-7.25,-11.64999389648436,11.419998168945312,-13.580001831054688,6.589996337890611,15.89999389648439,8.0,4.0,10-17,0.8362485567728685
08-19,4.04999923706055,5.370002746582038,5.415000915527344,4.329998016357422,4.7050018310546875,-12.065002441406236,-5.180000305175781,-12.1300048828125,10.779998779296875,-11.550003051757812,7.339996337890611,15.949996948242188,8.0,4.0,10-18,1.4179153442382821
08-20,4.465000152587894,5.684997558593757,4.4499969482421875,4.904998779296875,3.625,-11.790000915527344,-0.6100006103515625,-12.549995422363281,10.569999694824219,-11.610000610351548,8.659996032714858,18.500007629394545,8.0,4.0,10-19,2.024999936421717
08-21,3.375,5.934997558593743,5.895000457763672,5.75,3.5550003051757812,-11.625,3.529998779296861,-12.400001525878892,10.489997863769517,-12.959999084472642,8.260002136230455,18.93000030517578,9.0,3.0,10-20,2.394583066304523
08-22,3.9099998474121094,5.379997253417969,4.9499969482421875,3.9599990844726634,7.160003662109375,-8.650001525878906,8.919998168945298,-12.650001525878892,8.33999633789061,-12.479995727539048,11.139999389648423,13.240005493164091,9.0,3.0,10-21,2.7683331171671566
08-23,3.5299987792968786,6.224998474121094,3.8499984741210938,5.04999923706054,6.7649993896484375,-7.525001525878892,9.119995117187472,-13.880004882812472,9.25,-10.77999877929689,17.69000244140625,13.550003051757812,9.0,3.0,10-22,3.570415814717611
08-24,2.7599983215332067,6.625,3.4749984741210938,4.290000915527344,8.169998168945312,-5.095001220703111,8.379997253417955,-13.830001831054673,10.599998474121108,-9.230003356933608,17.51000213623047,12.949996948242188,9.0,3.0,10-23,3.8837486902872733
08-25,2.6899986267089844,6.159999847412109,4.799999237060547,4.1599998474121165,9.924995422363281,-6.259994506835923,9.58999633789064,-14.089996337890625,14.040000915527358,-9.46999359130858,18.099998474121094,14.209999084472656,9.0,3.0,10-24,4.487916946411138
08-26,2.964998245239258,5.674999237060547,5.670001983642578,3.0800018310546946,9.089996337890625,-6.375,7.540000915527344,-13.370002746582045,12.739997863769531,-10.5,17.300003051757812,14.080001831054673,9.0,3.0,10-25,3.9912498792012516
08-27,2.745000839233402,4.665000915527337,4.45500183105468,3.895000457763679,10.345001220703125,-5.764999389648452,8.43000030517581,-14.360000610351577,13.29000091552733,-13.34999847412108,17.05999755859375,12.909996032714872,9.0,3.0,10-26,3.69333346684774
08-28,1.7000007629394567,5.92499923706054,3.5200004577636648,4.1399993896484375,11.345001220703125,-5.270004272460923,7.8799972534179545,-16.37999725341797,13.569999694824219,-12.09000396728517,15.44000244140625,12.150001525878892,9.0,3.0,10-27,3.4941663742065394
08-29,1.4049987792968786,5.909999847412102,4.6850013732910085,3.729999542236328,11.635002136230469,-5.004997253417983,8.639999389648438,-15.080001831054688,13.860000610351562,-13.8800048828125,13.44000244140625,10.93000030517581,9.0,3.0,10-28,3.355833371480306
08-30,1.7999992370605504,5.644996643066399,4.189998626708984,4.3400001525878835,12.854995727539062,-6.294998168945327,7.6399993896484375,-14.760002136230469,13.91000366210936,-6.950004577636719,13.25,6.989997863769531,9.0,3.0,10-29,3.5512488683064745
08-31,0.9249992370605504,5.469997406005859,4.135002136230469,3.575000762939453,11.839996337890625,-4.900001525878906,9.040000915527344,-13.360000610351548,14.349998474121094,-7.709999084472656,13.279998779296875,4.80999755859375,9.0,3.0,10-30,3.4545825322469086
09-01,1.5849990844726562,4.3049964904785085,6.950000762939453,3.924999237060547,14.14999389648436,-6.569999694824219,12.980003356933594,-12.6300048828125,13.340003967285156,-6.989997863769517,14.620002746582017,1.2099990844726562,9.0,3.0,10-31,3.9062496821085593
09-02,1.6599998474121094,3.8400001525878906,7.900001525878906,3.9750022888183665,12.224998474121094,-6.569999694824219,10.800003051757812,-14.169998168945298,12.72000122070314,-5.6599960327148295,15.550003051757812,-0.7700042724609375,8.0,4.0,11-01,3.458334287007654
09-03,2.14999961853027,3.3599967956542898,6.605003356933594,4.4550018310546875,12.224998474121094,-5.739997863769531,10.299995422363281,-14.490005493164091,12.799995422363281,-4.7900009155273295,15.550003051757812,5.310005187988281,9.0,3.0,11-02,3.9779162406921365
09-04,0.7700004577636719,4.194999694824212,5.700000762939453,4.4550018310546875,11.360000610351562,-5.634994506835966,10.950004577636719,-14.880004882812528,12.479995727539077,-4.7900009155273295,14.460006713867188,7.1100006103515625,9.0,3.0,11-03,3.847917556762692
09-05,1.0500011444091797,4.680000305175774,6.75,4.155002593994141,11.004997253417969,-0.13500213623046875,7.599998474121094,-15.240005493164091,12.479995727539077,-5.510002136230469,11.78000640869142,14.189994812011705,9.0,3.0,11-04,4.4004155794779445
09-06,1.2950000762939453,4.805000305175774,6.75,4.400001525878899,11.75,-1.775001525878892,7.7900009155273295,-15.240005493164091,11.72000122070311,-5.260002136230483,9.66000366210936,15.870002746582045,9.0,3.0,11-05,4.313750108083084
09-07,1.1350002288818324,4.805000305175774,5.8449974060058665,3.3899993896484375,10.910003662109375,-2.7249984741210938,7.459999084472656,-14.35000610351564,12.150001525878892,-4.599998474121108,11.579994201660142,11.819999694824261,9.0,3.0,11-06,3.951666037241617
09-08,1.1350002288818324,4.395000457763665,6.910003662109375,2.9949989318847656,10.840003967285156,0.6650009155273438,7.459999084472656,-13.550003051757798,12.94000244140625,-5.639999389648423,12.379997253417955,11.819999694824261,10.0,2.0,11-07,4.3625003496805865
09-09,0.600000381469723,4.909999847412102,7.70500183105468,3.7000007629394602,10.580001831054688,1.8949966430664062,7.760002136230469,-8.050003051757798,10.439994812011719,-4.7299957275390625,13.260002136230455,7.470001220703153,10.0,2.0,11-08,4.628333568572999
09-10,1.0999984741210902,4.450000762939453,7.8899993896484375,2.424999237060547,9.544998168945312,1.3949966430664062,6.569999694824219,-8.41000366210939,10.439994812011719,-2.55999755859375,12.500007629394531,12.51999664306642,10.0,2.0,11-09,4.82208251953125
09-11,0.75,3.7249984741210938,8.129997253417962,2.384998321533196,9.19000244140625,2.3349990844726562,6.279998779296875,-8.020004272460966,10.22000122070314,-3.05999755859375,12.090003967285156,11.659996032714844,10.0,2.0,11-10,4.640416145324704
09-12,1.4799995422363352,3.3100013732910085,6.149997711181641,2.4350013732910156,8.385002136230469,3.6100006103515767,7.569999694824219,-7.470001220703139,9.43000030517581,-2.5,11.62000274658206,11.659988403320284,10.0,2.0,11-11,4.63999938964844
09-13,1.5300006866455078,3.1899986267089844,5.364997863769524,-0.4850006103515625,9.56500244140625,3.279998779296889,6.9599990844726705,-5.870002746582031,11.060005187988281,-4.279998779296889,9.54000091552733,12.610000610351534,9.0,3.0,11-12,4.372083504994707
09-14,1.6350002288818395,3.3400001525878906,4.709999084472656,-0.7299995422363352,8.480003356933594,2.774993896484361,7.4499969482421875,-5.3899993896484375,8.64999389648436,-4.459999084472656,13.839996337890653,12.439987182617159,9.0,3.0,11-13,4.39499775568644
09-15,0.8850002288818395,3.1949996948242188,4.400001525878906,-0.5149993896484375,8.65499877929686,2.094993591308608,7.3300018310546875,-4.369995117187472,8.369995117187514,-7.589996337890611,14.889999389648438,12.729995727539091,9.0,3.0,11-14,4.172916253407803
09-16,0.6450004577636719,2.9399986267089844,4.7350006103515625,-0.5250015258789062,9.70999908447267,1.6899948120117188,6.540000915527344,-4.44000244140625,7.75,-8.680000305175753,14.960006713867216,13.610000610351591,9.0,3.0,11-15,4.077916463216154
09-17,0.475000381469723,2.3649978637695312,4.784999847412109,-1.095001220703118,9.629997253417983,1.034996032714858,4.75,-5.029998779296889,7.5499954223632955,-7.639999389648423,13.110008239746122,10.6199951171875,9.0,3.0,11-16,3.3795825640360575
09-18,0.3549995422363317,2.0999984741210938,4.814998626708984,-0.5699996948242116,8.40499877929689,1.0349960327148295,7.639999389648452,-4.849998474121094,6.589996337890639,-7.9199981689453125,10.890007019042997,17.050010681152344,9.0,3.0,11-17,3.795000712076829
09-19,0.870000839233402,1.4599990844726562,3.604999542236328,-0.4650001525878906,8.794998168945312,0.5449981689453267,8.5,-4.720001220703125,5.0500030517578125,-9.700004577636705,9.059997558593764,24.19000244140625,9.0,3.0,11-18,3.9324994087219274
09-20,0.7849998474121129,1.7099990844726562,3.7050018310546875,-1.5600013732910227,9.309997558593764,2.8250045776367188,8.260002136230455,-4.9000015258789205,4.580001831054673,-8.839996337890625,10.239997863769517,23.19000244140625,9.0,3.0,11-19,4.108750661214189
09-21,0.4099998474121129,1.9449996948242116,5.694999694824219,-0.9849967956542898,10.614997863769545,4.410003662109375,10.780006408691392,-6.099998474121094,5.020004272460966,-8.810005187988281,10.56999969482419,23.19000244140625,9.0,3.0,11-20,4.728334426879883
09-22,0.1949996948242152,2.0,6.305000305175774,1.620002746582017,10.669998168945298,5.4900054931640625,12.610000610351548,-6.529998779296875,5.0699996948242045,-4.990005493164034,10.43999481201169,22.45000457763672,10.0,2.0,11-21,5.444166819254551
09-23,0.7299995422363281,3.0500030517578125,7.3899993896484375,1.620002746582017,9.389999389648438,6.19000244140625,14.290000915527344,-8.07999420166017,5.7199935913085795,-4.990005493164034,8.150001525878906,24.95000457763672,10.0,2.0,11-22,5.700833956400552
09-24,0.4799995422363246,2.229999542236321,4.694999694824212,2.370002746582017,9.364997863769531,5.060005187988281,15.260002136230483,-5.949996948242202,5.7199935913085795,-6.810005187988281,10.269996643066406,24.320007324218736,10.0,2.0,11-23,5.584166844685868
09-25,0.7999992370605504,2.2849998474121094,4.694999694824212,3.2600021362304616,8.779998779296875,7.625,16.28000640869142,-5.949996948242202,6.17999267578125,-5.660003662109389,9.839996337890625,23.020004272460938,10.0,2.0,11-24,5.9295832316080705
09-26,0.8850002288818395,2.2849998474121094,4.414997100830071,3.4750022888183523,8.335006713867188,8.450004577636705,20.959999084472656,-5.519996643066392,6.829994201660142,-4.510002136230483,9.019996643066406,21.53000640869142,10.0,2.0,11-25,6.346250693003334
09-27,0.8850002288818395,1.5699996948242188,3.375,3.259998321533203,9.254997253417969,8.055000305175781,20.959999084472656,-5.829994201660156,7.349998474121108,-2.180000305175753,7.19000244140625,21.53000640869142,10.0,2.0,11-26,6.285000642140711
09-28,0.5450000762939489,1.3899993896484375,4.884998321533203,4.26500320434571,8.56500244140625,8.055000305175781,20.97999572753905,-6.949996948242173,6.4199981689453125,-1.8399963378906108,9.27999877929686,21.53000640869142,10.0,2.0,11-27,6.427084128061932
09-29,0.554998397827152,1.5099983215332031,3.6100006103515625,3.729999542236328,8.56500244140625,7.969993591308608,19.54000091552733,-4.470001220703139,7.439994812011719,-2.410003662109375,9.27999877929686,22.94000244140625,10.0,2.0,11-28,6.521665414174396
09-30,0.8199996948242223,2.4949989318847656,4.394996643066406,3.4199981689453196,9.03500366210936,9.329994201660156,17.799995422363267,-5.230003356933608,4.849998474121094,-3.9499969482422017,11.200004577636733,21.19000244140625,10.0,2.0,11-29,6.279582659403481
10-01,2.054998397827145,2.2700004577636648,6.935001373291016,3.174999237060554,9.16000366210936,12.114997863769545,16.3300018310547,-6.090003967285142,6.339996337890625,-2.1100006103515625,12.84000396728517,21.490005493164062,10.0,2.0,11-30,7.042500336964928
10-02,1.5350017547607422,2.7800025939941335,7.229999542236328,3.635002136230476,9.245002746582017,12.889999389648438,13.549995422363281,-5.440002441406236,6.010002136230483,-2.5699996948242188,15.300003051757841,20.00000762939453,10.0,2.0,12-01,7.013751188913985
10-03,0.9449996948242188,2.8600006103515554,9.53499984741211,2.645000457763672,9.024993896484375,13.485000610351577,11.150001525878892,-7.5100021362304545,5.020004272460966,-1.0900039672851562,14.590003967285128,17.350006103515625,10.0,2.0,12-02,6.500417073567708
10-04,1.1849994659423793,3.8100013732910085,8.540000915527344,2.8100013732910156,6.5800018310546875,14.299995422363281,12.170005798339858,-6.120002746582017,4.75,0.01000213623046875,12.21999359130858,17.350006103515625,11.0,1.0,12-03,6.467083772023519
10-05,1.5049991607666016,2.9300003051757812,7.494998931884773,3.164997100830071,7.875,13.930000305175753,10.75,-5.650001525878906,3.8199996948242188,1.3100051879882812,12.790000915527344,17.350006103515625,11.0,1.0,12-04,6.439167181650795
10-06,1.2600002288818324,2.549999237060554,6.420001983642578,1.6100006103515696,6.875,15.994995117187472,11.939994812011719,-6.950004577636719,2.6500015258789062,-0.25,12.25,18.72000122070314,10.0,2.0,12-05,6.089165846506755
10-07,1.340000152587887,2.819999694824226,5.694999694824219,1.2949981689453196,7.519996643066406,18.4199981689453,11.02999877929686,0.8499984741210938,4.919998168945327,0.9799957275390767,13.390007019042969,14.330001831054716,12.0,0.0,12-06,6.882499376932784
10-08,0.18499946594238637,2.795001983642578,4.364997863769524,0.8699989318847656,10.069999694824219,16.864997863769517,8.530006408691392,2.1399993896484233,4.1100006103515625,-2.8499984741210938,16.75000762939453,8.279998779296875,11.0,1.0,12-07,6.00916751225789
10-09,0.31500053405761363,2.4749984741210938,4.5,1.875,10.235000610351562,18.840003967285156,9.989997863769531,2.3700027465820312,3.5500030517577983,8.17000579833983,14.520004272460938,7.3899993896484375,12.0,0.0,12-08,7.019168059031166
10-10,0.1100006103515625,2.7249984741210938,4.114997863769524,2.049999237060547,8.525001525878906,19.650001525878892,7.650001525878892,4.3300018310546875,3.8100051879882812,7.1300048828125,15.470001220703125,7.220001220703153,12.0,0.0,12-09,6.898751258850098
10-11,-0.6350002288818359,2.4199981689453125,4.229999542236328,3.875,10.544998168945312,23.125,5.410003662109375,5.879997253417983,3.779998779296861,9.41000366210939,13.369995117187472,7.220001220703153,11.0,1.0,12-10,7.385832945505779
10-12,-0.3350009918212926,2.1699981689453125,3.454998016357429,3.569999694824226,10.290000915527344,24.550003051757812,4.210006713867173,6.2399978637695455,2.7099990844726562,8.140007019042969,15.769996643066406,7.220001220703153,11.0,1.0,12-11,7.332500616709395
10-13,-0.6000003814697301,1.7999992370605398,2.479999542236321,3.8499984741210938,10.610000610351548,22.130004882812486,4.370002746582017,7.2900009155273295,2.4199981689453125,7.30999755859375,15.260002136230469,9.699996948242159,11.0,1.0,12-12,7.218333403269441
10-14,-1.0450000762939524,1.8600006103515625,2.115001678466804,4.450000762939453,8.110000610351548,21.635002136230455,4.2300033569335795,6.7000045776367045,2.5100021362304688,6.8899993896484375,15.099998474121122,8.680007934570312,11.0,1.0,12-13,6.769585132598874
10-15,-1.5200004577636719,2.06500244140625,2.3400001525878906,4.20500183105468,8.435005187988267,20.1750030517578,1.6199951171874716,5.989997863769531,2.720001220703125,7.30999755859375,14.099998474121122,6.529998779296875,11.0,1.0,12-14,6.164166768391925
10-16,-1.3950004577636719,1.7900009155273509,1.7600021362304688,3.3650016784667898,8.065002441406236,20.385002136230455,-2.0099945068359233,4.389999389648423,3.0800018310546875,5.279998779296875,13.349998474121122,6.1100006103515625,10.0,2.0,12-15,5.347501118977864
10-17,-1.1400012969970703,2.2250022888183665,1.1800003051757812,2.7900009155273366,4.724998474121094,16.285003662109375,-3.4499969482421875,3.5099945068359375,3.2900009155273438,5.339996337890611,12.51999664306642,8.949996948242159,10.0,2.0,12-16,4.685416062672931
10-18,-1.5799999237060476,2.6100006103515696,-0.2650032043457031,3.0600013732910156,3.5699996948242188,13.465003967285156,-2.629997253417983,3.3600006103515483,3.3700027465820455,1.9100036621093892,8.779991149902344,8.949996948242159,9.0,3.0,12-17,3.716666698455809
10-19,-1.345001220703118,3.1650009155273438,0.6800003051757812,6.099994659423814,2.8949966430664205,12.740005493164062,-0.9599990844726562,3.6100006103515483,-0.48999786376954546,-1.25,8.569999694824219,8.949996948242159,8.0,4.0,12-18,3.555416425069169
10-20,-0.9650001525878871,2.3199996948242188,-0.279998779296875,6.250000000000014,3.5,15.54000091552733,-1.1599960327148295,3.4399948120117188,-2.670005798339858,-4.5300064086914205,8.420005798339844,8.639999389648438,7.0,5.0,12-19,3.2087494532267242
10-21,-0.1949996948242152,2.395000457763672,-1.404998779296875,7.385002136230469,4.309997558593736,13.110000610351548,-0.4199981689453125,3.540000915527358,-0.760002136230483,-4.960006713867173,6.969993591308594,9.240005493164062,7.0,5.0,12-20,3.267499605814615
10-22,-1.1849994659423793,2.7900009155273366,-2.635002136230476,6.755004882812514,2.555000305175767,14.27499389648436,-5.380004882812528,2.980003356933608,-0.5800018310546733,-5.230003356933594,6.379997253417969,9.570007324218722,7.0,5.0,12-21,2.5245830217997187
10-23,-0.7800006866455043,2.5149993896484375,-1.8100013732910156,7.835002899169936,3.3899993896484233,16.055000305175753,-7.699996948242173,2.4000015258789205,-0.7299957275390625,-4.199996948242173,7.17999267578125,9.0,7.0,5.0,12-22,2.762917041778566
10-24,0.010000228881835938,2.575000762939453,-1.1199989318847656,7.020004272460952,2.9199981689453125,16.024993896484403,-6.6999969482421875,2.6300048828125284,-1.2799987792968608,-1.3499984741210938,8.839996337890597,11.940002441406222,8.0,4.0,12-23,3.459167321523033
10-25,0.32999992370605824,2.575000762939453,-0.18499755859375,9.185001373291016,2.349998474121108,18.5,-5.169998168945298,4.6500015258789205,-1.55999755859375,-6.6399993896484375,8.430000305175781,11.940002441406222,8.0,4.0,12-24,3.7004176775614432
10-26,0.32999992370605824,2.5900001525878906,-1.3499984741210938,9.134998321533196,2.8649978637695455,18.5,-5.169998168945298,3.350006103515639,-2.5099945068359375,-5.760002136230469,8.760002136230469,11.940002441406222,8.0,4.0,12-25,3.556667804718019
10-27,-0.06500053405761363,2.8550033569335938,-3.384998321533203,8.089996337890625,2.3050003051757812,19.235000610351577,-4.169998168945298,2.5200042724609517,-1.75,-6.569999694824219,9.299995422363281,15.8800048828125,7.0,5.0,12-26,3.687084039052331
10-28,0.8099994659423864,3.020000457763672,-3.5050010681152344,9.080001831054688,3.345001220703125,17.840003967285156,-5.5699996948242045,2.1299972534179545,0.02999877929686079,-7.290000915527344,9.829994201660128,18.06000518798828,9.0,3.0,12-27,3.981666723887122
10-29,0.4449996948242223,3.0500030517578125,-1.4500007629394602,8.830001831054688,1.0350036621093892,19.51000213623047,-4.040000915527358,1.5600051879882812,0.1199951171875,-3.6200027465820312,8.489990234374986,15.169998168945312,9.0,3.0,12-28,4.0916662216186515
10-30,1.5699996948242188,3.174999237060547,-1.2250022888183594,8.830001831054688,2.9599990844726562,19.384994506835966,-3.8700027465820455,2.720001220703139,0.32999420166014204,-4.950004577636719,7.55998992919919,13.550003051757812,9.0,3.0,12-29,4.169581095377603
10-31,1.1499996185302734,3.5900001525878906,-1.8100013732910156,8.830001831054688,2.75,13.949996948242188,-4.099998474121094,1.540000915527358,0.25,-5.819999694824219,8.239997863769517,8.090011596679716,9.0,3.0,12-30,3.0550007820129417
11-01,0.9349994659423828,3.770000457763672,-0.904998779296875,5.659996032714851,2.5149993896484375,16.04500579833983,-3.4199981689453125,1.9300003051757955,0.5699996948242045,-5.3199996948242045,7.869995117187543,8.090011596679716,9.0,3.0,12-31,3.1450009346008367
11-02,0.9349994659423828,3.2849998474121094,-1.9549980163574219,6.599998474121094,2.1599960327148438,16.04500579833983,-3.4199981689453125,2.290000915527358,0.32999420166014204,-5.4900054931640625,5.220001220703153,8.090011596679716,9.0,3.0,01-01,2.8408338228861525
11-03,0.6900005340576172,3.1599998474121094,-2.9350013732910156,5.4599990844726705,2.5049972534179688,15.645004272460923,-3.6100006103515483,2.9199981689453125,0.6399993896484375,-5.219993591308608,4.830001831054659,6.410003662109375,9.0,3.0,01-02,2.541250705718992
11-04,0.8500003814697301,2.3600006103515696,-2.2600021362304545,6.785003662109375,3.0999984741210938,16.595001220703125,-3.279998779296875,2.5,0.48000335693359375,-4.219993591308608,5.4000091552734375,10.460006713867159,9.0,3.0,01-03,3.230835755666096
11-05,0.03499984741211293,2.200000762939453,-2.7050018310546804,8.385002136230455,3.1699981689453125,13.205001831054688,-3.44000244140625,0.4100036621093892,1.660003662109375,-4.759994506835966,4.600006103515625,5.010009765625,9.0,3.0,01-04,2.3141689300537096
11-06,-0.12999916076660156,2.8000030517578196,-1.8899993896484375,7.68000030517576,3.4300003051757812,12.52999877929689,-4.180000305175781,0.9000015258789062,1.8500061035156108,-5.669998168945327,3.720001220703125,4.510009765625,8.0,4.0,01-05,2.1291686693827288
11-07,-0.13500022888183594,2.170001983642578,-1.7999992370605469,8.955001831054673,4.650001525878906,11.25,-3.7700042724609375,2.9199981689453125,1.8500061035156108,-7.839996337890639,1.770004272460909,1.4000091552734375,8.0,4.0,01-06,1.7850019137064557
11-08,-0.11499977111816762,2.4050025939941406,-2.039997100830071,10.069999694824219,3.9199981689453125,8.604995727539034,-3.4200057983398295,2.529998779296889,2.0699996948241903,-10.699996948242188,0.7700042724609375,1.4000091552734375,8.0,4.0,01-07,1.2912507057189921
11-09,0.36000061035155895,2.819999694824226,-0.05999755859375,11.045001983642585,2.6800003051757955,8.329994201660142,-5.260002136230469,1.9799957275390625,2.3400039672851705,-7.799995422363281,-0.11000061035159092,1.4000091552734375,8.0,4.0,01-08,1.477084159851074
11-10,0.30999946594238637,2.94000244140625,-0.8400001525878906,10.394996643066406,3.05999755859375,8.824996948242173,-4.6500015258789205,-1.25,4.25,-5.160003662109389,-1.1199951171875,0.4499969482421875,7.0,5.0,01-09,1.4341657956441212
11-11,0.2049999237060547,2.7449989318847656,-1.674999237060554,11.379997253417969,3.654998779296875,9.330001831054702,-5.1399993896484375,-0.18000030517578125,4.169998168945327,-4.3300018310546875,-0.7899932861328409,0.6200103759765625,7.0,5.0,01-10,1.665834267934163
11-12,0.8199996948242223,2.770000457763672,-1.4799995422363281,11.964996337890625,3.480003356933608,10.010002136230455,-3.9599990844726562,0.29999542236329546,3.6699981689453267,-3.9000015258789062,-1.839996337890625,3.4000091552734375,8.0,4.0,01-11,2.102917353312177
11-13,0.6949996948242188,2.8600006103515625,-0.5750007629394531,11.974998474121094,2.4250030517577983,12.325004577636719,-6.3400039672851705,0.3399963378906392,2.059997558593764,-2.809997558593764,-1.9100036621094034,0.4499969482421875,8.0,4.0,01-12,1.791249275207516
11-14,0.125,2.5849990844726562,-0.345001220703125,12.544998168945305,2.275001525878892,11.53500366210936,-7.5,0.5799942016601562,2.2600021362304688,-3.8499984741210938,-1.089996337890625,-1.0,7.0,5.0,01-13,1.510000228881833
11-15,-0.2999992370605469,3.075000762939446,-0.375,13.260002136230469,2.840003967285142,10.459999084472656,-6.829994201660156,0.3999938964843608,3.220001220703125,-4.430000305175781,-1.410003662109375,-1.0,6.0,6.0,01-14,1.5758336385091116
11-16,0.020000457763668322,3.7150001525878835,0.8349990844726562,13.24000167846679,1.5550003051757528,10.830001831054702,-8.899993896484403,0.26999664306639204,2.5999984741210795,-5.30999755859375,0.3000030517578409,-1.0,9.0,3.0,01-15,1.5129175186157175
11-17,0.10500144958495738,3.4650001525878835,1.9449996948242188,10.489997863769538,3.120002746582017,10.819999694824219,-8.659996032714858,0.01999664306639204,3.7399978637695312,-5.7399978637695455,1.0099945068359375,0.0,9.0,3.0,01-16,1.6929163932800242
11-18,0.4800014495849574,2.729999542236321,2.200000762939453,10.04499816894532,3.025001525878892,9.235000610351562,-11.180000305175795,1.6800003051758097,3.290000915527358,-6.699996948242202,1.8200073242187784,0.0,9.0,3.0,01-17,1.3854177792867046
11-19,0.9950008392333949,2.5800018310546946,2.8449974060058594,9.54000091552735,2.970001220703139,8.154998779296875,-10.319999694824247,0.12999725341798296,1.760002136230483,-5.159996032714858,1.9500122070312784,0.0,9.0,3.0,01-18,1.287084738413496
11-20,1.7700004577636719,2.895000457763672,3.104999542236328,8.79000091552735,4.25,7.154998779296875,-11.050003051757827,-0.2200012207031108,-0.37999725341795454,-3.339996337890611,4.2400054931640625,0.0,7.0,4.0,01-19,1.4345839818318715
11-21,0.7600002288818324,2.9200019836425852,4.034999847412109,8.69000244140625,3.6899948120117188,5.4249954223632955,-13.569999694824219,0.5,-0.839996337890625,-4.2699966430664205,5.060005187988281,0.0,8.0,3.0,01-20,1.0333339373270674
11-22,1.850002288818363,2.720001220703125,4.31500244140625,7.880001068115227,1.9449996948242188,7.404998779296861,-13.870002746582031,0.06999969482419033,-0.7699966430664062,-4.75,2.0,0.0,8.0,3.0,01-21,0.7329171498616498
11-23,1.3000011444091726,3.4350013732910156,5.165000915527344,9.304996490478509,2.644996643066392,6.2949981689453125,-11.950004577636719,-0.8999938964843892,2.3100051879882812,0.06999969482421875,0.7000045776367188,0.0,9.0,2.0,01-22,1.5312504768371547
11-24,1.6400012969970632,2.5,4.1550025939941335,9.859996795654304,2.904998779296875,6.2299957275390625,-11.97000122070311,-0.6299972534179545,2.340003967285142,-1.9099960327148438,-1.9000015258789062,0.0,7.0,4.0,01-23,1.1016669273376472
11-25,1.2300014495849574,1.865001678466804,4.7350006103515625,9.880001068115241,1.4850006103515625,6.315002441406236,-12.94000244140625,0.8700027465820455,0.9300003051757812,-2.9899978637695312,-1.6299972534179688,0.0,8.0,3.0,01-24,0.8125011126200367
11-26,-0.11500167846679332,2.260002136230476,2.8899993896484375,10.20000076293946,1.0149993896484517,5.540000915527344,-14.290000915527344,2.8899993896484233,1.4000015258789062,-5.289993286132827,-3.550003051757841,0.0,7.0,4.0,01-25,0.24583371480305782
11-27,0.2949981689453125,2.754997253417976,2.9749984741210938,10.510002136230469,1.3100051879882812,6.264999389648423,-13.049995422363281,4.4500045776367045,3.090003967285142,-3.75,-3.0299987792968466,0.0,8.0,3.0,01-26,0.9850012461344395
11-28,0.8250007629394531,2.8899993896484375,3.43499755859375,10.755001068115234,1.4150009155273438,4.4949951171875,-14.629997253417955,3.7300033569335938,1.6000061035156108,-5.589996337890639,-2.579994201660142,0.0,8.0,3.0,01-27,0.5287513732910156
11-29,0.2700004577636683,3.4949989318847656,3.1399993896484375,10.669998168945312,-1.2299957275390767,3.975006103515611,-13.15999603271483,3.0800018310546875,1.9300003051757528,-6.25,-3.029998779296861,0.0,7.0,4.0,01-28,0.24083455403645568
11-30,0.03999900817871094,3.4150009155273438,0.8349990844726562,9.97000503540039,-0.2350006103515625,3.0450057983398295,-12.939994812011719,5.150001525878906,3.3600006103515625,-5.8300018310546875,-5.540000915527344,0.0,7.0,4.0,01-29,0.10583448410034062
12-01,-0.20000076293944957,2.4650001525878906,1.1399993896484375,9.529998779296868,-0.6150054931640625,0.9350051879882812,-13.959999084472685,6.610000610351577,5.540000915527344,-6.8600006103515625,-4.470001220703125,0.0,6.0,5.0,01-30,0.009583155314126124
12-02,-0.5200004577636719,1.8649978637695241,2.0949974060058665,10.059997558593743,-0.23000335693359375,1.3050003051758097,-12.539993286132827,7.439994812011719,2.0100021362304545,-6.0799942016601705,-5.0800018310546875,0.0,6.0,5.0,01-31,0.027083079020180516
12-03,-0.29000091552734375,1.2150001525878906,2.1500015258789062,9.6449966430664,0.7699966430664062,-0.7599945068359091,-12.210006713867173,6.040000915527358,0.7900009155273295,-5.509994506835966,-4.540000915527344,0.0,6.0,5.0,02-01,-0.22500006357828717
12-04,-0.850000381469723,2.1650009155273438,2.2050018310546875,9.95999908447265,0.125,1.0,-10.83999633789061,4.020004272460966,1.1700057983398295,-1.6800003051757955,-5.6800079345703125,0.0,7.0,4.0,02-02,0.13291724522908618
12-05,-0.40500068664550426,3.0300025939941335,2.845001220703125,10.384998321533203,1.4449996948242188,0.0149993896484375,-9.400001525878892,4.569999694824247,1.9800033569335938,-0.7399978637695455,-8.020004272460938,0.0,7.0,4.0,02-03,0.47541666030883994
12-06,-0.19500160217285512,2.6000022888183594,2.709999084472649,7.329998016357422,-2.7399978637695312,0.44499969482420454,-11.949996948242173,4.339996337890639,2.540000915527358,-0.34999847412110796,-12.699996948242159,0.0,6.0,5.0,02-04,-0.6641662915547663
12-07,-0.5600013732910156,2.3500022888183594,3.095001220703125,9.594997406005866,-4.920005798339844,2.029998779296889,-9.879997253417955,2.379997253417983,1.510002136230483,2.5399932861328125,-11.639999389648438,0.0,7.0,4.0,02-05,-0.29166762034097776
12-08,0.1849994659423828,2.6550025939941406,3.585002899169929,7.550003051757798,-4.7350006103515625,2.3050003051757812,-7.6399993896484375,1.1699981689453125,-0.30999755859375,2.8000030517578267,-10.449996948242188,0.0,7.0,4.0,02-06,-0.24041541417439719
12-09,-0.11499977111816051,2.7749977111816406,3.6399993896484304,7.2649993896484375,-4.745002746582031,0.8799972534179688,-6.440002441406236,1.6399993896484375,-3.6999969482421875,3.5500030517578267,-8.1199951171875,0.0,6.0,5.0,02-07,-0.2808334032694478
12-10,-0.6550006866455078,2.4749984741210938,4.180000305175774,7.245002746582031,-5.065002441406236,3.2999954223632955,-5.180000305175753,1.2699966430664062,-1.720001220703125,2.6399993896484375,-7.6100006103515625,0.0,6.0,5.0,02-08,0.07333230972290454
12-11,-0.08499908447265625,2.8149986267089844,4.375,6.645000457763672,-2.565002441406236,3.884994506835966,-5.860000610351548,1.3600006103515767,-1.5500030517578267,3.05999755859375,-7.449996948242216,0.0,6.0,5.0,02-09,0.38583246866862214
12-12,-1.004999160766598,3.1350021362304688,4.545001983642578,6.889999389648445,-2.5,5.519996643066406,-8.080001831054688,1.4499969482421875,-1.760002136230483,2.6399993896484375,-9.399993896484375,0.0,6.0,5.0,02-10,0.1195832888285316
12-13,-0.2649993896484375,3.0149993896484446,5.125,6.380001068115234,-0.18500518798828125,4.355003356933594,-6.740005493164077,3.0499954223632955,-2.1200027465820455,3.9499969482421875,-10.399993896484375,0.0,6.0,5.0,02-11,0.5137491226196284
12-14,0.030000686645511365,2.579998016357429,5.7050018310546875,4.475006103515639,0.7649993896484233,5.065002441406264,-6.390007019042969,3.9300003051757812,-3.5199966430664205,4.720001220703125,-12.360000610351562,0.0,8.0,3.0,02-12,0.4166671435038258
12-15,0.46999931335448863,2.194999694824226,5.954998016357422,4.5750045776367045,1.3800048828124858,5.055000305175781,-7.210006713867173,4.029998779296861,-2.7199935913085795,7.5900039672851705,-11.300003051757798,0.0,8.0,3.0,02-13,0.8350005149841323
12-16,0.23500061035155895,3.029998779296875,4.979999542236328,3.125,1.6800003051757528,5.779998779296875,-8.8800048828125,4.620002746582031,-2.149993896484361,10.480003356933608,-10.889999389648438,0.0,8.0,3.0,02-14,1.0008338292439776
12-17,0.7199993133544886,3.18499755859375,5.9750022888183665,4.455001831054673,1.0749969482421733,2.980003356933608,-6.900001525878892,4.589996337890639,-1.5699996948241903,10.760002136230483,-10.740005493164062,0.0,8.0,3.0,02-15,1.2108327547709197
12-18,1.225000381469723,3.0649986267089915,5.694999694824226,3.3199996948242188,0.2649993896484375,0.605003356933608,-7.0200042724609375,5.349998474121094,0.1900024414062642,11.190002441406236,-9.289993286132812,0.0,9.0,2.0,02-16,1.2162505785624207
12-19,1.0650005340576172,2.9949989318847656,5.405002593994155,3.9499969482421733,0.2299957275390483,2.565002441406236,-5.450004577636719,5.279998779296875,0.01000213623045454,11.459999084472656,-10.059997558593722,0.0,9.0,2.0,02-17,1.454166253407795
12-20,1.5949993133544922,3.1699981689453125,4.580001831054695,2.3600006103515625,0.30500030517575283,3.5849990844726847,-3.6100006103515483,5.8600006103515625,0.15999603271484375,10.819999694824219,-12.010002136230469,0.0,9.0,2.0,02-18,1.4012494087219256
12-21,1.7900009155273473,3.109996795654297,3.8899993896484446,2.8700027465820312,1.6999969482422017,3.125,-2.2300033569335938,5.6299972534179545,0.1399993896484375,10.940002441406264,-12.859992980957031,0.0,9.0,2.0,02-19,1.5087499618530293
12-22,1.470001220703125,3.029998779296875,3.790000915527351,2.0749969482421875,0.5449981689453125,3.319999694824247,-3.760002136230483,6.5,0.0,13.510002136230469,-13.67999267578125,0.0,8.0,3.0,02-20,1.400000254313153
12-23,1.255001068115238,2.9499969482421875,3.944999694824226,0.2350006103515767,0.779998779296875,2.5849990844726705,-5.239997863769517,7.0799942016601705,-0.1199951171875,13.1300048828125,-13.489997863769531,0.0,8.0,3.0,02-21,1.0925003687540746
12-24,1.2700004577636719,3.2150001525878906,4.080001831054695,-1.8650054931640625,-0.26000213623046875,2.5600051879882812,-5.699996948242202,6.520004272460952,-0.8799972534179688,14.139999389648423,-14.019996643066378,0.0,6.0,5.0,02-22,0.7550010681152362
12-26,1.1399993896484375,2.020000457763679,3.920001983642571,-1.6150054931640625,0.33499908447265625,2.5250015258789062,-3.1800003051757812,6.9599990844726705,-0.6599960327148295,10.47000122070311,-14.0,0.0,7.0,4.0,02-24,0.6595834096272798
12-27,0.8299999237060582,1.7650032043457031,3.920001983642571,-1.5199966430664062,1.0449981689453267,2.0149993896484517,-5.029998779296861,6.9599990844726705,-0.8699951171874716,8.709999084472642,-14.399993896484403,0.0,7.0,4.0,02-25,0.2854180335998568
12-28,1.1549987792968786,1.3500022888183594,4.505001068115227,-0.18999481201171875,0.02500152587892046,2.154998779296889,-4.220001220703125,8.139999389648452,-1.30999755859375,10.209999084472642,-17.650001525878878,0.0,7.0,4.0,02-26,0.34750048319499144
12-29,1.3699989318847692,1.1700019836425781,4.104999542236321,-2.5250015258789205,1.1500015258789205,1.6049957275390625,-4.900001525878906,7.2900009155273295,0.6399993896484375,10.089996337890625,-23.29000091552733,0.0,8.0,3.0,02-27,-0.27458413441975943
12-30,1.4200000762939489,1.0499992370605469,4.0900001525878835,-1.3350067138672017,2.3300018310546733,2.0049972534179688,-4.089996337890625,8.549995422363281,-0.470001220703125,9.239997863769531,-23.83000183105466,0.0,7.0,4.0,02-28,-0.08666785558064809
12-31,1.2600002288818395,1.6800003051757812,3.9099998474121165,-0.345001220703125,1.7350006103515483,2.2600021362304545,-1.8099975585937358,7.199996948242202,-2.690002441406236,9.939994812011719,-24.400009155273438,0.0,7.0,4.0,03-01,-0.10500129063923946
