,2009,2010,2011,2012,2013,2014,2015,2016,2017,2018,2019,2020,ups,downs,end_day_sum,avg
01-02,-3.126953125,-0.26943016052246094,-0.2652168273925781,0.061115264892578125,2.9632110595703125,-3.1713027954101562,-3.9239768981933594,-1.0229339599609517,0.03630065917967329,0.962860107421875,7.920707702636719,2.5872039794921875,6.0,6.0,02-01,0.22929875055948656
01-03,-2.8724422454833984,-0.6399192810058594,0.10404205322265625,0.314311981201179,2.7951736450195312,-2.919300079345703,-1.2103996276855469,1.0637893676757812,0.2550506591796733,0.5290679931640625,8.983757019042969,2.2316207885742188,8.0,4.0,02-02,0.7195626894632969
01-04,-3.3876361846923793,-0.44542884826660156,0.9017143249511648,1.1965408325195384,2.202594757080078,-1.8362388610839773,-1.1092491149902344,0.511695861816392,0.03179168701171875,1.664093017578125,7.052703857421875,2.816192626953125,8.0,4.0,02-03,0.7998978296915688
01-05,-4.077329635620114,0.02795219421385653,0.7559928894042969,1.579071044921882,2.2807960510253906,-2.2067108154296875,-0.7138481140136648,-0.03271484375,0.7514724731445312,0.79840087890625,7.329727172851577,1.7957000732421875,8.0,4.0,02-04,0.6907091140747088
01-06,-3.1593132019042933,-0.5028038024902344,1.1238670349121094,1.6660118103027415,2.9028968811035156,-4.357234954833977,-0.14652633666992188,2.1361923217773438,0.7230758666992188,-0.04046630859375,7.750556945800767,3.5097122192382812,7.0,5.0,02-05,0.9671640396118167
01-07,-2.4826087951660156,-0.5028038024902344,1.2008743286132812,1.0720901489257812,2.885112762451172,-3.9946937561035156,-0.7151451110839773,3.4591064453125,-0.02754974365234375,-1.0444793701171875,8.044174194335938,4.3483810424804545,6.0,6.0,02-06,1.020204861958821
01-08,-3.152364730834961,-0.5280551910400391,0.9777679443359375,1.6832389831542969,0.9584846496582102,-5.101215362548828,-2.390510559082024,3.3473052978515625,0.4004669189453125,-3.380767822265625,7.70697021484375,4.953697204589844,7.0,5.0,02-07,0.4562514623006197
01-09,-2.2097511291503906,-1.3143386840820312,1.1495246887207031,1.6832389831542969,1.7560195922851562,-4.687160491943359,-1.8045921325683452,2.5516891479492188,-0.00852203369142046,-2.205841064453125,8.2548828125,3.531402587890639,6.0,6.0,02-08,0.5580460230509452
01-10,-1.7782974243163991,-1.373519897460941,1.8708686828613281,1.4917449951171875,2.0213432312011648,-4.957183837890625,-1.1705131530761719,1.503662109375,0.2161712646484233,-1.4553756713867188,7.182075500488281,2.415306091308608,7.0,5.0,02-09,0.49719015757242807
01-11,-1.130157470703118,-1.2720489501953232,1.8720932006835866,1.4038887023925852,1.8798332214355469,-3.9483871459960938,-0.6923484802246094,3.2909317016601705,0.7877502441406392,-2.0132675170898438,7.0357742309570455,1.6734924316406392,7.0,5.0,02-10,0.7406295140584355
01-12,-1.612106323242184,-1.0606193542480469,1.2636299133300852,1.6907844543457102,1.676258087158196,-3.0538330078125,-1.3176460266113281,4.563629150390639,0.51312255859375,-2.3114395141601562,8.139083862304688,0.8511581420898295,7.0,5.0,02-11,0.7785018285115569
01-13,-2.6423778533935547,-1.3985977172851527,1.2807350158691477,1.6820907592773509,1.3563079833984375,-3.126129150390618,-1.060966491699233,5.22418212890625,0.35214996337890625,-4.388175964355469,7.5910186767578125,-0.04051971435546875,6.0,6.0,02-12,0.4024764696757008
01-14,-0.8966484069824219,-1.3059711456298793,1.0326309204101634,2.0058860778808594,1.2852249145507812,-3.7547149658203054,-0.5851020812988281,5.373268127441406,0.5226669311523295,-3.6351699829101562,7.894401550292969,0.2763214111328267,7.0,5.0,02-13,0.6843994458516454
01-15,-1.3348808288574219,-0.8512973785400355,0.639556884765625,1.37725830078125,1.2510185241699219,-3.430316925048828,0.1656036376953196,6.006778717041023,1.683013916015625,-3.2104034423828125,7.672210693359375,-1.6241683959960938,7.0,5.0,02-14,0.6953644752502456
01-16,-0.79742431640625,-1.3985977172851527,0.5107460021972656,0.835948944091804,1.6421432495117045,-3.430316925048828,-0.4660835266113281,5.960178375244141,1.340606689453125,3.6632843017578125,8.239494323730455,-3.1156082153320312,7.0,5.0,02-15,1.0820309321085597
01-17,0.3105506896972656,0.9859161376953125,0.30464935302734375,0.7573623657226634,1.226459503173821,-2.7462539672851562,-0.22806167602539062,6.081798553466783,0.76995849609375,3.9936294555664062,7.0496673583984375,-2.2266769409179545,9.0,3.0,02-16,1.3565832773844402
01-18,0.5349063873291016,1.1042900085449219,0.2702903747558594,0.4707527160644531,0.9699745178222585,-2.6832427978515696,0.13055801391600852,6.998828887939453,0.0381927490234375,3.60888671875,5.333168029785156,-0.557464599609375,10.0,2.0,02-17,1.3515950838724755
01-19,0.18590164184569247,0.8759918212890625,0.6038894653320312,0.22733306884765625,1.2441482543945241,-2.2495079040527415,0.5811233520507812,5.735591888427734,0.7484130859375,2.2910995483398438,6.552253723144517,0.91876220703125,11.0,1.0,02-18,1.4762500127156544
01-20,-0.7946281433105433,1.009603500366211,0.9717597961425781,0.9402389526367188,1.1552848815917969,-1.9332809448242188,1.215606689453132,5.463024139404304,1.7805862426757812,3.39727783203125,5.5442047119140625,1.384422302246108,10.0,2.0,02-19,1.6778416633605984
01-21,-2.0109081268310547,1.3042926788330078,1.1685523986816406,0.9141616821289062,1.190826416015625,-1.7435150146484446,1.6299514770507812,6.515777587890625,1.0135726928710938,3.8896560668945312,5.7105865478515625,-0.012542724609375,9.0,3.0,02-20,1.6308676401774083
01-22,-1.6967067718505824,1.3127155303955078,0.6295661926269531,1.2110137939453125,1.7596206665039062,-1.9971656799316406,1.2912063598632812,5.071746826171875,1.9646682739257812,4.526802062988281,5.328910827636719,-0.2997436523437358,9.0,3.0,02-21,1.5918862024943048
01-23,-1.7132434844970703,1.684774398803711,0.9043693542480469,1.2721328735351562,0.6300430297851562,-1.3761024475097727,2.1609344482421875,6.026214599609368,1.6793441772460938,3.6487884521484375,5.107002258300781,-1.9788436889648438,9.0,3.0,02-22,1.5037844975789376
01-24,-2.2934379577636754,1.8708019256591726,0.8871994018554759,1.1144638061523366,0.373565673828125,0.26204681396483664,1.9034347534179688,5.633201599121087,1.3033981323242188,2.2027816772460938,5.350830078125,-1.7319183349609233,10.0,2.0,02-23,1.4063639640808097
01-25,-2.4097709655761754,1.955343246459961,0.10544967651366477,0.7925987243652344,0.43547821044921875,1.3101921081542969,2.2068977355957102,5.558349609375007,1.0937118530273295,1.0196609497070312,5.097244262695327,-1.18890380859375,10.0,2.0,02-24,1.3313543001810713
01-26,-3.273962020874027,1.8705654144287003,-0.7351837158203125,0.45351028442383523,1.0575714111328125,1.1204452514648438,2.2988357543945312,2.227081298828125,1.1978759765625,1.298614501953125,5.461029052734375,-4.1116485595703125,9.0,3.0,02-25,0.7387278874715163
01-27,-2.891729354858395,2.02353477478027,-0.6068687438964915,0.34050750732421875,1.581920623779304,0.8764839172363281,3.1356430053710938,3.424842834472642,1.0842437744140625,3.0892868041992188,4.413848876953139,-6.8560638427734375,9.0,3.0,02-26,0.8013041814168295
01-28,-3.539873123168956,2.2677040100097656,0.14598464965820312,0.899280548095696,0.9420356750488281,0.8403358459472585,3.4574775695800852,3.031829833984375,1.3124771118164062,3.4561309814453125,3.9342880249023438,-8.946586608886719,10.0,2.0,02-27,0.65009037653605
01-29,-3.1742534637451243,2.638193130493164,-0.5238227844238281,0.9603919982910156,0.47989654541015625,1.4276580810546875,2.620697021484382,0.945106506347642,1.5407638549804688,3.2533950805664062,3.298149108886733,-11.155990600585938,9.0,3.0,02-28,0.19251537322998047
01-30,-2.6590595245361435,2.3676033020019602,-0.0171661376953125,0.9603919982910156,1.3686294555664062,0.6596183776855398,2.5195465087890696,1.8995361328125,1.6548919677734375,1.74737548828125,3.3764495849609375,-11.750442504882812,9.0,3.0,02-29,0.17728122075398733
01-31,-1.9444332122802734,2.511341094970703,0.09447097778321023,0.2881202697753835,1.6618995666503906,1.03009033203125,2.501167297363274,0.9544601440429688,1.4646682739257812,1.9307937622070312,2.241188049316392,-10.729949951171875,10.0,2.0,03-01,0.16698471705118637
02-01,-1.6037445068359375,2.917217254638672,-1.056262969970696,-0.6635513305664134,1.0397987365722656,3.6956520080566406,2.1425285339355398,1.3100280761718892,2.0163116455078125,2.4907302856445312,1.8203582763672017,-14.702903747558594,8.0,4.0,03-02,-0.04948647816975734
02-02,-2.999752044677738,2.731208801269542,-1.0047378540039062,-0.017459869384765625,1.5374755859375,4.29200363159179,2.7218437194824148,2.9756622314453125,2.5964813232421875,3.4947433471679688,1.8399200439453125,-16.02062225341797,8.0,4.0,03-03,0.17889722188313742
02-03,-3.2573413848876953,3.0778846740722656,-0.8329811096191406,-0.6286087036132812,1.1197662353515625,3.533008575439446,2.2252883911132812,1.179039001464858,2.1684646606445312,5.425575256347656,0.9395217895507955,-13.533805847167969,8.0,4.0,03-04,0.1179842948913592
02-04,-2.5759563446044886,3.8389053344726562,-1.0047378540039062,-0.4889259338378906,1.0575828552246094,3.270957946777351,2.2068939208984304,2.030570983886733,2.339683532714858,6.0820465087890625,1.7224655151367188,-14.058914184570298,8.0,4.0,03-05,0.36838102340698625
02-05,-2.8751144409179688,3.898086547851566,-0.7041625976562571,-0.26189804077147727,1.1108970642089773,3.2800064086914062,1.6643638610839844,3.0785980224609517,2.5584259033203267,6.7771453857421875,0.3914794921875,-10.33364868164064,8.0,4.0,03-06,0.7153482437133798
02-06,-3.52325439453125,3.796615600585948,-1.2881202697753906,-0.13095474243164062,1.3064231872558523,3.099292755126953,1.1861991882324219,2.0305633544921733,2.1875152587890767,6.738517761230469,-1.0765380859375284,-9.996788024902358,7.0,5.0,03-07,0.3607892990112272
02-07,-3.714387893676758,4.3969650268554865,-1.4341087341308523,-1.1175346374511648,1.3419609069824219,2.2047386169433594,1.2689743041992188,2.779182434082017,2.605987548828125,6.0724029541015625,-1.4288635253906392,-9.174453735351548,7.0,5.0,03-08,0.3167386054992691
02-08,-3.930435180664066,4.489978790283214,-0.0772857666015625,-0.8730812072753906,1.6619110107421804,2.1143798828125,0.5701103210449219,2.5171737670898295,2.2731094360351562,8.456932067871094,-0.8807983398437642,-11.710807800292969,7.0,5.0,03-09,0.38426558176676195
02-09,-4.138174057006836,4.024923324584961,-0.1717376708984446,-1.3707504272460866,1.8662910461425781,2.0963096618652273,0.48735809326171875,1.2913360595702983,2.2540969848632955,7.703926086425781,-1.7811813354492188,-8.421470642089858,7.0,5.0,03-10,0.32007726033528466
02-10,-2.2934398651123047,4.4054260253906214,-0.2919654846191406,-0.7421226501464773,2.5061683654785156,1.942707061767571,0.018386840820319605,1.5533370971679688,1.09375,7.095733642578125,-1.2037582397460938,-14.21743774414061,7.0,5.0,03-11,-0.011101245880125473
02-11,-2.650758743286133,2.0209121704101562,-0.16315460205078125,0.742115020751946,2.5950355529785156,1.1114006042480469,-0.2942543029785156,1.4317169189453267,1.3505630493164062,7.983909606933594,0.31317901611328125,-11.948608398437528,8.0,4.0,03-12,0.2076713244120262
02-12,-2.8751144409179688,1.9025382995605469,-1.0390853881835938,0.9778633117675781,2.355083465576172,0.9939346313476562,-0.6528739929199148,0.5146865844726562,2.2445907592773438,7.897010803222656,-0.05872344970703125,-15.485610961914062,7.0,5.0,03-13,-0.26880836486816345
02-13,-2.5261096954345597,2.1900253295898438,-0.9446258544921875,1.0302391052246094,1.919628143310554,0.5601997375488281,-1.1034393310546875,1.3287506103515625,2.20654296875,0.7530288696289062,-0.5089111328124716,-16.961837768554688,7.0,5.0,03-14,-1.0047090848286908
02-14,-0.8808155059814524,2.223846435546875,-0.7213630676269531,1.8160171508788991,2.0084915161132812,0.2439727783203054,-1.55401611328125,1.7124176025390625,2.5679397583007812,-0.569580078125,0.49913787841798296,-17.427497863769545,7.0,5.0,03-15,-0.8401207923889178
02-15,-0.4819526672363317,1.8856086730957102,-1.3052940368652344,1.7898292541503906,1.9729499816894531,-0.7499618530273438,-1.9770050048828196,1.20709228515625,3.8424301147460938,-1.0619583129882812,0.33275604248048296,-20.66730499267578,6.0,6.0,03-16,-1.267734209696451
02-16,-0.5234966278076207,2.1731109619140696,-1.6058425903320312,1.4929771423339844,1.5374565124511719,-0.4246788024902344,-1.3425254821777415,2.0680084228515625,2.8913345336914062,-1.6991043090820312,1.3114166259765625,-18.695693969726562,6.0,6.0,03-17,-1.0680864651997888
02-17,-0.033235549926761365,2.5705375671386648,-1.880645751953125,1.4318580627441406,1.7329826354980469,-0.01806640625,-1.5080413818359446,2.9756546020507812,3.1766586303710938,-0.753021240234375,1.468017578125,-27.12708282470703,6.0,6.0,03-18,-1.4970320065816258
02-18,1.4458599090576136,2.1984786987304616,-1.863475799560554,2.0866737365722727,1.6085662841796875,0.4427528381347656,-1.7287445068359375,3.0411605834960938,2.2731170654296875,-0.8785171508789062,2.1139373779296875,-18.636245727539062,8.0,4.0,03-19,-0.6580363909403492
02-19,1.7283897399902344,2.012451171875,-0.9274559020996094,1.9557075500488281,1.8307380676269531,0.30721282958984375,-1.7379150390625,3.434173583984375,2.3682403564453125,-1.0619583129882812,2.00628662109375,-18.09130859375,8.0,4.0,03-20,-0.5146198272705078
02-20,1.8447227478027344,1.6996116638183594,-0.4207878112792969,1.8247489929199219,3.8925514221191406,0.00904083251953125,-2.0413780212402415,4.173431396484361,3.091064453125,-1.2357254028320312,1.653961181640625,-18.01205444335936,8.0,4.0,03-21,-0.2934010823567714
02-21,3.1327037811279297,1.3444709777832102,0.4293785095214844,1.6588592529296875,3.9281044006347656,0.19878768920898438,-2.4183731079101562,3.8271942138671733,2.0733871459960938,-0.5502853393554688,0.8123016357421875,-15.089309692382798,9.0,3.0,03-22,-0.05439837773640891
02-22,2.6673660278320312,1.2429885864257812,0.36067962646484375,1.5977325439453196,3.403755187988274,0.2620353698730469,-2.7953872680664062,4.2856979370117045,2.4633331298828125,-0.984710693359375,1.8594818115234233,-10.234580993652358,9.0,3.0,03-23,0.3440326054890915
02-23,3.7642288208007812,1.5981407165527415,1.0133247375488281,0.9778442382812642,3.6970405578613352,0.34334564208985086,-2.6482620239257812,4.8658905029296875,2.5965194702148438,-1.3515548706054688,3.895141601562514,-16.54572296142578,9.0,3.0,03-24,0.1838280359904013
02-24,2.642435073852539,0.5919036865234446,1.313873291015625,0.9167327880859446,3.679271697998047,-0.1626434326171804,-2.5747222900390554,3.8927001953125,2.3682327270507812,-2.7224273681640625,2.2216033935546875,-25.046470642089844,8.0,4.0,03-25,-1.0732925732930478
02-25,2.7338466644287216,0.6680030822753906,0.8072166442871094,0.6722793579101562,3.4659805297851562,-0.3975715637207031,-2.6390876770019602,3.4903640747070312,2.5489273071289062,-3.8712692260742188,2.8871078491210938,-18.705589294433594,8.0,4.0,03-26,-0.6949826876322426
02-26,2.708913803100586,0.5242652893066477,0.824390411376946,0.9254531860351634,3.723705291748047,-1.2379074096679688,-3.0161094665527344,4.4354400634765625,2.03533935546875,-2.4810943603515625,4.041946411132798,-14.366058349609375,8.0,4.0,03-27,-0.15680964787801166
02-27,2.36822509765625,-0.14374160766601562,0.687000274658196,1.4755096435546804,2.8883056640625,-1.7529449462890696,-2.657470703125,4.145370483398423,2.03533935546875,-1.3708724975585938,4.0223617553710795,-12.10711669921875,7.0,5.0,03-28,-0.03416951497396248
02-28,5.068832397460941,0.09300613403320312,0.6268882751464773,1.7810783386230469,2.4084129333496094,-2.3492965698242188,-3.236785888671875,3.4435577392577983,2.4347991943359375,-1.2936325073242188,3.7091827392577983,-10.789398193359375,8.0,4.0,03-29,0.15805371602376037
02-29,0.0,0.0,0.0,1.8858528137207031,0.0,0.0,0.0,4.304443359374986,0.0,0.0,0.0,-7.3118209838867045,2.0,1.0,03-30,-0.0934604008992513
03-01,4.7530727386474645,0.4735221862792969,1.1678924560546804,1.7461700439453125,2.826122283935547,-1.4818878173828054,-3.0528717041015554,3.7523345947265625,0.9320755004882812,-0.8881759643554688,4.609580993652315,-9.491500854492188,8.0,4.0,03-31,0.44552787144978695
03-02,3.797470092773441,0.3635902404785156,1.8806533813476562,1.5191421508788991,3.0571479797363352,-0.9578018188476562,-2.574714660644524,4.042427062988267,1.1698455810546875,-1.544647216796875,4.48236083984375,-3.0713577270507812,8.0,4.0,04-01,1.0136763254801429
03-03,4.1713981628418,0.08456039428710938,0.8587341308593821,1.36199951171875,3.510417938232422,0.6957511901855398,-2.179309844970703,3.303192138671875,0.9511032104492188,-1.96942138671875,4.6780853271484375,-3.1902542114257812,9.0,3.0,04-02,1.0230213801066084
03-04,3.714370727539059,0.08456039428710938,1.4426918029785156,1.239776611328125,3.1727066040039062,1.174671173095696,-1.9310340881347656,2.5545730590820312,1.15081787109375,-0.5502777099609375,5.969940185546875,-11.126251220703125,9.0,3.0,04-03,0.57471211751302
03-05,4.387453079223633,-0.515789031982429,2.0266456604003835,1.4405670166015625,3.0482826232910227,1.0933036804199219,-1.3885116577148438,2.5171432495117188,1.2744674682617188,-2.384552001953125,5.627410888671861,-7.698219299316406,8.0,4.0,04-04,0.7856834729512515
03-06,4.603500366210941,-0.9385719299316406,2.584838867187493,2.70654296875,2.0084800720214915,1.2559585571288991,-0.6896476745605469,3.1534576416015625,0.7608718872070312,-1.1681289672851562,6.831176757812528,-10.987556457519517,8.0,4.0,04-05,0.8434101740519239
03-07,6.198934555053711,-0.8117408752441406,2.8939933776855398,2.68035888671875,1.87518310546875,1.2740287780761719,-0.48735809326171875,2.9850387573242188,1.2078933715820312,-0.415130615234375,7.428176879882827,-5.251037597656264,8.0,4.0,04-06,1.6315283775329583
03-08,6.273723602294922,-0.6764373779296946,1.5715065002441406,1.7374305725097727,1.2353057861328125,1.011993408203125,-0.9471244812011719,1.82470703125,0.13315582275390625,-0.2317047119140625,6.850753784179702,-7.192932128906264,8.0,4.0,04-07,0.9658648173014323
03-09,6.273723602294922,-0.372039794921875,1.9321708679199219,1.5016822814941406,1.1731033325195312,0.43370819091796875,-0.7356338500976491,1.9931182861328125,0.21875,-1.1198806762695312,5.950386047363281,-0.683616638183608,8.0,4.0,04-08,1.3804559707641595
03-10,4.478857040405273,-0.32977294921875,3.0141983032226562,1.038959503173821,0.6576576232910156,-0.12651443481445312,-0.5885047912597656,2.442291259765625,-0.6752777099609375,-0.3668365478515625,6.576728820800781,-2.843482971191392,6.0,6.0,04-09,1.1065252621968593
03-11,4.620124816894531,-0.3889617919921875,2.91973876953125,0.6460876464843679,0.9242706298828125,0.7138328552246094,0.055164337158203125,2.058624267578125,-0.20925140380859375,-2.2011032104492188,6.8214111328125,2.021148681640625,9.0,3.0,04-10,1.4984238942464188
03-12,3.95536041259766,-0.42278289794921875,2.181224822998047,0.4801940917968679,0.959819793701179,1.0843048095703125,-0.12874221801758523,1.9744491577148438,-0.5611343383789062,-0.8495407104492188,5.774215698242202,6.657920837402344,8.0,4.0,04-11,1.7587741216023771
03-13,3.556497573852539,0.16066360473632102,1.6831512451171875,-0.9341964721679688,1.7063331604003906,1.8884735107421875,0.2942466735839844,1.9837875366210938,0.133148193359375,2.1431884765625,6.6158599853515625,4.686309814453125,11.0,1.0,04-12,1.9931219418843582
03-14,4.229568481445316,0.7779197692871094,1.4169464111328125,-0.4889411926269531,1.5730323791503906,1.5631904602050781,-0.4229927062988281,1.9837875366210938,0.370941162109375,2.1045761108398438,6.018875122070327,16.080078124999986,10.0,2.0,04-13,2.933915138244629
03-15,5.093765258789059,0.8540344238281108,1.459869384765625,-0.8643646240234446,1.3775062561035156,0.6776695251464844,-0.27585601806640625,1.3380966186523438,-0.30435943603515625,1.9018402099609375,5.862274169921889,19.210884094238267,9.0,3.0,04-14,3.027613321940102
03-16,4.55363655090332,0.6849174499511648,1.9751052856445312,-0.7333984375,1.706329345703125,-0.21685409545898438,-0.3310356140136719,1.534637451171875,-0.0570526123046875,2.0273361206054688,5.823150634765639,14.336334228515625,8.0,4.0,04-15,2.6085921923319506
03-17,3.3570632934570312,1.0823516845703196,1.8978347778320312,-0.078582763671875,1.1908683776855469,0.20781707763672586,-0.2850608825683594,0.8702316284179688,-0.1521759033203125,2.6452102661132812,6.45928955078125,7.500061035156264,9.0,3.0,04-16,2.0579090118408225
03-18,2.3432941436767614,1.3106498718261719,1.3911666870117188,-0.4452857971191406,-0.15108489990234375,0.5060157775878906,-0.8735694885253906,1.2164688110351562,-1.5312652587890625,2.6934814453125,6.048240661621094,4.141387939453111,8.0,4.0,04-17,1.3874583244323722
03-19,1.9195041656494176,1.665790557861321,0.5839500427246094,-0.27939605712889914,0.044429779052734375,1.0571975708007812,-0.5885124206542969,1.0012588500976562,-1.940216064453125,4.19952392578125,5.8916473388671875,2.0310745239257955,9.0,3.0,04-18,1.2988543510437027
03-20,2.384841918945316,2.2492294311523438,1.0648536682128906,0.08730697631835938,-1.457489013671875,1.2379112243652344,-0.21149826049804688,1.7498626708984375,-0.5421218872070312,6.130302429199219,5.5491180419921875,8.342216491699219,9.0,3.0,04-19,2.215377807617188
03-21,-0.48195648193359375,2.672016143798828,0.5152397155761719,0.17462158203125,-1.1108894348144602,1.1566009521484304,-0.34943389892578125,2.1054153442382812,0.7608871459960938,5.811737060546861,3.993019104003892,17.75445556640625,9.0,3.0,04-20,2.7501427332560184
03-22,-0.9472885131835938,2.7312088012695312,1.082019805908196,0.41907501220703836,-1.0931205749511719,1.9969139099121023,-0.5057449340820312,1.29132080078125,0.6657485961914062,7.385345458984361,5.666557312011719,18.834396362304688,9.0,3.0,04-21,3.1272026697794577
03-23,-1.6452941894531286,2.392963409423828,1.0219154357910085,0.16590118408203125,-1.2708663940429616,2.1505050659179616,-0.5333213806152344,1.5252609252929688,0.3709259033203125,8.534187316894517,3.1219940185547017,22.797439575195312,9.0,3.0,04-22,3.219300905863443
03-24,-0.6896877288818324,3.1708946228027273,0.8931045532226491,-0.3317604064941264,-0.8176155090332031,2.6113357543945312,-0.7172431945800852,2.2270736694335938,0.8845138549804688,6.362037658691406,3.6211090087890625,17.89317321777345,8.0,4.0,04-23,2.925577958424887
03-25,-1.2630538940429688,3.433025360107422,1.0304946899413991,-0.02618408203123579,-0.4799041748046804,3.1263885498046946,-0.09194564819335938,1.3661880493164062,1.1413116455078125,6.014488220214844,4.325767517089844,15.971092224121094,8.0,4.0,04-24,2.8789723714192728
03-26,-2.5676536560058594,3.196277618408203,1.803375244140625,-0.5762329101562358,-0.43546295166015625,3.279987335205078,-0.09194564819335938,0.25266265869140625,1.302978515625,5.927597045898423,4.521492004394531,10.006698608398423,8.0,4.0,04-25,2.21831448872884
03-27,-2.251893997192383,2.9848670959472656,2.1211013793945312,-0.4714927673339844,-0.07762527465821023,3.1715736389160085,-0.275859832763679,1.281982421875,1.5978469848632812,4.923561096191406,4.325775146484389,12.186378479003906,8.0,4.0,04-26,2.459684530893961
03-28,-0.9057388305664062,3.1032562255859375,2.060779571533203,0.2654113769531321,-0.5308952331542969,2.6474876403808594,-0.6988525390625,0.9438247680664062,1.5788345336914062,4.624290466308594,3.6700515747070312,4.498054504394531,9.0,3.0,04-27,1.7713753382364914
03-29,-0.556732177734375,3.1117401123046875,2.7499618530273438,0.2916107177734446,-0.19318389892578125,1.138500213623054,-0.37700653076172586,1.6114425659179688,2.1874923706054688,3.2051467895507812,3.4743270874023438,3.6063766479492188,9.0,3.0,04-28,1.6874729792277023
03-30,-0.4732322692871094,2.6285934448242188,2.3128814697265625,0.4138336181640696,-0.4877891540527344,0.939708709716804,-0.5802001953125,1.4337387084960938,2.3586883544921875,5.039421081542969,1.7029037475585938,11.988227844238281,9.0,3.0,04-29,2.2730646133422865
03-31,-0.823186874389652,3.1704864501953125,1.8749160766601562,-0.24280548095703125,-1.1840591430664062,0.9760284423828196,-0.423919677734375,1.7331771850585938,2.2350387573242188,5.164909362792969,3.6309127807617188,11.885841369628906,8.0,4.0,04-30,2.333111604054769
04-01,-0.12191200256347656,3.0436553955078125,1.3167228698730469,0.01140975952149148,-1.2197723388671804,0.317230224609375,-0.7558937072753906,1.09686279296875,2.225555419921875,5.33868408203125,3.5330352783203125,14.091743469238281,9.0,3.0,05-01,2.406443436940512
04-02,-1.5096073150634766,2.9083518981933665,1.2057723999023509,-0.23405075073242188,-0.7813148498535227,0.5081329345703125,-0.2961273193359375,0.6359710693359375,3.661712646484375,5.377311706542969,4.287506103515639,14.151191711425781,8.0,4.0,05-02,2.492904186248781
04-03,-1.5843963623046875,3.5617103576660227,1.2833290100097656,-0.3207969665527415,-0.8193588256835938,0.9237709045410156,-0.5076179504394602,-2.4542694091796875,3.4229888916015625,3.842315673828125,5.5843429565429545,16.09308624267578,7.0,5.0,05-03,2.4187587102254215
04-04,-1.3839759826660192,2.9847183227539134,1.6107978820800781,-0.03318023681640625,-0.8460235595703125,1.5020561218261719,-0.950969696044929,-1.6558761596679688,3.5959548950195312,2.7514190673828125,4.9677734375,6.6019515991210795,7.0,5.0,05-04,1.5953871409098292
04-05,-1.6679058074951172,3.519279479980476,0.8623390197753906,0.3596916198730469,-0.3305778503417969,1.8535995483398509,0.8778228759765554,-1.594268798828125,4.462394714355469,2.0852737426757812,4.3414306640625,5.6676483154296875,9.0,3.0,05-05,1.7030606269836432
04-06,-1.1334495544433594,3.3243560791015625,0.4572486877441406,0.5255851745605469,-0.4811439514160085,1.3908309936523509,0.7946853637695312,-1.9972763061523438,4.034416198730469,3.9195404052734375,4.283302307128906,6.333580017089844,9.0,3.0,05-06,1.787639617919923
04-07,-0.1862030029296875,2.323589324951172,0.9724998474121094,0.7885780334472727,-0.13299560546875,1.4452705383300781,0.15628814697265625,-1.40777587890625,4.386299133300781,1.1777877807617188,5.117889404296861,4.7344894409179545,9.0,3.0,05-07,1.6146430969238263
04-08,-0.6089553833007848,2.078380584716797,1.4705734252929688,-0.18448257446289062,-0.06158447265625,0.72100830078125,-0.03639984130859375,-1.4171142578125,4.589622497558594,2.278350830078125,6.266639709472656,1.0763549804687642,7.0,5.0,05-08,1.347699483235678
04-09,-1.4731521606445277,1.4611244201660085,1.2714271545410156,-0.2984428405761719,-0.04351425170899148,0.4684181213378906,0.046360015869140625,-0.947479248046875,5.0861968994140625,2.7996673583984375,6.048004150390611,-2.054450988769517,7.0,5.0,05-09,1.0303465525309237
04-10,-0.9330234527587891,0.4177093505859446,1.193866729736321,0.5840797424316406,-0.47772216796875,0.94732666015625,-0.10077667236328125,-0.7408294677734375,5.659141540527344,-0.6202621459960938,5.2064132690429545,2.820098876953125,7.0,5.0,05-10,1.1630018552144357
04-11,-1.2921142578125,-0.4477882385253835,2.0470046997070312,0.033794403076171875,-0.68212890625,1.8418502807617188,-0.13796615600585938,-0.48725128173828125,5.6019439697265625,0.9959793090820312,4.599617004394517,3.4264068603515625,7.0,5.0,05-11,1.291612307230631
04-12,-1.108388900756836,1.0965156555175852,2.7516441345214844,-0.4900627136230469,-0.16666793823242188,1.616809844970696,0.009815216064453125,-0.20465087890625,6.6305999755859375,0.5615463256835938,3.9634780883789062,5.473915100097642,8.0,4.0,05-12,1.677879492441812
04-13,-1.333868026733402,1.0035743713378906,1.8647651672363281,-0.12335968017578125,0.7289352416992188,1.5169944763183594,-0.08254623413085938,-1.0008926391601562,7.03955078125,0.513275146484375,3.402496337890625,4.261306762695327,8.0,4.0,05-13,1.4825193087259938
04-14,-0.5690994262695312,0.8866310119628906,1.8218154907226562,-0.42075347900391336,1.2020606994628977,2.3426971435546804,0.4526214599609446,-1.2441864013671875,5.641456604003906,-0.18871307373046875,3.991607666015625,0.26103973388671875,8.0,4.0,05-14,1.1814314524332683
04-15,-1.6949806213378942,0.4046745300292969,1.340911865234375,-0.5785446166992259,0.7467994689941406,1.1209182739257884,1.4858627319335938,-1.9927902221679688,5.316810607910156,0.2956695556640767,3.2061233520507812,1.8017578125,9.0,3.0,05-15,0.9544343948364267
04-16,0.07495498657226562,-0.0181121826171875,2.631633758544929,-1.5077857971191548,0.6147689819335938,0.5960617065429688,1.4766731262207031,-1.5969390869140625,5.221305847167969,-0.5955810546875,3.6471099853515625,0.8902664184570312,8.0,4.0,05-16,0.9528630574544265
04-17,0.5402870178222656,-0.42519378662109375,2.4937591552734375,-2.225799560546875,1.700469970703125,0.4424705505371094,1.6329841613769531,-2.21685791015625,5.412300109863281,-3.5829086303710938,5.781433105468736,-0.18967437744140625,7.0,5.0,05-17,0.7802724838256824
04-18,1.6975879669189489,-1.6640357971191406,3.0194435119628835,-2.6115989685058665,2.0915069580078054,-0.01836013793946023,2.4733505249023438,-1.8129653930664062,5.2797393798828125,-1.6859130859374716,5.282318115234375,-4.1129608154296875,6.0,6.0,05-18,0.6615093549092613
04-19,1.639135360717777,-1.307647705078125,1.7285308837890696,-2.663993835449226,1.6382560729980469,-0.7442588806152415,2.4641075134277344,-3.523101806640625,4.811759948730469,-0.903938293457017,4.577659606933594,-5.067138671875,6.0,6.0,05-19,0.220780849456788
04-20,1.931423187255863,-1.96142578125,2.0757408142089844,-2.9695701599121165,1.2112808227538991,-0.5990867614746165,2.8889808654785156,-3.9634552001953125,4.554962158203125,-0.5563888549804545,5.431884765625,-2.433197021484389,6.0,6.0,05-20,0.46759573618570816
04-21,1.5003986358642543,-2.113811492919922,1.7580146789550781,-3.418895721435554,1.6576080322265554,-0.15446090698242898,3.3689041137695312,-2.8499298095703125,4.3932952880859375,-0.711708068847642,5.1078720092773295,-2.038230895996108,6.0,6.0,05-21,0.5415879885355599
04-22,1.499481201171875,-2.282917022705078,1.8183364868164062,-3.8046112060546946,1.6486854553222585,-1.3864517211914134,2.6398849487304688,-3.8792495727539062,3.9647293090820312,-0.4501342773437358,4.3813018798828125,-1.540679931640625,6.0,6.0,05-22,0.21736462910969992
04-23,1.1089286804199219,-2.40130615234375,1.6115150451660156,-3.050693511962905,0.9640998840332031,-0.8163948059082031,2.5847206115722585,-3.91680908203125,4.174827575683594,-0.01418304443357954,3.707420349121108,-0.27249908447265625,6.0,6.0,05-23,0.30663553873697974
04-24,0.7599220275878906,-3.5637664794921875,1.2064743041992188,-3.0156288146972656,0.09819793701171875,-0.9609603881835938,2.2628746032714844,-3.4659423828125,4.633171081542969,1.0668869018554545,3.500831604003892,0.6191787719726562,8.0,4.0,05-24,0.26176993052164477
04-25,0.676422119140625,-3.7249832153320312,0.379180908203125,-3.4802513122558665,0.3928031921386719,-0.7621688842773438,2.4660682678222585,-3.9731597900390625,4.558418273925781,1.2217559814452983,3.9804000854492045,-7.762672424316406,7.0,5.0,05-25,-0.5023488998413121
04-26,0.42590141296387074,-3.843780517578132,-0.31885528564453836,-3.024402618408203,1.0890731811523438,-0.7984886169433594,1.9673194885253835,-3.3344497680664062,4.169273376464844,1.0962677001952983,2.0523910522460795,-7.0868072509765625,6.0,6.0,05-26,-0.6338798205057818
04-27,0.37579345703125,-3.7928810119628977,-0.06032562255859375,-3.278617858886726,1.124786376953118,-0.8892288208007741,1.579395294189446,-3.3908233642578125,4.692352294921875,0.922492980957017,2.150268554687486,-7.076866149902344,6.0,6.0,05-27,-0.636971155802413
04-28,1.3611965179443324,-3.7165107727050852,-0.2585296630859446,-3.0331573486328125,1.1962013244628835,-0.8256950378417969,1.0991172790527344,-2.7615127563476562,3.256195068359375,0.8838653564452983,1.963714599609375,-1.6201171875,6.0,6.0,05-28,-0.20460271835327473
04-29,-0.07515907287597301,-4.3698692321777415,-0.3360862731933594,-3.0243873596191406,0.7766418457031179,-1.0616340637207031,1.7825927734375,0.32872772216796875,3.4949188232421875,0.8257522583007812,1.9342575073242045,2.4550399780273438,7.0,5.0,05-29,0.2275662422180155
04-30,-0.27557945251464133,-3.792877197265632,-0.6635551452636719,-3.4188690185546875,0.3302955627441406,-1.3247337341308523,2.2259445190429688,-0.46966552734375,4.220649719238281,0.8741989135742188,1.6298751831054688,5.436859130859389,6.0,6.0,05-30,0.39771191279093604
05-01,0.008350372314456678,-4.327438354492195,-0.7325019836425781,-3.4714698791503906,0.7141532897949219,-1.1160545349121094,0.3971519470214844,-0.394500732421875,4.4307098388671875,0.0896453857421875,-0.108001708984375,6.371162414550781,6.0,6.0,05-31,0.15510050455729138
05-02,-0.7348766326904297,-3.1564788818359375,-0.5170745849609375,-4.085121154785156,0.5981063842773366,-0.6532859802246094,0.4895324707031179,0.27237701416015625,4.144248962402344,1.6654281616210795,-0.2945556640625,4.760978698730483,6.0,6.0,06-01,0.20743989944457888
05-03,-0.2672252655029297,-3.2328567504882812,0.8790016174316406,-4.348114013671882,0.24995803833007812,-0.3357124328613281,-0.17548370361329546,1.4183502197265625,4.354339599609375,3.0556182861327983,-1.1291427612304545,4.552253723144517,6.0,6.0,06-02,0.4184155464172334
05-04,0.7014827728271484,-3.7843666076660156,0.19820785522460938,-3.3750534057617188,1.0444526672363281,-0.13609695434569602,-0.05540847778321023,1.5498123168945312,3.4567337036132812,1.955055236816392,-1.4825973510742188,4.582061767578125,7.0,5.0,06-03,0.3878569602966297
05-05,1.2860393524169922,-2.248573303222649,0.6635589599609375,-2.5597877502441406,0.5802536010742188,-0.21775436401367188,0.87744140625,1.0801773071289062,2.9601593017578125,-0.154998779296875,-1.7182464599609375,6.470550537109403,7.0,5.0,06-04,0.5849016507466663
05-06,1.0271625518798828,-1.2812728881835866,0.7411193847656321,-2.919208526611328,0.6962966918945312,-0.13610076904296875,0.9605598449707102,0.8735275268554688,3.5808563232421875,0.28093719482421875,-0.9720306396484375,8.368972778320312,8.0,4.0,06-05,0.9350682894388852
05-07,1.3862533569335938,-0.4157752990722585,-0.24126815795898438,-2.954254150390625,0.3927726745605469,-0.2812767028808594,1.052928924560554,0.7514572143554688,3.6476669311523438,1.3368682861328125,1.7182464599609517,7.762664794921875,8.0,4.0,06-06,1.1796903610229517
05-08,1.2025279998779297,-2.0109825134277344,-0.9479293823242188,-2.9717979431152344,-0.6070213317871094,-0.4809074401855469,0.9051475524902415,0.6105422973632812,3.1893234252929688,2.0924835205078267,3.0830230712890625,5.7151565551757955,7.0,5.0,06-07,0.8149638175964385
05-09,1.4697647094726598,-3.139514923095696,-1.4649848937988281,-1.8760032653808594,-0.16067123413085938,-0.38109207153321023,0.7943000793457031,0.5072250366210938,2.8646697998046875,0.9203033447265625,4.0550537109375,5.794677734375,7.0,5.0,06-08,0.7819773356119795
05-10,1.1273727416992223,-3.512866973876946,-1.3185043334960938,-1.7444992065429688,-0.6337966918945384,-0.8801422119140625,1.1268196105957031,0.3851165771484375,2.6928176879882812,0.11624908447265625,3.4659423828125,7.047042846679673,7.0,5.0,06-09,0.655962626139322
05-11,1.3862533569335973,-3.5552749633789134,-0.8703994750976562,-1.5867080688476562,0.26779556274414773,-0.3538665771484304,0.6372909545898438,0.8359451293945312,3.0174636840820312,-0.3681335449218892,7.295196533203125,7.225952148437486,7.0,5.0,06-10,1.1609595616658515
05-12,1.5532741546630895,-4.2934970855713,-1.6115074157714915,-0.3418731689453054,0.9105377197265625,-0.2449798583984304,0.59112548828125,0.08454132080078125,3.1129684448242188,-0.12593841552734375,8.954513549804688,8.468383789062486,7.0,5.0,06-11,1.4214623769124337
05-13,2.638895034790039,-3.9456081390380966,-1.4736328125,0.061378479003913355,1.0801544189453125,0.12703323364257102,-0.08313751220703125,0.7044601440429688,2.5018234252929688,0.28093719482421875,10.230934143066406,9.164131164550781,9.0,3.0,06-12,1.7739473978678377
05-14,2.1795997619628906,-2.7067661285400497,-1.5770301818847585,-0.4909095764160085,0.49097442626953125,-0.16333389282226562,-0.8959274291992188,0.36632537841796875,2.8837738037109375,0.4359283447265767,9.42580413818358,9.124374389648438,7.0,5.0,06-13,1.5894010861714685
05-15,2.2380523681640625,-2.2316017150878906,-2.171657562255845,0.5522689819336009,-0.5534782409667969,0.5625648498535156,-0.8866844177246094,0.7514190673828125,2.6832504272460938,1.9859390258789062,8.227951049804688,10.07855224609375,8.0,4.0,06-14,1.7697146733601905
05-16,2.5303268432617294,-1.7818832397460938,-1.266803741455071,0.6048812866210938,-0.4642143249511719,0.4173927307128906,-0.8127975463867116,-0.5823440551757812,3.2371063232421875,0.7556076049804545,7.373725891113281,0.09938812255860796,7.0,5.0,06-15,0.8425321578979513
05-17,2.521984100341797,-1.9006805419921875,-0.3446998596191406,1.6042556762695312,-0.9105415344238281,-0.48090362548828125,-0.997516632080071,0.9768524169921875,3.79095458984375,0.9978179931640625,7.697738647460952,1.2026672363281392,7.0,5.0,06-16,1.1798273722330759
05-18,1.9123554229736364,-0.13574981689453125,-2.275074005126953,1.9899711608886719,0.20531463623046875,-0.19964218139648438,-1.2838478088378906,1.0050277709960938,3.924652099609375,0.7362442016601562,7.540641784667969,1.2523651123047017,8.0,4.0,06-17,1.2226881980896012
05-19,1.4363594055175781,0.3309440612792969,-2.0682525634765625,1.5954666137695455,-0.017856597900390625,-0.8983116149902344,-1.0991058349609375,1.3807449340820312,3.7145538330078125,0.8234329223632812,6.922073364257798,3.6378097534179688,8.0,4.0,06-18,1.3131548563639324
05-20,1.7537002563476562,1.4849205017089844,-1.6632118225097656,1.4990577697754048,0.07142257690429688,0.4718284606933594,-0.6003532409667898,0.9298782348632812,3.2371139526367188,0.8815383911132812,7.0006179809570455,2.4848403930664062,10.0,2.0,06-19,1.46261278788249
05-21,2.0042209625244105,1.6461372375488281,-0.7669792175292969,1.8058662414550852,0.3124427795410156,0.04536819458008523,-0.10160446166991477,1.606170654296875,2.9697418212890625,0.804046630859375,5.900939941406236,1.8089752197265625,10.0,2.0,06-20,1.502943833669027
05-22,2.0543289184570312,1.6291580200195384,-0.9307174682617188,1.6130142211914062,-0.008937835693359375,0.1361083984375,0.28631973266602273,1.4652633666992188,3.7336578369140625,0.2809448242187642,6.146415710449247,1.7990341186523438,10.0,2.0,06-21,1.5170491536458381
05-23,1.135738372802738,1.6546096801757955,-0.7842063903808594,1.0432167053222656,-0.080352783203125,0.07257461547852273,1.2007064819335938,2.6581649780273438,3.5331268310546875,0.5328369140625284,6.332969665527358,-2.54449462890625,9.0,3.0,06-22,1.2295742034912165
05-24,1.0689220428466797,1.298229217529304,-0.14650344848632102,1.0344467163085938,0.3392066955566406,0.6623764038086009,1.2191925048828125,1.2210617065429688,3.4471664428710938,0.5909500122070455,6.362426757812528,-1.9381866455078267,10.0,2.0,06-23,1.2632740338643433
05-25,0.3256950378418004,0.6533508300781392,-0.8359031677246094,1.4289283752441406,-1.0265922546386719,0.6170272827148438,1.4131393432617259,1.8410110473632812,2.721435546875,0.542503356933608,6.7846145629882955,-1.9878845214843892,9.0,3.0,06-24,1.0397771199544303
05-26,0.48436164855957387,0.01697921752930398,-0.7669563293457031,0.36818695068359375,-1.2854690551757812,0.3992462158203125,1.1175880432128906,1.7658462524414062,2.5113754272460938,-0.20343780517578125,6.362419128417969,-2.0972213745117188,8.0,4.0,06-25,0.7227431933085132
05-27,1.2860431671142543,-1.1539802551269531,-0.9823837280273438,0.8854064941406179,-1.4640007019042969,0.045368194580078125,-0.027698516845703125,1.098968505859375,2.1771621704101562,-0.6587448120117188,5.7733001708984375,-6.569953918457031,6.0,6.0,06-26,0.034123897552489346
05-28,1.4948139190673828,-1.0776023864746094,-2.2233428955078125,0.0,-1.4372367858886719,0.390155792236321,-0.0369415283203125,2.705108642578125,2.1580657958984375,-1.0946731567382812,8.011917114257812,-5.625701904296889,5.0,7.0,06-27,0.2720468839009585
05-29,1.0271625518798828,-0.5769958496093679,-2.4043312072753906,-0.11395263671875,-1.1694259643554688,0.0181427001953125,0.6280746459961009,-0.47904205322265625,2.4827423095703125,-0.5812530517578125,6.421333312988281,-5.416976928710923,5.0,7.0,06-28,-0.013710180918373283
05-30,0.6597213745117188,-0.2715339660644531,-2.03375244140625,0.7539138793945312,-2.0353317260742188,-0.1814727783203196,0.3509788513183594,-2.498504638671875,1.7474746704101562,-1.8018646240234233,5.62603759765625,-3.796844482421889,5.0,7.0,06-29,-0.2900981903076178
05-31,0.9937648773193395,0.15272903442382812,-1.5339431762695312,0.052608489990234375,-1.5711326599121094,-0.1724090576171875,0.5356979370117188,-1.47467041015625,1.8334121704101562,-0.21312713623046875,5.861686706542969,-3.6775741577148438,6.0,6.0,06-30,0.06558688481648793
06-01,1.352853775024414,-0.7212486267089773,-0.06893539428710938,0.4120292663574219,-1.2854652404785156,0.46274566650390625,-0.14777755737303977,-0.4602508544921875,0.6397705078125,-0.6490631103515625,7.383552551269531,-2.1568450927734517,5.0,7.0,07-01,0.39678049087524414
06-02,0.7599372863769567,-1.7224884033203196,0.060314178466796875,0.2717475891113281,-1.4639968872070312,0.46274566650390625,-0.16625595092774148,-0.5917587280273438,0.5729598999023438,-1.1140670776367188,10.122917175292969,-0.08944702148440342,6.0,6.0,07-02,0.5918839772542285
06-03,0.8100395202636754,-1.6715850830078125,0.7669754028320312,0.7275886535644531,-0.8034133911132812,1.1705055236816406,-0.34174346923829546,-0.45084381103515625,0.6111373901367188,-0.46500396728517046,10.05419921875,-1.2921142578125142,6.0,6.0,07-03,0.7596451441446908
06-04,0.7682819366455114,-0.5430526733398509,1.2840309143066406,0.7275886535644531,-0.5623893737792969,1.21588134765625,-0.1385345458984446,-0.34752655029296875,0.6111373901367188,-0.46500396728517046,8.39485931396483,-0.15902709960940342,6.0,6.0,07-04,0.8988537788391057
06-05,1.1106739044189489,-0.16970062255860086,1.5425605773925781,1.2097587585449219,0.017848968505859375,0.8892288208007812,-0.4710540771484446,1.9161300659179688,0.9644622802734375,-0.3196716308593892,6.293701171875,-1.4113922119140767,8.0,4.0,07-05,0.9643788337707487
06-06,1.1357326507568395,-0.3394031524658381,2.3181419372558594,0.8328018188476562,-0.4284820556640696,0.36295318603514914,0.092376708984375,1.953704833984375,1.5278549194335938,0.07750701904296875,3.2499313354492188,-1.0933303833007812,9.0,3.0,07-06,0.8074824015299455
06-07,0.7515811920166051,0.00848007202147727,1.9734611511230469,0.5172080993652344,-1.0712242126464844,-0.4446258544921946,0.036945343017578125,1.1553192138671875,1.52783203125,0.7265625,1.5906143188476562,1.3815765380859375,10.0,2.0,07-07,0.6794775327046704
06-08,0.3340339660644531,-0.5600204467773366,3.0765151977539062,0.11395645141601562,-1.1694259643554688,-0.23591232299805398,0.08313751220703125,0.95806884765625,1.9479827880859375,0.3196868896484375,2.6509933471679688,1.6698226928710938,9.0,3.0,07-08,0.7657365798950195
06-09,-0.38414764404296875,0.7551860809326278,2.6542282104492188,0.6399574279785085,-0.5088348388671875,-0.7349624633789134,0.13854217529296875,0.8923110961914062,1.5660324096679688,0.6974792480468608,1.3647766113281108,2.66375732421875,9.0,3.0,07-09,0.8120271364847792
06-10,-0.7766380310058594,-0.07636642456054688,3.2488555908203054,-0.2717590332031179,-0.258892059326179,-0.8075485229492116,-0.7388954162597656,0.5072174072265625,1.7856521606445312,0.2518768310546733,0.7560272216796733,1.2821807861328125,6.0,6.0,07-10,0.4084758758544898
06-11,-1.3612003326416122,-0.5260848999023438,2.4905052185058665,-1.7971000671386719,0.848052978515625,-0.2540626525878906,-1.2376556396484446,1.6061553955078125,2.5304718017578125,1.239997863769517,1.4629592895508097,8.627403259277344,7.0,5.0,07-11,1.135786851247152
06-12,-1.3528575897216797,0.042415618896484375,2.37847900390625,-2.5422401428222727,1.8210906982421875,0.19960784912109375,-1.0529365539550852,2.8272323608398438,2.7310028076171875,1.89874267578125,1.9244384765625,7.5241241455078125,9.0,3.0,07-12,1.3665916124979642
06-13,-0.7265281677246236,0.20364761352539062,1.7407798767089844,-2.4019775390625,0.7141571044921875,-0.08165359497070312,-0.7943191528320312,3.21234130859375,1.9002304077148438,1.3174972534179688,2.80810546875,8.299400329589844,8.0,4.0,07-13,1.3493067423502592
06-14,-0.48434638977051137,0.08484649658203836,1.5425643920898438,-2.7613906860351634,0.9373283386230469,0.5625915527343679,-0.5449371337890625,3.7289199829101562,2.60687255859375,0.7943572998046875,3.4266738891601705,9.482185363769545,9.0,3.0,07-14,1.6146388053894059
06-15,0.025041580200195312,0.5006179809570384,2.2923011779785156,-2.6649818420410227,1.946044921875,0.6442489624023438,-0.00923538208007102,3.672607421875,2.6259689331054688,0.7362518310546875,3.7801437377929545,7.971397399902344,10.0,2.0,07-15,1.793367226918538
06-16,0.2922821044921875,0.0254364013671875,2.2233619689941406,-3.129589080810547,2.240642547607422,0.8166465759277344,-0.8866920471191406,3.5035324096679688,2.893341064453125,0.871856689453125,3.181213378906236,8.865951538085938,10.0,2.0,07-16,1.7414986292521146
06-17,1.5532703399658203,0.16121292114257812,2.3871002197265625,-2.4370460510253906,2.3388290405273438,0.4446144104003906,-0.8035583496093821,3.644439697265625,1.7952041625976562,0.02906036376953125,2.700103759765611,10.923408508300795,10.0,2.0,07-17,1.8947199185689285
06-18,1.6785297393798828,0.13576126098632102,1.6114997863769531,-2.6123847961425852,1.8657150268554688,0.2540740966796804,-1.2284278869628906,2.413970947265625,2.5591354370117188,-1.5015716552734375,3.6034164428710795,10.843894958496108,9.0,3.0,07-18,1.6353011131286603
06-19,1.745346069335941,0.47518157958984375,1.7321662902832031,-2.2880210876464773,2.481689453125,-0.29941177368164773,-1.2469139099121094,2.1603469848632812,2.90289306640625,0.37781524658204546,4.045234680175753,10.237586975097685,9.0,3.0,07-19,1.8603261311848973
06-20,3.1065502166748047,-0.22908401489258523,0.8445281982421875,-1.6919174194335938,3.624317169189453,-0.2540626525878906,-1.1083450317382812,2.150970458984375,2.7214431762695312,-0.01937103271485796,3.6524963378905966,9.631278991699247,7.0,5.0,07-20,1.8690670331319155
06-21,2.605487823486328,-0.3224372863769531,1.930377960205071,-0.718841552734375,3.8831939697265625,-1.2340049743652344,-1.4500808715820384,1.8222122192382812,2.9506378173828125,1.4725112915039062,4.074691772460923,11.778198242187528,8.0,4.0,07-21,2.2326622009277344
06-22,3.173349380493164,1.0691337585449148,1.7062759399414134,-1.2360610961913991,4.463428497314453,-0.30848312377928977,-1.4223899841308594,1.8691864013671875,3.122528076171875,1.9278182983398438,5.478759765625,11.66886138916017,9.0,3.0,07-22,2.6260339419047063
06-23,2.8309459686279297,1.4000473022460938,1.9389572143554759,0.0,4.240249633789055,-0.8982887268066406,-1.9396286010742188,0.15030670166015625,3.1416244506835938,4.020286560058594,4.536170959472656,10.6749267578125,9.0,3.0,07-23,2.5079665184020996
06-24,2.9144821166992188,1.5782394409179616,2.119945526123054,-0.5259933471679688,4.293815612792969,-2.0597076416015554,-1.3392601013183594,3.3344573974609375,2.44451904296875,3.4874801635742188,4.3005294799804545,12.48388671875,9.0,3.0,07-24,2.7526995340983067
06-25,2.3132152557373047,1.2727775573730469,1.8269462585449219,-0.8152732849121094,4.204570770263672,-2.4680366516113352,-1.1822395324707031,5.015754699707031,2.2631072998046875,2.8674697875976562,3.3874130249023438,10.833946228027358,9.0,3.0,07-25,2.4599709510803227
06-26,1.979171752929684,2.3758392333984375,1.7235260009765625,-1.6042594909667969,3.3386497497558594,-2.3954429626464915,-1.3669586181640625,5.504180908203125,2.5218582153320312,1.97625732421875,3.9765090942382812,10.714675903320312,9.0,3.0,07-26,2.3953339258829742
06-27,1.9207096099853516,2.9358749389648438,1.4563827514648438,-1.2097625732421946,2.936939239501953,-3.0305976867675852,-1.1822509765625142,5.306205749511719,2.5192108154296875,2.5478134155273438,1.7084274291992188,9.13431549072267,9.0,3.0,07-27,2.086939016977945
06-28,1.8956565856933594,3.589214324951172,0.8100662231445312,-1.034435272216804,3.1154708862304688,-2.9217033386230398,-1.838024139404304,4.61236572265625,1.3807144165039062,1.9568862915039062,-1.0309371948242188,9.541831970214844,8.0,4.0,07-28,1.6730922063191727
06-29,1.3421897888183594,4.335914611816399,-0.49121475219727273,-1.490276336669929,2.133525848388672,-3.184833526611321,-1.9215164184570455,3.0980682373046875,1.8008804321289062,1.307823181152358,-1.3255081176757812,10.535766601562528,7.0,5.0,07-29,1.3450682957967135
06-30,1.1241092681884837,4.5989532470703125,-0.7497444152832102,-1.7269668579101491,1.7764320373535085,-3.4673690795898438,-1.0956192016601491,0.83441162109375,1.4475555419921875,2.4024734497070312,0.21600341796875,6.3867263793945455,8.0,4.0,07-30,0.9789137840271014
07-01,0.5466575622558558,4.76865577697755,-1.5253257751464915,-0.9905967712402344,2.493694305419922,-4.176261901855469,2.5882034301757812,0.7968368530273438,1.17999267578125,9.019004821777344,0.6578369140625,6.6474227905273295,9.0,3.0,07-31,1.83384339014689
07-02,0.9308090209960902,4.420772552490234,-1.65460205078125,-1.1396293640136719,2.537944793701172,-3.9514923095703054,2.643634796142578,0.8989715576171875,-4.2728729248046875,8.631515502929688,0.6163787841797017,4.172515869140611,8.0,4.0,08-01,1.1528288523356123
07-03,1.3483562469482422,4.794116973876953,-1.6286392211913991,-2.2091217041015625,2.4665298461914062,-4.160205841064446,2.597442626953125,-0.2323760986328125,-5.5953521728515625,8.50644683837892,-4.46771240234375,3.8842697143554545,6.0,6.0,08-02,0.44197956720988074
07-05,1.5999298095703125,5.407615661621094,-2.6066436767578125,-2.8753700256347585,1.805938720703125,-4.581642150878906,3.93353271484375,-1.7125701904296875,-4.5308837890625,7.973663330078139,-3.181495666503892,0.28533172607421875,6.0,6.0,08-04,0.12645053863525688
07-06,2.237249374389652,5.3309326171875,-3.7539634704589844,-1.963653564453132,2.9187660217285227,-4.5543060302734375,3.4603347778320384,-1.7219390869140625,-4.549980163574219,8.419265747070327,-5.979774475097642,3.734733581542983,6.0,6.0,08-05,0.29813877741496214
07-07,2.9060363769531214,4.4745025634765625,-3.9004669189453196,-1.0081214904785156,3.429790496826179,-4.3264617919921875,3.6385650634765554,-1.4871139526367188,-5.2947998046875,7.965728759765625,-5.526817321777315,3.8041915893554688,6.0,6.0,08-06,0.38958613077799625
07-08,2.74615478515625,4.024799346923828,-3.788440704345703,0.2980499267578125,2.972545623779304,-4.5368003845214915,5.249347686767585,-2.70819091796875,-5.495330810546875,9.054344177246094,-6.452430725097642,5.7515411376953125,7.0,5.0,08-07,0.592965761820477
07-09,2.7294540405273544,3.863567352294922,-5.020183563232422,0.2279205322265625,1.7208518981933594,-4.1081085205078125,5.277061462402351,-2.94244384765625,-5.389923095703125,9.161247253417955,-3.9313812255859517,4.926567077636719,7.0,5.0,08-08,0.5428857803344718
07-10,2.487272262573242,4.02497482299804,-4.760540008544922,0.7024307250976562,1.488861083984375,-4.0536842346191335,5.027679443359382,-3.1215744018554688,-5.0257568359375,7.54132080078125,-1.53997802734375,3.743782043457017,7.0,5.0,08-09,0.5428989728291823
07-11,1.6005325317382777,4.127216339111328,-6.906948089599609,0.7983627319335938,0.3908653259277344,-4.135341644287109,4.083755493164055,-3.5175628662109375,-4.901611328125,7.384422302246094,-1.9719924926757812,4.5567169189453125,7.0,5.0,08-10,0.12570126851399652
07-12,1.7934074401855433,4.127216339111328,-4.907981872558594,0.9561614990234375,0.0962677001953125,-4.253070831298821,4.473445892333977,-3.8939056396484375,-5.924247741699219,7.3263092041015625,-1.3730621337890625,6.141838073730483,7.0,5.0,08-11,0.3801981608072926
07-13,1.5250568389892543,2.215942382812493,-6.587516784667969,0.26361846923828125,0.751190185546875,-3.542194366455071,5.521877288818352,-3.49859619140625,-5.59002685546875,8.169105529785156,0.29953765869140625,3.8987350463867188,8.0,4.0,08-12,0.2855607668558748
07-14,1.952753067016598,1.1591262817382812,-5.958427429199219,0.35971450805664773,0.5539398193359375,-3.724468231201172,5.130870819091797,-3.461029052734375,-6.3539581298828125,10.613380432128906,-1.46307373046875,0.7769775390625,7.0,5.0,08-13,-0.03451617558797171
07-15,0.7174835205078125,1.17608642578125,-6.079093933105469,0.4125366210937571,0.6436004638671875,-3.80535888671875,4.759723663330078,-3.2074050903320312,-7.6273040771484375,9.135986328125,-2.487152099609375,0.5424728393554545,7.0,5.0,08-14,-0.4848686854044602
07-16,0.09950637817382812,1.880352020263679,-3.5124282836914062,0.4917755126953196,1.0547332763671946,-2.686248779296875,4.427207946777337,-3.3111724853515625,-7.0235748291015625,8.183464050292969,-1.5608596801757528,1.1984786987304545,7.0,5.0,08-15,-0.06323051452636481
07-17,0.6005687713623047,2.0674285888671875,-3.1229515075683594,0.32517623901366477,1.0634994506836009,-1.488525390625,4.768943786621094,-3.8014068603515625,-6.285652160644531,7.439376831054673,-4.021545410156236,-0.9484405517578267,6.0,6.0,08-16,-0.2836273511250826
07-18,0.25074195861816406,1.9566535949707031,-2.5863494873046875,0.23900222778320312,0.6617965698242259,-2.4140472412109446,4.97321701049804,-3.8768539428710938,-6.391212463378906,6.836669921875,-4.836494445800781,-0.41042327880860796,6.0,6.0,08-17,-0.46644163131714045
07-19,-0.18532943725585582,1.9737052917480469,-4.6131515502929545,-0.11165237426757812,0.8849754333496236,-1.7969131469726491,5.7525901794433665,-3.9250030517578125,-5.958778381347656,5.1801300048828125,-3.8939056396484375,-0.44033050537107954,4.0,8.0,08-18,-0.5944719314575145
07-20,-0.7891082763671875,2.171600341796882,-4.389842987060554,0.4143409729003906,-0.16378021240234375,-1.6510887145996094,5.956714630126946,-3.9697494506835938,-5.5863494873046875,5.7129364013671875,-4.406623840332017,-0.6795883178710795,4.0,8.0,08-19,-0.6150449117024722
07-21,-0.47118949890136363,2.111869812011726,-4.4674224853515625,0.9677848815917969,-0.08307266235351562,-1.3047599792480398,6.528278350830064,-3.6315841674804688,-5.404937744140625,6.6536941528320455,-2.5160064697265625,0.0548095703125,5.0,7.0,08-20,-0.13021135330200048
07-22,-0.303045272827152,0.584545135498054,-4.364002227783203,0.9325714111328125,-0.12790298461914062,0.6206626892089773,5.934104919433594,-4.1200103759765625,-7.0245208740234375,7.713157653808608,-2.5455551147460795,-0.4526519775390767,5.0,7.0,08-21,-0.2627205848693839
07-23,-0.6036720275878942,0.02450942993164773,-5.524909973144531,0.8885421752929688,0.02422714233397727,0.32878494262696023,6.432872772216804,-2.9415206909179688,-7.0053558349609375,7.810356140136719,-5.190544128417969,-0.3930206298828267,6.0,6.0,08-22,-0.5124775568644209
07-24,-0.578619003295902,-1.1826667785644531,-5.05754089355468,1.6153717041015696,0.4063835144042969,0.21989059448241477,7.088645935058594,-2.9886627197265625,-7.637840270996094,8.606094360351562,-3.5495681762695312,-0.800537109375,5.0,7.0,08-23,-0.32158740361531546
07-25,0.03354454040527699,-1.0463371276855469,-5.031578063964844,1.50323486328125,0.7277450561523438,0.483020782470696,6.207187652587891,-2.6869888305664062,-6.2961883544921875,8.5185546875,-3.186279296875,-1.934043884277358,6.0,6.0,08-24,-0.22567733128865708
07-26,0.31865882873535156,-1.3786582946777344,-3.8984222412109375,1.0999755859374858,1.084838867187507,0.9296112060546804,5.780376434326179,-2.7906951904296875,-6.181175231933594,7.220451354980469,-4.727790832519531,-1.684806823730483,6.0,6.0,08-25,-0.35230302810669123
07-27,0.20964813232421875,-1.8307991027832031,-2.5782928466796804,0.363605499267571,0.9862060546875,0.6470794677734375,4.42576980590821,-2.017578125,-6.123695373535156,0.6039199829101562,-3.9781570434570312,-0.3788299560547017,6.0,6.0,08-26,-0.80592695871989
07-28,0.4360599517822159,-1.6947479248046875,-2.3800888061523438,0.2308807373046875,1.2103385925292969,0.7382240295410085,3.0061798095703125,-1.6970443725585938,-0.6708297729492188,0.7289657592773438,-4.2538604736328125,0.07975006103515625,7.0,5.0,08-27,-0.3555143674214696
07-29,0.46122169494628906,-1.4826278686523438,-2.4060516357421946,0.4950218200683594,1.4165458679199148,1.2121315002441406,0.3340110778808594,-0.5656967163085938,0.14374542236328125,1.5940399169921733,-3.5350418090820312,-0.20935821533201704,7.0,5.0,08-28,-0.2118382453918469
07-30,0.15932655334472656,-1.7041664123535085,-3.1503639221191477,0.22207260131835938,0.32275390625,1.722522735595696,-0.7329940795898438,0.6882400512695312,1.3991470336914062,2.3132858276367188,-2.274642944335966,0.6878814697265625,8.0,4.0,08-29,-0.028911431630455436
07-31,0.20964813232421875,-2.198375701904297,-2.163719177246101,1.0479278564453125,0.3765525817871094,2.6430091857910156,-1.0020790100097656,1.0653457641601562,0.8912124633789062,1.4190673828124716,0.8271331787109375,3.3895797729492188,9.0,3.0,08-30,0.5421085357665986
08-01,-0.4947605133056676,-1.2951583862304688,-0.7702941894531321,1.6876296997070312,-0.9862174987792969,2.615673065185547,0.35257720947264914,1.3576278686523438,-0.4887542724609375,2.206359863281236,4.234161376953125,1.3857421875,7.0,5.0,08-31,0.8170488675435358
08-02,-0.7631053924560476,-2.164295196533203,0.3375396728515625,2.2574386596679688,-1.4972419738769531,2.387828826904297,0.3989601135253906,1.9610214233398438,0.6899795532226562,1.6717758178710938,3.7812042236327983,-0.5283813476562642,8.0,4.0,09-01,0.7110603650410953
08-03,-1.0901565551757848,-1.5252227783203125,0.761627197265625,0.9512672424316406,-1.0399971008300781,2.4060554504394602,0.07422637939452414,1.282196044921875,0.6899795532226562,0.583160400390625,4.706817626953125,-0.26917266845704546,8.0,4.0,09-02,0.6275650660196925
08-04,-1.4675006866455078,-0.7157554626464844,2.6310691833496094,1.0213966369628906,-0.6813888549804688,2.5245399475097656,-1.9762916564941335,1.1313400268554688,0.5845718383789062,0.4762573242187642,4.5394363403320455,0.8773040771484375,8.0,4.0,09-03,0.7454148928324411
08-05,-1.3081760406494105,-0.75836181640625,2.3714256286621094,0.6251678466796875,-1.0399971008300781,3.2536354064941406,-2.161827087402351,1.3104705810546875,0.22040557861328125,0.4762573242187642,5.061309814453125,3.8880462646484375,8.0,4.0,09-04,0.9948630332946786
08-06,-0.9308242797851527,-0.8606033325195384,4.517833709716797,0.7836494445800781,-0.9862136840820384,2.4151535034179688,-1.7536048889160156,1.7064590454101562,0.833740234375,0.4859771728515625,-0.06893157958985796,4.585899353027344,7.0,5.0,09-05,0.894044558207192
08-07,-1.1236991882324183,-0.8606033325195384,3.4100074768066406,0.8364868164062571,-0.7889671325683594,2.3604850769042898,-2.1432952880859375,1.6970443725585938,1.0924835205078125,2.7506637573242188,0.27571868896484375,3.0007781982421733,8.0,4.0,09-06,0.875591913859048
08-08,-0.8553485870361293,-0.4771575927734446,2.3627700805664062,0.6075439453125,-1.5420761108398438,1.6496086120605398,-3.1917266845703125,2.8189620971679688,0.48874664306640625,5.073669433593764,-0.915771484375,5.2438812255859375,7.0,5.0,09-07,0.938591798146566
08-09,-0.7211818695068359,0.0681610107421804,0.06060028076171875,0.6867866516113281,-1.3448257446289062,2.3513641357421875,-2.356678009033203,3.2809371948242188,0.3545684814453125,4.160026550292983,0.8468399047851562,2.1633453369140625,9.0,3.0,09-08,0.7958286603291835
08-10,-0.5870018005371094,0.3408355712890625,2.6830062866210938,0.6339645385742188,-1.5510368347167969,2.770610809326179,-2.4587326049804616,3.8371810913085938,1.2841567993164062,5.637420654296889,1.142242431640625,1.7147293090820455,9.0,3.0,09-09,1.2872813542683954
08-11,-0.47799873352050426,1.7041587829589844,1.0039787292480469,0.7220306396484375,-1.5331039428710866,2.3240318298339844,-1.0762977600097656,3.9503250122070312,0.6804275512695312,7.338356018066392,0.827140808105483,-0.6779098510742188,8.0,4.0,09-10,1.232094923655193
08-12,-0.45282936096191406,1.6104354858398438,0.614501953125,1.3295822143554759,-0.9593086242675781,1.3944091796875,-0.9278373718261648,4.440559387207031,0.6708297729492188,6.317794799804673,-0.9256134033203125,-0.1993865966797017,7.0,5.0,09-11,1.0760947863260892
08-13,-0.6708641052246094,1.7212104797363281,0.37215423583984375,0.9949913024902344,-0.7710342407226634,0.3918914794921946,-1.1598014831542898,3.4977951049804688,0.8720855712890625,6.9593048095703125,-2.0777053833008097,-0.6280670166015625,7.0,5.0,09-12,0.7918300628662092
08-14,-0.2347927093505895,1.7978935241699219,-0.2942695617675781,1.0742263793945312,-0.7172431945800852,0.36456298828125,-1.9391746520996165,1.8478851318359375,2.1178970336914062,6.3566741943359375,-0.4529571533203267,-0.5981597900390909,6.0,6.0,09-13,0.7768785158793081
08-15,0.45284080505371094,1.8234481811523438,-0.4673576354980469,0.8100700378417969,0.27794647216796875,0.21873855590821023,-2.950511932373047,2.83782958984375,2.3478851318359375,7.824371337890611,0.29540252685545454,-1.0567474365234517,9.0,3.0,09-14,1.0344929695129366
08-16,0.6289501190185582,2.394340515136726,0.45005035400389914,0.5459060668945312,0.19723892211914062,0.10025787353514914,-2.4958648681640625,2.2438583374023438,0.9104080200195312,7.503623962402315,-1.59521484375,0.10966491699217329,10.0,2.0,09-15,0.9161016146341922
08-17,0.9811477661132812,1.9768409729003906,1.2635993957519531,0.5811195373535156,-0.0806884765625,-0.8931579589843821,-3.1267967224121094,1.4896316528320312,2.271240234375,6.444160461425753,-2.136779785156236,0.8274536132812358,8.0,4.0,09-16,0.7998142242431611
08-18,1.60168266296386,2.7011146545410085,2.691650390625,1.3823928833007812,-0.206207275390625,-0.8384780883789134,-1.3175277709960795,0.5091171264648438,2.2520751953125,7.736869812011719,-1.7921371459960938,0.44863128662109375,8.0,4.0,09-17,1.2640986442565911
08-19,1.5849170684814489,3.2549514770507812,2.224281311035149,1.664154052734375,0.9682655334472656,-1.4035301208496094,-0.06496429443359375,0.5562591552734375,3.2391433715820312,8.854644775390625,-3.6827468872070312,0.07975006103515625,9.0,3.0,09-18,1.4395937919616697
08-20,1.5262203216552699,3.118621826171875,2.5618362426757812,1.6113243103027344,0.1524200439453196,-2.0597190856933594,0.8999862670898509,0.7542495727539062,3.0858001708984375,8.203422546386719,-1.8413772583007812,0.21932220458982954,10.0,2.0,09-19,1.5193422635396319
08-21,1.2411060333251953,3.3913040161132812,2.1983184814453125,1.5232887268066406,1.1834602355957031,-2.223773956298821,1.3267974853515625,0.471405029296875,3.7853851318359375,8.067344665527344,-1.0142364501953125,-0.02991485595704546,9.0,3.0,09-20,1.660040378570556
08-22,1.2075710296630753,3.0675048828125,1.5838203430175781,1.3824043273925852,0.5648307800292969,-1.9412422180175781,2.1061630249023438,1.42364501953125,3.2966384887695312,7.727142333984361,-2.2057037353515625,-3.1403427124023438,9.0,3.0,09-21,1.256035963694253
08-23,1.0063152313232386,3.084545135498047,0.2596549987792969,1.6641616821289062,0.3406982421875,-1.9321327209472585,0.927825927734375,1.301055908203125,4.322044372558594,7.9895858764648295,-1.9300003051757812,-4.057525634765625,9.0,3.0,09-22,1.0813523928324373
08-24,1.2159423828125,3.1527099609375,-1.3761100769042969,1.4000205993652344,0.035873413085944605,-2.3331527709960866,1.3731765747070312,0.7919540405273438,4.829948425292969,7.12451171875,-3.0919342041015625,-5.642654418945298,8.0,4.0,09-23,0.6233571370442732
08-25,1.350103378295902,2.880054473876953,-0.588531494140625,1.91070556640625,0.15242385864258523,-2.2966880798339773,1.1133918762207031,0.32997894287109375,3.5745468139648438,5.783203125,-2.894989013671861,-3.7883529663085938,8.0,4.0,09-24,0.6271538734436062
08-26,1.8365001678466797,2.9823036193847656,-1.5751762390136719,1.9018898010253906,0.29586029052735086,-2.7523727416992116,-0.027835845947265625,-0.04712677001953125,4.111228942871094,5.617973327636719,-2.8457565307617188,-6.4402008056640625,6.0,6.0,09-25,0.2547739346822115
08-27,1.9035892486572266,2.0790863037109375,-3.730243682861328,1.8842811584472727,1.4882774353027344,-2.734161376953118,-0.9092941284179688,0.64111328125,3.6991424560546875,5.6762847900390625,-2.9442291259765625,-7.885765075683608,7.0,5.0,09-26,-0.06932655970255534
08-28,2.1719341278076065,2.6840744018554688,-3.427318572998047,0.8893051147460938,1.2999954223632741,-2.7523880004882812,-0.9556770324707102,0.0094146728515625,4.69580078125,4.733505249023452,-2.6980438232421875,-5.971641540527344,7.0,5.0,09-27,0.056580066680907315
08-29,2.037748336791992,3.2720069885253906,-2.682994842529297,0.7836685180664062,0.9413871765136648,-2.8708724975585866,-1.6329917907714844,-0.6788177490234375,4.552024841308594,3.790679931640625,-2.530662536621108,-6.111213684082031,6.0,6.0,09-28,-0.09416977564493934
08-30,1.6771659851074219,3.0760345458984375,-2.3281517028808594,1.1798973083496094,1.2999954223632741,-3.372112274169922,-1.6979408264160156,-0.8956680297851562,3.421234130859375,3.790679931640625,-3.0525360107421875,-6.270729064941406,6.0,6.0,09-29,-0.264344215393067
08-31,2.4905929565429688,3.2208633422851562,-4.180274963378906,1.0214157104492188,1.9724197387695384,-2.879962921142578,-2.9783363342285156,0.5939788818359375,2.8078994750976562,3.7809600830078267,-0.7188262939452983,-6.011520385742202,7.0,5.0,09-30,-0.07339922587076646
09-01,2.7170143127441406,2.3858375549316406,-3.07244873046875,0.5459251403808594,1.1475868225097727,-2.5427513122558594,-0.7979431152343821,0.6033935546875,2.5491561889648438,1.9050445556640625,-0.9649963378906108,-6.858917236328125,7.0,5.0,10-01,-0.1985915501912423
09-02,2.8344135284423793,2.002391815185547,-2.0252113342285156,0.6251564025878835,1.5779304504394602,-3.4996986389160085,-0.48246002197264914,-0.518524169921875,3.6703872680664062,1.3218765258789062,-1.181648254394517,-9.032241821289062,6.0,6.0,10-02,-0.3923023541768371
09-03,2.700246810913086,1.4570732116699219,-0.9433822631835938,0.6515846252441335,2.438632965087905,-4.474895477294922,-1.3175086975097585,-2.1212997436523438,2.932464599609375,1.3510360717773438,-1.9496994018554545,-5.9517059326171875,6.0,6.0,10-03,-0.43562110265095794
09-04,2.5660667419433594,1.7808380126953125,-2.501262664794922,0.7660522460937358,1.4882774353027344,-4.994377136230469,-1.2154541015625,-1.9327468872070312,4.437042236328125,1.7203826904296875,-6.4891204833984375,-5.5030899047851705,6.0,6.0,10-04,-0.823115984598798
09-05,1.2327232360839844,1.4485397338867188,-4.128360748291016,1.2503242492675781,1.604827880859375,-5.41362380981446,-0.7237205505371094,-1.9798812866210938,4.964103698730469,-0.1749420166015625,-5.760444641113281,-2.3527679443359375,5.0,7.0,10-05,-0.8361018498738613
09-06,0.9811477661132812,1.5422744750976562,-2.5185546875,1.0830192565917969,1.5868949890136648,-4.9032440185546875,-0.037105560302734375,-3.1678237915039062,5.069526672363281,-0.9233551025390341,-5.445343017578139,-3.200164794921875,5.0,7.0,10-06,-0.827727317810058
09-07,1.4759140014648438,2.436962127685554,-2.4666366577148438,0.4754676818847585,0.519989013671875,-4.192363739013679,0.3618583679199219,-3.9408950805664062,4.3412017822265625,0.09720611572268467,-4.047080993652344,-1.50537109375,7.0,5.0,10-07,-0.5369790395100894
09-08,1.5765457153320312,2.164306640625,-2.7608909606933594,1.0566024780273509,0.8786125183105469,-4.083003997802734,-0.3154563903808594,-2.9226837158203125,4.139945983886719,-1.4288101196289205,-1.7429046630859233,-1.4954071044921875,5.0,7.0,10-08,-0.41109530131022076
09-09,1.593301773071289,2.0705718994140625,-2.0944671630859375,1.2855377197265625,0.995166778564446,-4.493114471435547,0.8350448608398366,-1.2727737426757812,2.894134521484375,-1.351043701171875,-2.5011138916015625,-2.9010772705077983,6.0,6.0,10-09,-0.4116527239481608
09-10,1.5094470977783203,2.0450172424316406,-1.2116928100585938,1.1446609497070312,0.5468902587890625,-3.299205780029304,1.6422576904296875,-1.7630462646484375,3.3157882690429688,-0.8650588989257812,-4.263717651367173,-2.2032318115234375,6.0,6.0,10-10,-0.2834909756978347
09-11,1.333337783813473,1.2611007690429616,-1.6703872680663991,0.4314384460449219,0.23310470581054688,-3.5270538330078125,1.1876106262207031,-2.7058181762695312,3.2007904052734375,-2.7215042114257812,-2.1170806884765483,-3.3696441650390625,6.0,6.0,10-11,-0.7053421338399243
09-12,1.2075653076171875,1.4996757507324219,-0.5539169311523438,-0.0792236328125,0.5558624267578125,-2.5336380004882812,2.70001602172853,-2.4135589599609375,3.1337127685546875,-6.774635314941392,-1.5459671020507955,-2.552154541015625,5.0,7.0,10-12,-0.6130218505859363
09-13,1.7442455291748047,1.7553062438964773,-0.7096900939941406,-0.8364677429199219,0.6813812255859375,-3.8277931213378906,3.284526824951172,-2.3286972045898438,3.6991348266601562,-8.164543151855469,-1.8906097412109375,-2.2630462646484375,5.0,7.0,10-13,-0.7380210558573411
09-14,1.7190876007080114,1.4741134643554616,-0.45005035400389914,-1.1182289123535156,0.5469017028808594,-4.793865203857422,3.572162628173828,-1.6121978759765625,3.3445510864257812,-9.282318115234375,-0.16739654541017046,-1.0368118286132812,5.0,7.0,10-14,-0.6503376960754403
09-15,1.0398426055908239,1.1503105163574219,-0.8135681152343679,-0.9949684143066406,1.0131187438964844,-5.99688720703125,1.6237258911132955,-2.1118621826171875,3.497894287109375,-9.457275390625,-0.14769744873046875,-0.7676467895507812,5.0,7.0,10-15,-0.9970844586690246
09-16,1.492664337158196,1.2099494934082031,-0.45005035400389914,-1.0301895141601562,1.4344940185546804,-5.650581359863281,0.5845565795898438,-1.8290176391601562,2.922882080078125,-9.379508972167969,-0.6203689575195312,-1.3259201049804545,5.0,7.0,10-16,-1.0534241994222
09-17,1.6352100372314489,1.5337486267089844,-0.24233245849609375,-0.8364677429199219,1.5510406494140625,-4.4202117919921875,1.1597976684570312,-2.8472671508789062,3.2582931518554688,-8.893524169921875,-1.8019790649414062,0.4785308837890625,6.0,6.0,10-17,-0.7854301134745277
09-18,1.8364658355712855,1.4485626220703125,0.10385894775390625,0.00880050659178977,1.282073974609382,-4.520465850830078,2.338134765625,-2.4324264526367188,3.3541259765625,-5.822090148925781,-2.7866744995117188,1.3957138061523438,8.0,4.0,10-18,-0.3161600430806481
09-19,0.6289367675781286,1.2525672912597656,-0.8827781677246094,0.5194854736328196,1.3806915283203196,-4.11944580078125,1.9113616943359233,-2.27215576171875,3.2774734497070312,-5.938720703125,-2.3435592651367188,2.881141662597642,7.0,5.0,10-19,-0.3087501525878915
09-20,0.4528484344482422,1.312225341796875,0.3807945251464844,0.281749725341804,1.264141082763679,-3.23541259765625,2.050506591796875,-2.1967086791992188,2.37664794921875,-5.3166580200195455,-2.5405044555664205,2.89111328125,8.0,4.0,10-20,-0.18993806838989377
09-21,0.48636627197265625,1.440032958984382,0.7183456420898509,0.29056549072266336,2.106910705566399,-2.2784652709960938,2.1896820068359233,-1.8290252685546875,2.347900390625,-5.151428222656264,-1.526268005371108,1.6947937011718608,8.0,4.0,10-21,0.04078420003254853
09-22,-0.02515220642090199,2.505115509033203,1.4799880981445384,0.07925033569335227,2.5013999938964844,-1.0572052001953125,3.4793930053710938,-2.8095474243164062,2.7599868774414062,-5.938743591308608,-0.3151092529296875,2.6219406127929688,7.0,5.0,10-22,0.4401097297668442
09-23,-0.6205520629882812,2.7692642211914062,1.177062988281257,-0.27295303344727273,2.82415771484375,0.28253936767577414,2.9597930908203267,-2.1778488159179688,1.8016510009765625,-5.8901214599609375,-0.196929931640625,5.582839965820327,7.0,5.0,10-23,0.6865752538045266
09-24,-0.1593151092529297,2.1813316345214844,0.8135604858398438,-0.06162643432617898,3.4338035583496094,-0.37366104125977273,3.9618415832519673,-1.970458984375,2.33831787109375,-6.230323791503906,-1.8216705322265483,5.4632034301757955,6.0,6.0,10-24,0.6312502225240095
09-25,0.20126724243164062,0.34083938598633523,1.280914306640625,-0.24654388427734375,2.770355224609382,-0.22784423828125,4.026790618896499,-0.8485183715820312,2.1753997802734375,-4.937614440917969,-1.72320556640625,5.6227188110351705,7.0,5.0,10-25,0.7028799057006871
09-26,-0.15095901489257812,0.383434295654304,2.224285125732429,-0.3434028625488281,2.492420196533203,-0.7199935913085938,6.624706268310547,-0.9993667602539062,2.2712326049804688,-8.281166076660142,-1.5262680053710938,5.931762695312528,6.0,6.0,10-26,0.6588904062906948
09-27,-0.327056884765625,0.5538558959960938,0.631805419921875,-0.17609786987305398,3.3172531127929688,0.02734375,6.726779937744141,-0.6976776123046875,1.8687210083007812,-8.028450012207017,-1.2800979614257812,5.971641540527358,7.0,5.0,10-27,0.7156683603922543
09-28,-0.23442649841308594,-0.24709701538085938,2.856090545654297,-0.2553291320800781,3.075183868408203,0.1549377441406179,6.633998870849609,-2.2061386108398438,1.351226806640625,-7.445281982421861,-1.0929946899414062,5.084365844726577,6.0,6.0,10-28,0.6395446459452329
09-29,-0.8068885803222656,-0.3323249816894531,2.1464080810546875,-0.2817573547363281,3.7207107543945312,-1.2577133178710938,5.576282501220703,-0.8862228393554688,2.0891494750976562,-6.2983551025390625,-0.5612564086914062,3.3751678466796875,5.0,7.0,10-29,0.5402666727701823
09-30,-1.4974040985107386,-0.42603302001953125,3.7042884826660156,-0.2817573547363281,3.6220779418945312,0.5012626647949148,5.464935302734368,-1.0747756958007812,1.0158157348632812,-7.202301025390625,-0.24616241455078125,-0.5130538940429688,5.0,7.0,10-30,0.25557438532511306
10-01,-0.7091274261474574,-0.0937347412109375,5.6083335876464915,-0.387420654296875,2.6179313659667898,1.6131553649902415,4.277336120605469,-1.018218994140625,0.04791259765625,-7.396690368652344,1.1836471557617188,-1.0115280151367188,6.0,6.0,10-31,0.3942996660868336
10-02,-0.45755195617675426,-0.13631057739257812,5.487163543701172,-0.19371795654296164,2.9406967163085938,1.5493545532226634,3.5907211303710938,-4.0917434692382955,-1.3608322143554688,-6.254348754882798,4.199028015136719,-0.16413116455078125,5.0,7.0,11-01,0.4256939888000503
10-03,-0.6912975311279297,-0.4345588684082031,4.4832000732421875,-0.6603889465332031,3.433807373046875,0.8384742736816548,3.6463775634765767,-5.284881591796875,-0.9933319091796875,-5.533142089843764,4.553520202636719,-1.2589187622070455,5.0,7.0,11-02,0.17490498224894205
10-04,-1.0533599853515625,-0.3404541015624929,1.3414802551269531,-0.906932830810554,3.075183868408203,1.3488578796386719,4.778327941894531,-4.8734588623046875,-0.38837432861328125,-4.648635864257798,2.2493438720702983,-0.10892486572265625,5.0,7.0,11-03,0.03942108154296875
10-05,-1.3733158111572266,-1.1495819091796946,1.367462158203125,-1.1358680725097656,3.496574401855476,1.831897735595696,7.070167541503906,-4.59881591796875,-0.38837432861328125,-4.726402282714844,1.9210891723632812,3.9910812377929545,6.0,6.0,11-04,0.5254928270975731
10-06,-1.2466049194335902,-0.9957160949707031,0.65777587890625,0.63397216796875,3.254497528076179,1.6213226318359375,6.853111267089858,-5.098487854003906,-0.810028076171875,-4.022560119628892,-5.348396301269531,5.3511123657226705,6.0,6.0,11-05,0.07083320617676225
10-07,-1.5994224548339844,-0.7826919555664062,1.1164703369140554,-2.5710983276367116,3.6505279541015696,3.318870544433601,4.499897003173828,-4.1557159423828125,-1.4741744995117188,-3.417877197265611,-7.44232177734375,4.422401428222642,5.0,7.0,11-06,-0.3695945739746082
10-08,-1.8258476257324219,-1.0212669372558665,1.4020843505859446,-2.2173309326171875,3.5239601135253906,3.6524505615234375,3.6184234619140483,-4.4953155517578125,-1.1471328735351562,-5.290428161621094,-5.699440002441406,2.887123107910142,5.0,7.0,11-07,-0.5510600407918318
10-09,-2.362527847290039,-0.28450775146485086,1.3155288696289134,-1.1411590576171875,4.350856781005859,4.891925811767578,3.0339126586914062,-3.9839630126953125,-2.1955795288085938,-1.229957580566392,-6.5536270141601705,2.5980148315429545,5.0,7.0,11-08,-0.13009023666381955
10-10,-1.7984828948974645,-0.1133880615234375,1.2894630432128906,-1.806427001953125,3.310863494873047,5.857997894287109,2.9512100219726562,-1.2188720703125,-2.3302154541015625,2.9625778198242188,-6.38623046875,5.231781005859375,6.0,6.0,11-09,0.6625231107076006
10-11,-1.9837322235107493,-0.1818389892578054,0.821685791015625,-1.8768577575683594,2.844646453857422,7.207500457763672,2.7742233276367045,0.94598388671875,-2.2151947021484375,3.78875732421875,-6.405929565429702,5.921775817871094,7.0,5.0,11-10,0.9700849850972469
10-12,-1.486953735351566,-0.1820068359375,-1.139110565185554,-1.8416366577148438,1.5592117309570455,8.095527648925781,2.0195999145507812,-0.20684051513671875,-2.3397674560546875,3.7109909057617188,-6.022148132324219,5.4917755126953125,5.0,7.0,11-11,0.6382201512654625
10-13,-1.6297836303710938,-0.035251617431640625,-0.732330322265625,-2.6102561950683594,2.3152732849121165,8.809627532958984,2.9496536254882812,-0.14083099365234375,-2.6751785278320312,3.2445144653320455,-6.417236328125,10.410308837890625,5.0,7.0,11-12,1.12404251098633
10-14,-2.3341484069824148,0.032894134521484375,-1.078521728515625,-2.83135986328125,2.738304138183601,8.352760314941413,3.4229354858398438,-0.5556716918945312,-3.7040328979492188,2.425285339355483,-6.832077026367202,11.526870727539062,6.0,6.0,11-13,0.9302698771158872
10-15,-1.3362464904785192,0.22888946533203125,0.186309814453125,-2.9463424682617188,3.0599327087402415,8.0425033569336,3.404357910156264,-4.2007217407226705,-3.55975341796875,-0.03243255615234375,-6.527915954589844,11.626571655273438,6.0,6.0,11-14,0.6620960235595712
10-16,-1.1601581573486328,-0.019001007080078125,1.1426620483398438,-4.181964874267578,3.3134002685546804,7.1220054626464915,3.2652130126953125,-3.8029937744140625,-2.9056777954101562,-2.790802001953125,-5.4306869506835795,11.61660003662108,5.0,7.0,11-15,0.5140496889750162
10-17,-1.4968032836914062,-0.5408363342285156,0.7775192260742188,-5.947330474853523,2.3271942138671946,6.165058135986335,1.0205688476562642,-2.2310714721679545,-2.9247894287109375,-2.5196533203124716,-6.494155883789034,12.812919616699219,5.0,7.0,11-16,0.07905165354411577
10-18,-1.1599903106689418,-0.5237464904785156,0.207916259765625,-5.718406677246094,1.9327049255371094,4.7423858642578125,1.6913452148437642,-2.5333099365234517,-2.6856765747070312,-1.7906494140624716,-7.7053146362304545,12.812919616699219,5.0,7.0,11-17,-0.06081851323445253
10-19,-0.5621795654296875,-0.7733840942382884,0.9427642822265554,-5.366203308105469,1.4569244384765625,4.632534027099609,2.231681823730497,-2.4382400512695312,-2.7239990234375,-1.839271545410142,-6.983955383300781,12.812919616699219,5.0,7.0,11-18,0.11579926808675367
10-20,-0.008043289184570312,-1.582641601562493,0.5619430541992188,-5.789794921875,1.4749298095703125,5.227607727050781,1.6466140747070312,-1.9573974609375,-3.2606658935546875,1.143951416015625,-7.4876861572265625,11.008468627929688,6.0,6.0,11-19,0.08144044876098692
10-21,0.10829353332519531,0.4538230895996094,0.0945892333984375,-5.444866180419922,1.3309211730957031,3.676239013671875,3.5821075439452983,-3.0793380737304688,-2.4917526245117188,2.5971145629882812,-7.112365722656236,10.23085784912108,8.0,4.0,11-20,0.32880194981892785
10-22,-0.3529071807861328,0.4112281799316406,-1.4312934875488352,-4.781532287597649,0.36126708984375,4.131278991699219,2.26458740234375,-2.9190216064453267,-2.9342117309570312,1.524299621582017,-5.733299255371094,9.662605285644517,6.0,6.0,11-21,0.016916751861568713
10-23,-0.17680931091308594,0.3434600830078125,-1.1530838012695384,-4.0154762268066335,0.7091598510742188,3.0467300415039062,2.1625137329101562,-2.8527374267578267,-3.1073379516601562,1.806159973144517,-6.234893798828125,9.622726440429688,6.0,6.0,11-22,0.012534300486244376
10-24,-0.4294242858886683,0.4375724792480469,-1.6573410034179759,-3.7336158752441406,0.5208854675292969,2.9191360473632884,2.4881744384765625,-2.2940292358398295,-3.1935882568359375,4.456756591796861,-6.205345153808594,10.510002136230469,6.0,6.0,11-23,0.3182652791341149
10-25,-0.4883766174316406,0.8140068054199219,-0.5928001403808594,-3.6279525756835938,-0.12464141845703125,4.258544921875,3.056495666503892,-2.2940292358398295,-1.5606307983398438,3.280670166015625,-6.737083435058594,10.510002136230469,5.0,7.0,11-24,0.5411837895711263
10-26,-0.20208168029786222,0.9077415466308594,-0.7817306518554688,-3.9361228942871094,0.1630096435546875,4.5789794921875,2.6465606689453125,-0.4221343994140625,-1.9918746948242188,4.1846160888671875,-6.4595489501953125,10.510002136230469,6.0,6.0,11-25,0.7664513587951651
10-27,0.3452205657958878,0.39453506469727273,-1.0586776733398509,-3.6280288696289062,0.2530212402343679,4.798683166503906,2.9713058471679688,-0.43155670166015625,-1.0239715576171875,3.5890274047851562,-7.625038146972656,11.959999084472656,7.0,5.0,11-26,0.8787099520365382
10-28,0.9093513488769496,0.34337615966797586,-0.9375076293945312,-3.0354461669921875,0.2890129089355469,3.996654510498047,2.5368499755859375,2.641967773437514,-0.27893829345703125,3.9791412353515625,-6.805259704589844,15.270004272460938,8.0,4.0,11-27,1.5757671991984064
10-29,0.6483306884765625,0.6416244506836009,-0.7247047424316406,-2.885082244873047,0.43245697021484375,4.133083343505845,2.0822296142577983,4.365425109863281,0.1058197021484375,3.774322509765625,-7.467018127441406,14.669998168945327,9.0,3.0,11-28,1.6480404535929356
10-30,1.0103931427001953,1.4201507568359304,-1.0811614990234375,-3.309612274169922,0.9529228210449219,3.5133399963378835,0.9502792358398438,4.384346008300781,0.5771408081054688,0.9070053100585795,-6.607727050781264,13.520004272460938,9.0,3.0,11-29,1.3530901273091598
10-31,1.5913848876953125,1.3174896240234304,0.35337066650390625,-3.070812225341797,0.41497802734375,3.0303001403808594,-0.7918853759765625,4.763130187988281,-0.153900146484375,2.0188140869140625,-5.521263122558608,9.419998168945327,8.0,4.0,11-30,1.1143004099527989
11-01,0.8251628875732422,0.9239463806152273,2.285198211669922,-4.699775695800781,0.6570549011230469,3.259185791015632,-0.6614608764648295,4.791557312011719,0.144256591796875,0.828987121582017,1.7482223510742045,9.419998168945327,10.0,2.0,12-01,1.6268610954284668
11-02,1.0019855499267578,0.6501617431640625,3.2717132568359446,-1.4947052001953196,0.7830581665039062,3.2225608825683594,-1.1552276611328267,2.140106201171861,0.92340087890625,0.2243041992187358,4.1088409423828125,9.419998168945327,10.0,2.0,12-02,1.9246830940246558
11-03,0.9346218109130859,1.5228233337402344,1.86962890625,-1.6804313659667969,0.7560653686523438,3.0852508544921875,0.19564056396482954,2.187446594238267,0.5963592529296875,1.9213104248046733,3.4075698852539062,8.050003051757798,11.0,1.0,12-03,1.9038573900858513
11-04,1.2209033966064453,0.5304336547851634,1.9561843872070312,-1.7688827514648438,0.8010673522949219,2.7831344604492045,0.652130126953125,1.676094055175767,2.4624176025390625,2.116363525390625,3.2989273071289062,8.559997558593764,11.0,1.0,12-04,2.0240642229715977
11-05,0.6820163726806641,0.35931396484375,1.7996788024902344,-2.405689239501953,0.38703155517578836,2.55426025390625,0.44719696044921875,-0.23673248291015625,1.68328857421875,2.116363525390625,4.00018310546875,4.6999969482421875,10.0,2.0,12-05,1.3405756950378425
11-06,0.8672657012939489,1.0009536743163991,2.121349334716797,-2.7240867614746094,-0.5040435791015625,2.4077796936035156,0.6241836547851705,0.01894378662109375,2.1257553100585938,0.35109710693357954,2.2618255615234375,4.010002136230469,10.0,2.0,12-06,1.0467521349589026
11-07,0.02526092529296875,1.6083793640136648,2.3821754455566406,-1.4770355224609304,0.3600158691406179,1.5197525024414062,0.9409637451171875,-0.8995971679687642,3.1549835205078125,-2.116355895996108,2.350715637207017,4.44000244140625,9.0,3.0,12-07,1.0241050720214802
11-08,0.42099571228027344,1.0095176696777273,1.9996452331542969,-0.9021377563476491,-0.3960456848144531,0.9338035583496094,1.7701034545898438,-1.8370819091796875,2.34698486328125,-2.1358642578125284,2.7458038330077983,4.44000244140625,8.0,4.0,12-08,0.8663105964660609
11-09,0.5136070251464844,0.846954345703125,3.0255203247070312,-0.6810340881347585,-0.5760574340820312,0.6500244140625,1.6489944458007812,-1.54351806640625,3.2800064086914062,-1.316635131835966,3.328552246093764,4.44000244140625,8.0,4.0,12-09,1.1347014109293614
11-10,0.6146621704101456,-0.119781494140625,2.747325897216797,-0.18573760986328125,-0.026996612548828125,0.3021125793457031,0.521705627441392,1.9412612915039205,3.1357269287109375,-0.13653564453125,3.456962585449247,0.0,7.0,5.0,12-10,1.0208921432495133
11-11,0.6314964294433594,0.068450927734375,1.7909736633300781,-0.16803359985351562,-0.11700820922851562,0.9155120849609304,0.01863861083984375,1.5435333251953125,2.6836624145507812,-1.9505538940429688,4.000190734863281,0.0,8.0,4.0,12-11,0.7847385406494135
11-12,0.9346237182617188,0.5902862548828125,1.4605865478515625,-0.09730148315428977,-0.10801315307617898,0.20141983032225852,2.1241073608398438,0.6533966064452841,2.2219467163085938,-2.59423828125,3.674255371093736,0.0,8.0,4.0,12-12,0.7550891240437784
11-13,0.5978107452392543,0.6159706115722656,2.21697998046875,0.5218353271484375,-1.6921501159667898,0.40283203125,1.4533309936523438,1.174232482910142,1.6255874633789062,-3.6183013916015625,2.913703918457017,0.0,9.0,2.0,12-13,0.517652670542397
11-14,-0.33679389953612926,0.8812026977539062,1.5301551818847656,1.3531913757324219,-1.5391273498535085,0.5126838684082031,1.2390899658202983,1.0416488647460795,0.78875732421875,-2.0968475341797017,2.0741653442382812,0.0,8.0,3.0,12-14,0.45401048660278054
11-15,-0.10946273803710938,0.7357444763183594,0.9302520751953125,1.5654563903808594,-1.5571327209472585,0.18310165405273438,0.7080535888671733,0.9374847412109517,1.1638946533203125,-4.7398681640625,2.5778961181640625,0.0,8.0,3.0,12-15,0.1996183395385748
11-16,-0.14313125610351562,1.2576141357421875,0.5303421020507812,1.2205276489257812,-1.242095947265625,-0.7690162658691406,0.4192352294921733,-0.49240875244140625,0.5578994750976562,-6.193031311035156,3.792785644531236,0.0,6.0,5.0,12-16,-0.08843994140625237
11-17,-0.21050071716308594,1.120727539062493,1.11285400390625,0.22996139526366477,-0.972076416015625,-1.4831199645996094,1.0154876708984375,-0.5018768310546733,1.0003585815429688,-4.7398529052734375,3.585365295410142,0.0,6.0,5.0,12-17,0.013110637664793737
11-18,0.1262950897216797,1.0180740356445312,0.8346443176269531,-0.017692565917975855,-0.3690376281738281,-1.071136474609382,0.01859283447265625,-0.5681610107421733,0.8656845092773438,-4.720352172851548,3.9310531616210795,0.0,6.0,5.0,12-18,0.003997008005777995
11-19,0.286279678344723,0.9239616394042969,2.1561241149902344,0.38915252685545454,0.0720062255859446,0.39366912841797586,-0.21428680419921875,-1.2120895385742188,1.4524307250976562,-6.3783187866210795,2.81494140625,0.0,8.0,3.0,12-19,0.05698919296264737
11-20,0.3452320098876953,1.1891555786132741,3.242889404296875,0.5218315124511719,1.0710945129394531,0.46691131591797586,-0.7826080322265483,-1.2405166625976705,1.0580520629882812,-6.2125396728515625,2.3507308959960795,0.0,8.0,3.0,12-20,0.16751941045125207
11-21,-0.39574623107908735,0.9325103759765696,2.2256698608398438,0.9905853271484375,0.8820762634277344,0.14647674560547586,-1.481292724609375,-0.4166564941406392,0.03845977783203125,-7.7144622802734375,1.7581024169921733,0.0,7.0,4.0,12-21,-0.25285641352335614
11-22,-0.6315002441406179,1.1378364562988281,3.7906150817871094,0.39800262451171875,0.792064666748054,1.1626930236816477,-2.5526657104492045,-1.42987060546875,0.4616851806640625,-8.104576110839844,2.923591613769517,0.0,7.0,4.0,12-22,-0.17101033528645657
11-23,-0.4125785827636612,1.693927764892571,4.607860565185547,0.39800262451171875,0.486053466796875,1.6387481689453196,-2.0402755737304688,-2.5473098754882812,0.07692718505859375,-8.104576110839844,2.2816009521484233,0.0,7.0,4.0,12-23,-0.16013495127360056
11-24,-0.1768112182617152,0.8212966918945312,4.964317321777344,0.35378265380860086,1.0081024169921875,1.6021385192871094,-1.8353042602539062,-2.5662307739257812,0.07692718505859375,-8.465423583984375,3.9606857299804688,0.0,7.0,4.0,12-24,-0.021376609802245206
11-25,-0.4378471374511683,0.9239578247070312,4.964317321777344,0.35378265380860086,1.0081024169921875,1.6662178039550852,-2.384979248046875,-2.5662307739257812,-0.3943939208984375,-8.465423583984375,3.9606857299804688,0.0,6.0,5.0,12-25,-0.11431757609049331
11-26,0.328374862670902,0.9239578247070312,3.52978515625,-0.026538848876953125,1.3321189880371094,1.9683494567871023,-2.515403747558608,-2.9450149536132812,-0.9426498413085938,-9.889328002929688,2.775451660156264,0.0,6.0,5.0,12-26,-0.45507478713989286
11-27,0.328374862670902,1.77093505859375,3.5037002563476562,0.6014251708984375,1.2961311340332031,2.004974365234375,-2.515403747558608,-3.266967773437486,-0.8079681396484375,-12.288528442382812,1.8766250610351562,0.0,7.0,4.0,12-27,-0.6247251828511553
11-28,0.042095184326171875,1.6939277648925781,3.8427696228027344,-0.035377502441399145,1.3231239318847656,2.004974365234375,-0.9502563476562358,-2.7082672119140625,-1.4620895385742188,-11.956939697265625,2.5778961181640625,0.0,6.0,5.0,12-28,-0.46901194254557116
11-29,0.21048736572265625,1.8650360107421875,3.390697479248047,-0.20341873168944602,1.3231239318847656,2.2521286010742116,-1.0993270874023295,-1.4298934936523438,-1.8660430908203125,-11.78139495849608,2.5778961181640625,0.0,6.0,5.0,12-29,-0.3967256546020484
11-30,0.22733497619628906,2.1388092041015625,0.9563369750976491,-0.11496734619139914,1.6381454467773438,2.526786804199226,-0.7173690795898295,0.5113677978515767,-2.68365478515625,-11.976448059082031,2.7754364013672017,0.0,7.0,4.0,12-30,-0.3931851387023884
12-01,0.04209709167479758,0.9923934936523438,1.1389083862304688,0.7252578735351562,1.5751419067382812,3.0028305053710938,-0.8664169311523295,-0.3408966064453125,-1.9045257568359375,-11.791130065917983,2.9729766845703125,0.0,7.0,4.0,12-31,-0.3711136182149257
12-02,-0.09262275695801137,0.4192047119140625,0.8172378540039062,0.7252578735351562,1.5751419067382812,2.7739639282226634,0.10249328613282671,-0.5965728759765625,-2.3469924926757812,-11.791130065917983,2.9729766845703125,0.0,7.0,4.0,01-01,-0.45342016220092746
12-03,0.2526035308837855,-0.18822097778320312,0.5564117431640625,0.3449516296386719,2.9882469177246023,1.5288810729980469,0.540336608886733,0.32196807861329546,-1.2600631713867188,-11.469291687011719,3.0124893188476562,0.0,8.0,3.0,01-02,-0.2809739112853989
12-04,-0.14313125610351918,0.27375030517578125,1.0780525207519531,0.5660400390625,3.600322723388672,1.4007301330566406,-0.2888031005859233,0.29355621337892046,-1.7121429443359375,-8.650733947753892,3.792785644531264,0.0,7.0,4.0,01-03,0.01753552754720496
12-05,-0.2694187164306676,0.0427703857421875,0.7998504638671875,1.3355255126953054,3.3573036193847656,1.68450927734375,-0.5589752197265625,0.06627655029299717,-1.9141387939453125,-11.166954040527344,3.6248779296875,0.0,7.0,4.0,01-04,-0.24986441930134942
12-06,-0.7577857971191406,0.5133094787597656,1.3649635314941406,0.9552116394042969,2.8082427978515625,0.8788909912109375,-1.4626541137695312,-0.7386169433593608,-0.942626953125,-11.166954040527344,3.496467590332017,0.0,6.0,5.0,01-05,-0.420962651570638
12-07,-0.3367881774902344,0.461986541748054,1.5040779113769531,0.9375076293945312,2.2861785888671875,0.7049560546875,-1.993690490722642,0.7102127075195312,-1.1446380615234375,-9.352935791015625,1.0370864868164205,0.0,7.0,4.0,01-06,-0.4321705500284801
12-08,-0.40417289733885653,1.0266227722167969,2.1996078491210938,1.0348129272460866,2.0341758728027344,-1.1718406677246094,-1.79803466796875,0.02842712402345171,-0.68292236328125,-9.772300720214844,1.3926696777343892,0.0,6.0,5.0,01-07,-0.5094129244486464
12-09,0.033679962158203125,0.9838485717773438,1.4432144165039062,1.6273918151855398,1.7191543579101562,-2.1514434814453125,-1.7700958251953125,-0.49240875244140625,-1.221588134765625,-7.84124755859375,1.402549743652358,0.0,6.0,5.0,01-08,-0.5222454071044916
12-10,0.3704738616943324,0.7186164855957031,1.7475090026855469,1.255920410156243,2.277191162109375,-1.0162086486816406,-2.09619140625,-1.0795059204101562,-0.35589599609375,-6.983009338378906,0.9580688476562642,0.0,6.0,5.0,01-09,-0.35025262832641574
12-11,0.1431427001953125,0.4962005615234375,1.6605682373046875,3.52008056640625,4.500404357910149,-1.2817001342773438,-1.565155029296875,-1.0511093139648438,-0.07696533203125,-5.022697448730469,0.6420135498047017,0.0,6.0,5.0,01-10,0.16373189290364643
12-12,0.17681121826171875,0.4191932678222656,1.6083984375,3.1928367614746094,4.329376220703125,-0.32958221435546875,-2.5992507934570312,-0.8806533813476562,-0.03847503662109375,-6.2905502319335795,-0.9481964111327983,0.0,5.0,6.0,01-11,-0.11334101359049242
12-13,0.20206260681152344,0.47054290771484375,1.9909591674804688,3.520069122314453,4.059356689453125,2.059886932373047,-2.4874496459960938,-1.4677658081054545,-0.9811172485351562,-6.670913696289034,-0.7407760620117045,0.0,6.0,5.0,01-12,-0.0037620862324985183
12-14,0.227325439453125,0.9068565368652415,2.4430198669433594,3.7677230834960938,3.0422630310058594,1.473968505859368,-2.543365478515625,-0.00947570800782671,-0.6733169555664062,-6.690414428710923,0.3358306884765625,0.0,7.0,4.0,01-13,0.190034548441569
12-15,0.1431560516357422,1.3174858093261719,1.6257972717285156,3.095554351806655,3.312286376953125,1.3824195861816406,-2.9998550415039062,0.07574462890622158,-1.2600631713867188,-3.9596405029296733,1.4519271850585938,0.0,8.0,3.0,01-14,0.34873437881469727
12-16,0.11787796020507812,0.6758575439453196,0.539031982421875,3.2370643615722727,2.484203338623047,1.2359199523925923,-4.229576110839844,0.10417175292967329,-0.8656845092773438,-3.8133392333984375,1.8568801879882812,0.0,8.0,3.0,01-15,0.11186726888020952
12-17,0.5725612640380824,0.9325027465820241,1.5562515258789062,3.405101776123054,3.402290344238267,-0.6042404174804759,-3.1209564208984375,-0.719688415527358,-0.30779266357421875,-4.564323425292969,2.7458114624023438,0.0,6.0,5.0,01-16,0.2747931480407682
12-18,0.8083152770996129,0.7271766662597656,1.2693557739257812,3.5289306640625,2.6282272338867188,-1.840160369873054,-2.049583435058608,-0.44506072998046875,-0.00962066650390625,-3.0526275634765625,3.5853424072265767,0.0,6.0,5.0,01-17,0.42919127146402963
12-19,0.5893936157226562,0.7100715637207031,1.2780494689941406,3.0955581665039134,2.8982467651367188,-2.316215515136726,-2.5619735717773438,-0.284088134765625,-0.32703399658203125,-0.858245849609375,3.407554626464858,0.0,6.0,5.0,01-18,0.4692764282226574
12-20,0.4967670440673828,0.9581756591796875,-0.4433937072753906,2.9894142150878906,2.3761978149414062,-2.2796058654785156,-2.7110595703125,-0.606048583984375,0.4905853271484375,-0.29257965087890625,1.7284698486328125,0.0,6.0,5.0,01-19,0.22557687759399414
12-21,0.04209327697753906,1.4030418395996094,-0.11301422119140625,3.3697357177734446,1.9351654052734375,-3.0303115844726634,-3.3445701599121165,0.1136474609375,1.0388412475585938,1.1313247680664062,1.3235092163085938,0.0,8.0,3.0,01-20,0.32245524724324487
12-22,0.49677848815917613,0.6074142456054688,-0.0869293212890625,3.166301727294929,1.9351654052734375,-2.3986244201660156,-3.903545379638672,0.43560028076170454,0.9041595458984375,4.8861541748046875,2.8149490356445312,0.0,8.0,3.0,01-21,0.7381186485290518
12-23,0.21048927307128906,0.6844215393066406,-0.4259986877441406,3.5819854736328125,1.2511024475097656,-2.9570884704589844,-5.245098114013679,-0.12310028076171875,1.7795028686523438,6.0759811401367045,1.9260177612304545,0.0,7.0,4.0,01-22,0.5631845792134573
12-24,0.04209709167480469,0.5133132934570312,-0.13042068481445312,3.838470458984375,0.7020454406738352,-2.9479293823242116,-5.096027374267585,-1.3636016845703125,3.0972900390625,7.792480468749986,0.8889389038085938,0.0,7.0,4.0,01-23,0.6113880475362136
12-26,-0.269439697265625,-0.051349639892578125,-0.8172492980957031,3.776580810546868,0.18003082275390625,-3.222587585449226,-6.530738830566406,-1.6287612915039062,2.1257781982421875,5.471343994140625,0.8395385742187358,0.0,5.0,6.0,01-25,-0.010571161905926848
12-27,-0.277862548828125,0.4876365661621094,-0.9389724731445241,3.573162078857422,0.24303436279296875,-3.3598861694335938,-5.086708068847656,-0.5965805053710938,2.4816665649414062,4.886154174804702,0.641998291015625,0.0,6.0,5.0,01-26,0.17113685607910334
12-28,-0.277862548828125,0.3250885009765696,-0.11302566528320312,3.9534683227539062,-1.1070823669433523,-4.2296142578125,-6.106681823730462,-0.2746124267577983,1.3947372436523438,4.5643157958984375,1.590202331542983,0.0,5.0,6.0,01-27,-0.023422241210933354
12-29,-0.3031139373779226,0.7186203002929688,-0.6346664428710938,3.873859405517578,-2.7452316284179616,-3.9629440307617188,-3.0173721313476705,-0.2462005615234233,1.8468170166015625,2.9843597412109375,1.3432769775390625,0.0,5.0,6.0,01-28,-0.011882940928140092
12-30,-0.09263038635253196,0.8555107116699219,-0.3564643859863281,3.8119468688964844,-3.4952049255371094,-4.51580810546875,-2.8506622314452983,-0.0189208984375,2.3277511596679688,3.237945556640611,0.72100830078125,0.0,5.0,6.0,01-29,-0.031294027964273496
12-31,0.39573669433594105,1.0864906311035156,-0.11300277709961648,3.1543006896972656,-3.5032806396484304,-4.097911834716797,-1.9469833374023295,0.2840881347656108,2.048797607421875,3.7158203125,0.7007675170898438,0.0,7.0,4.0,01-30,0.14373524983723987
