,2009,2010,2011,2012,2013,2014,2015,2016,2017,2018,2019,2020,ups,downs,end_day_sum,avg
01-02,-3.940000534057617,-0.3200035095214844,-0.30999755859375,-0.14999771118165484,3.1000022888183594,-3.7699966430664062,-4.560001373291001,-1.410003662109375,-0.279998779296875,0.6800003051757812,7.779998779296875,2.2600021362304545,4.0,8.0,02-01,-0.07666635513305782
01-03,-3.629999160766612,-0.7600021362304688,-0.05999755859375,0.1399993896484304,2.9099998474121094,-3.4899978637695455,-1.599998474121108,0.8199996948242188,-0.04999542236328125,0.2299957275390625,8.870002746582031,1.900001525878892,6.0,6.0,02-02,0.44000069300333156
01-04,-4.25,-0.6800003051757812,0.8699989318847585,1.1500015258789062,2.2400016784667898,-2.2900009155273438,-1.4899978637695455,0.2299957275390625,-0.29000091552734375,1.4099960327148438,6.8899993896484375,2.4899978637695455,7.0,5.0,02-03,0.5233325958251941
01-05,-5.079999923706055,-0.11999893188476562,0.6999969482421946,1.5900001525878906,2.329998016357429,-2.700000762939453,-1.0599975585937642,-0.34999847412109375,0.470001220703125,0.5099945068359375,7.170005798339844,1.4599990844726847,7.0,5.0,02-04,0.4100000063578311
01-06,-3.9699974060058523,-0.75,1.1299972534179616,1.69000244140625,3.029998779296875,-5.0800018310546875,-0.43999862670897727,1.970001220703125,0.44000244140625,-0.3600006103515625,7.600006103515597,3.1899948120117188,7.0,5.0,02-05,0.7041670481363914
01-07,-3.149999618530284,-0.75,1.2199974060058665,1.0099983215332031,3.009998321533203,-4.679996490478523,-1.059997558593757,3.3899993896484375,-0.34999847412109375,-1.399993896484375,7.900001525878892,4.039993286132827,6.0,6.0,02-06,0.765000184377033
01-08,-3.9600009918212926,-0.7799987792968821,0.9600028991699219,1.7099990844726562,0.8299980163574148,-5.909999847412109,-2.8899993896484304,3.2700042724609375,0.09999847412109375,-3.8199996948242188,7.5500030517578125,4.6500015258789205,7.0,5.0,02-07,0.14250071843465198
01-09,-2.820001602172855,-1.710002899169929,1.1599998474121165,1.7099990844726562,1.7299995422363281,-5.450000762939453,-2.2499999999999787,2.4199981689453125,-0.3300018310546875,-2.5999984741210938,8.109992980957031,3.2099990844726705,6.0,6.0,02-08,0.2649985949198432
01-10,-2.3000011444091832,-1.7800025939941406,2.0,1.4899978637695241,2.029998779296882,-5.750003814697266,-1.5600013732910085,1.3000030517578125,-0.089996337890625,-1.8199996948242188,7.0099945068359375,2.0800018310547017,6.0,6.0,02-09,0.21749925613403467
01-11,-1.5200004577636754,-1.6599998474121094,2.0,1.3899993896484304,1.8699989318847656,-4.629997253417969,-1.0400009155273438,3.2099990844726562,0.5100021362304688,-2.4000015258789062,6.859992980957031,1.3300018310546733,7.0,5.0,02-10,0.49333286285400185
01-12,-2.100000381469723,-1.410003662109375,1.2900009155273438,1.7199974060058452,1.6399993896484446,-3.639995574951172,-1.720001220703132,4.570007324218764,0.220001220703125,-2.7099990844726562,7.9899978637695455,0.5,7.0,5.0,02-11,0.5291670163472508
01-13,-3.3400001525878906,-1.809997558593743,1.3100013732910156,1.7099990844726491,1.279998779296875,-3.7199974060058594,-1.4399986267089844,5.279998779296861,0.0500030517578125,-4.8600006103515625,7.430000305175781,-0.3999938964844034,6.0,6.0,02-12,0.12416776021321259
01-14,-1.2299995422363352,-1.6999969482421875,1.0200004577636648,2.079998016357422,1.2000007629394531,-4.4199981689453125,-0.9199981689453267,5.44000244140625,0.23000335693359375,-4.079994201660156,7.7399978637695455,-0.07999420166015625,6.0,6.0,02-13,0.4400018056233712
01-15,-1.7600002288818395,-1.1599998474121023,0.5600013732910085,1.3600006103515625,1.1599998474121094,-4.060001373291023,-0.09999847412110086,6.120002746582031,1.4500045776367188,-3.6399993896484375,7.5100021362304545,-2.0,6.0,6.0,02-14,0.4533343315124485
01-16,-1.1100006103515554,-1.809997558593743,0.4099998474121094,0.7399978637695312,1.5999984741210938,-4.060001373291023,-0.7900009155273295,6.069999694824219,1.0900039672851562,3.4800033569335938,8.090003967285142,-3.5100021362304688,7.0,5.0,02-15,0.8500003814697271
01-17,0.22999954223632102,1.0100021362304688,0.17000198364257812,0.6500015258789062,1.1299972534179688,-3.299999237060554,-0.529998779296875,6.1999969482421875,0.4900054931640625,3.82000732421875,6.870002746582017,-2.6100006103515625,9.0,3.0,02-16,1.1775013605753557
01-18,0.5,1.1500015258789062,0.13000106811523438,0.31999969482421875,0.839996337890625,-3.2299995422363352,-0.1399993896484375,7.180000305175781,-0.28000640869140625,3.4200057983398438,5.1100006103515625,-0.9199981689452983,8.0,4.0,02-17,1.1733334859212246
01-19,0.07999992370605113,0.8800010681152344,0.5200004577636648,0.040000915527336645,1.1499977111816406,-2.75,0.34999847412109375,5.829994201660156,0.46999359130859375,2.0500030517578125,6.3600006103515625,0.5699996948242472,11.0,1.0,02-18,1.2958324750264494
01-20,-1.1000003814697301,1.0400009155273438,0.9499969482421804,0.8600006103515625,1.0499992370605469,-2.4000015258789205,1.0400009155273438,5.540000915527344,1.55999755859375,3.2000045776367188,5.3299942016601705,1.040000915527358,10.0,2.0,02-19,1.509166240692139
01-21,-2.570001602172848,1.3899993896484375,1.1800003051757741,0.8299980163574219,1.0900001525878906,-2.1899948120117045,1.4900054931640767,6.670005798339844,0.75,3.7099990844726562,5.5,-0.3699951171874716,9.0,3.0,02-20,1.4566680590311731
01-22,-2.1900005340576136,1.3999977111816406,0.5499992370605398,1.1699981689453125,1.7299995422363281,-2.470001220703139,1.1200027465820312,5.120002746582031,1.75,4.370002746582031,5.1100006103515625,-0.6599960327148295,9.0,3.0,02-21,1.4166671435038245
01-23,-2.210000991821289,1.8400001525878906,0.8699989318847656,1.2399978637695312,0.45999908447264914,-1.7800064086914205,2.0700035095214844,6.44000244140625,1.4500045776367188,3.4599990844726705,4.880004882812528,-2.3600006103515625,9.0,3.0,02-22,1.3633335431416846
01-24,-2.910001754760742,2.059997558593757,0.8500022888183594,1.0600013732910227,0.17000198364257812,0.03999328613278408,2.069995880126939,6.019996643066406,1.0499954223632812,1.9600067138671875,5.130004882812528,-2.1100006103515625,10.0,2.0,02-23,1.2824994723002117
01-25,-3.0500011444091797,2.1599998474121165,-0.05999755859375,0.69000244140625,0.24000167846678977,1.4499969482422088,2.3999977111816406,5.94000244140625,0.8300018310546875,0.7300033569335938,4.8700027465820455,-1.5599975585937358,9.0,3.0,02-24,1.2200010617574097
01-26,-4.090000152587887,2.0600013732910156,-1.0400009155273438,0.299999237060554,1.1899986267089844,1.2399978637695384,2.49999618530272,2.3800048828125,0.94000244140625,1.0200042724609375,5.240005493164091,-4.509994506835923,9.0,3.0,02-25,0.6025012334187864
01-27,-3.4799995422363246,2.240001678466797,-0.8899993896484304,0.17000198364257102,1.779998779296875,0.9700012207031321,3.410003662109375,3.660003662109375,0.8199996948242188,2.8799972534179688,4.170005798339844,-7.279998779296861,9.0,3.0,02-26,0.7041680018107117
01-28,-4.259998321533203,2.5300025939941406,-0.010002136230475855,1.029998779296882,1.05999755859375,0.9300003051757955,3.7599983215332173,3.2400054931640625,1.3800048828125,3.2599945068359233,3.6800003051758097,-9.02999877929689,9.0,3.0,02-27,0.6308336257934594
01-29,-3.819999694824208,2.970001220703125,-0.6100006103515696,1.0999984741211009,0.5400009155273438,1.5800018310546875,2.849998474121108,1.0100021362304688,1.6200027465820312,3.0499954223632812,3.3699951171875284,-11.260002136230455,9.0,3.0,02-28,0.19999949137370354
01-30,-3.1999988555908203,2.799999237060547,-0.02000045776367898,1.0999984741211009,1.5400009155273366,0.7300033569335938,2.7399978637695455,2.029998779296875,1.7400054931640625,1.80999755859375,3.4500045776367188,-11.860000610351562,9.0,3.0,02-29,0.23833386103312235
01-31,-2.3400001525878906,2.9699974060058665,0.10999679565428977,0.3300018310546875,1.870002746582017,1.1400032043457031,2.720001220703125,1.0200042724609375,1.5400009155273438,2.0,2.2900009155273295,-10.830001831054702,10.0,2.0,03-01,0.23500061035155895
02-01,-1.9300003051757777,3.4499969482421875,-1.229999542236321,-0.7600021362304616,1.170001983642571,4.090003967285156,2.3300018310546875,1.4000015258789062,2.1199951171875,2.5800018310546875,1.8600006103515767,-14.83999633789061,8.0,4.0,03-02,0.020000457763675133
02-02,-3.6100006103515625,3.229999542236328,-1.1699981689453125,-0.02000045776366477,1.729999542236321,4.75,2.9599990844726562,3.1800003051757812,2.7299957275390625,3.6199951171875,1.8800048828125,-16.1699981689453,8.0,4.0,03-03,0.25916639963785926
02-03,-3.9200000762939453,3.6399993896484375,-0.9700012207031179,-0.7200012207031179,1.2600021362304759,3.910003662109375,2.4199981689453054,1.2600021362304688,2.279998779296875,5.620002746582031,0.9599990844726705,-13.65999603271483,8.0,4.0,03-04,0.17333396275838572
02-04,-3.09999847412109,4.540000915527351,-1.1699981689453125,-0.5600013732910227,1.190002441406243,3.6199989318847727,2.400001525878899,2.1700057983398438,2.4599990844726562,6.3000030517578125,1.7600021362304688,-14.189994812011719,8.0,4.0,03-05,0.45166842142740854
02-05,-3.4599990844726527,4.6100006103515625,-0.8199996948242045,-0.2999992370605469,1.25,3.6300010681152344,1.8100013732910085,3.2900009155273438,2.69000244140625,7.0200042724609375,0.40000152587890625,-10.43000030517581,8.0,4.0,03-06,0.8075011571248357
02-06,-4.2399997711181605,4.489997863769531,-1.5,-0.15000152587890625,1.470001220703118,3.4300003051757812,1.2900009155273438,2.1699981689453125,2.3000030517578125,6.9799957275390625,-1.099998474121108,-10.08999633789064,7.0,5.0,03-07,0.4208334287007623
02-07,-4.470001220703125,5.1999969482421875,-1.6699981689453054,-1.279998779296868,1.5100021362304545,2.4399986267089844,1.37999725341799,2.970001220703125,2.7399978637695312,6.290000915527344,-1.4599990844726847,-9.259994506835966,7.0,5.0,03-08,0.36583360036213897
02-08,-4.730001449584961,5.30999755859375,-0.09000015258789062,-1.0,1.8700027465820241,2.3400001525878906,0.6199951171874929,2.69000244140625,2.3899993896484375,8.760002136230469,-0.9000015258789205,-11.819999694824205,7.0,5.0,03-09,0.45333305994669476
02-09,-4.980001449584961,4.760002136230469,-0.20000076293945312,-1.5699996948242259,2.099998474121101,2.3200035095214986,0.5299987792968821,1.3799972534179688,2.3700027465820312,7.9799957275390625,-1.8199996948242472,-8.5,7.0,5.0,03-10,0.3641664187113438
02-10,-2.7600002288818324,5.209999084472649,-0.3400001525878835,-0.8500022888183665,2.8199996948242188,2.1499977111816406,0.020000457763671875,1.6599960327148438,1.1500015258789062,7.349998474121094,-1.2299957275390767,-14.350006103515597,7.0,5.0,03-11,0.06916570663452237
02-11,-3.19000053405761,2.3899993896484375,-0.18999862670898438,0.8500022888183594,2.9199981689453125,1.2299957275390625,-0.31999969482421875,1.529998779296875,1.4199981689453125,8.270004272460952,0.31999969482420454,-12.060005187988281,8.0,4.0,03-12,0.2641660372416184
02-12,-3.460000991821289,2.25,-1.2100028991699148,1.1200027465820312,2.6500015258789062,1.1000022888183665,-0.7099990844726562,0.5499954223632812,2.3600006103515625,8.180000305175781,-0.05999755859373579,-15.629997253417969,7.0,5.0,03-13,-0.23833290735880297
02-13,-3.04000091552734,2.5900001525878906,-1.1000022888183594,1.1800003051757812,2.160003662109375,0.6200027465820312,-1.1999969482421875,1.4200057983398438,2.3199996948242188,0.779998779296875,-0.5200042724609233,-17.119995117187514,7.0,5.0,03-14,-0.9924990336100258
02-14,-1.0599994659423935,2.6300010681152344,-0.8400001525878977,2.079998016357422,2.2600021362304688,0.2700042724609517,-1.6899986267089773,1.8300018310546875,2.6999969482421875,-0.5900039672851562,0.5100021362304688,-17.589996337890625,7.0,5.0,03-15,-0.7908326784769691
02-15,-0.5799999237060547,2.229999542236328,-1.5200004577636719,2.049999237060547,2.220001220703125,-0.8300018310547159,-2.1500015258789062,1.2900009155273438,4.040000915527344,-1.0999984741210938,0.3399963378906392,-20.860000610351577,6.0,6.0,03-16,-1.2391670544942244
02-16,-0.6299991607666016,2.5699996948242188,-1.8699989318847585,1.7099990844726562,1.7299995422363281,-0.4700012207031392,-1.4599990844726562,2.2100067138671875,3.0400009155273438,-1.7600021362304688,1.3399963378906392,-18.870002746582045,6.0,6.0,03-17,-1.038333415985108
02-17,-0.04000091552734375,3.0400009155273438,-2.1899986267089844,1.6399993896484375,1.9500007629394531,-0.02000427246095171,-1.6399993896484375,3.1800003051757812,3.339996337890625,-0.7799987792968892,1.5,-27.380004882812514,6.0,6.0,03-18,-1.4500007629394567
02-18,1.7400016784667933,2.5999984741210938,-2.170001983642578,2.3899993896484375,1.8100013732910227,0.48999786376950283,-1.8800010681152344,3.25,2.3900070190429688,-0.909996032714858,2.159996032714858,-18.81000518798828,8.0,4.0,03-19,-0.5783335367838562
02-19,2.0800018310546875,2.3800010681152273,-1.0800018310546875,2.240001678466797,2.0600013732910227,0.34000396728517046,-1.8899955749511577,3.6700057983398438,2.4900054931640625,-1.099998474121108,2.0499954223632955,-18.260002136230483,8.0,4.0,03-20,-0.4183317820231108
02-20,2.220001220703125,2.009998321533196,-0.4900016784667969,2.0900001525878906,4.380001068115227,0.01000213623045454,-2.2199974060058594,4.459999084472656,3.25,-1.2799987792968892,1.6899948120117188,-18.18000030517578,8.0,4.0,03-21,-0.17166678110758818
02-21,3.769998550415039,1.5900001525878835,0.5,1.9000015258788991,4.420001983642571,0.220001220703125,-2.6299972534179545,4.089996337890625,2.1800003051757812,-0.57000732421875,0.8299942016601562,-15.230003356933594,9.0,3.0,03-22,0.08916552861531517
02-22,3.2099990844726527,1.4699974060058452,0.4199981689453125,1.829998016357429,3.8300018310546804,0.29000091552735796,-3.039997100830064,4.579994201660156,2.589996337890625,-1.0200042724609375,1.8999938964844034,-10.330001831054702,9.0,3.0,03-23,0.4774980545043966
02-23,4.529998779296875,1.8899993896484375,1.1800003051757812,1.1199989318847727,4.159999847412109,0.37999725341796875,-2.8799972534179545,5.1999969482421875,2.7299957275390625,-1.400001525878892,3.9800033569335795,-16.699996948242173,9.0,3.0,03-24,0.3491662343343129
02-24,3.180000305175767,0.7000007629394531,1.529998779296875,1.049999237060554,4.140003204345703,-0.18000030517578125,-2.8000030517578125,4.159996032714844,2.4899978637695312,-2.8199996948242188,2.2700042724609233,-25.279998779296875,8.0,4.0,03-25,-0.9633334477742531
02-25,3.289999008178711,0.7900009155273438,0.9399986267089844,0.7700004577636719,3.9000015258789062,-0.43999481201171875,-2.86999893188478,3.7300033569335938,2.6800003051757812,-4.010002136230469,2.9500045776367188,-18.880004882812486,8.0,4.0,03-26,-0.5958326657613119
02-26,3.260000228881836,0.6200027465820241,0.9600028991699148,1.0600013732910156,4.190002441406243,-1.3700027465820312,-3.2800025939941406,4.739997863769531,2.1399993896484375,-2.5699996948242188,4.130004882812472,-14.5,8.0,4.0,03-27,-0.051666100819909744
02-27,2.850000381469723,-0.1699981689453125,0.8000030517578196,1.6899986267089844,3.25,-1.94000244140625,-2.890003204345703,4.430000305175781,2.1399993896484375,-1.4199981689453125,4.109992980957031,-12.220001220703125,7.0,5.0,03-28,0.05249929428100616
02-28,6.100000381469727,0.1100006103515696,0.7300033569335866,2.0400009155273438,2.710002899169922,-2.5999984741210938,-3.520000457763672,3.6800003051757812,2.55999755859375,-1.339996337890625,3.7899932861328125,-10.889999389648438,8.0,4.0,03-29,0.28083372116088867
02-29,0.0,0.0,0.0,2.159999847412095,0.0,0.0,0.0,4.599998474121094,0.0,0.0,0.0,-7.380004882812486,2.0,1.0,03-30,-0.051667213439941406
03-01,5.719999313354485,0.5600013732910156,1.3600006103515625,2.0,3.180000305175767,-1.6400032043457102,-3.3199996948242188,4.010002136230469,0.9800033569335938,-0.9199981689453125,4.709999084472642,-9.580001831054688,8.0,4.0,03-31,0.5883336067199672
03-02,4.570001602172848,0.43000030517578125,2.1899986267089915,1.7399978637695241,3.4399986267089915,-1.0600051879882955,-2.799999237060547,4.319999694824219,1.2300033569335938,-1.5999984741210938,4.580001831054673,-3.0999984741210938,8.0,4.0,04-01,1.161666711171466
03-03,5.019998550415043,0.10000228881835938,1.0,1.5600013732910156,3.9499969482421946,0.7699966430664205,-2.3699989318847656,3.5300064086914062,1.0,-2.0400009155273438,4.779998779296875,-3.220001220703139,9.0,3.0,04-02,1.1733333269755055
03-04,4.469999313354492,0.10000228881835938,1.6800003051757955,1.4200019836425781,3.569999694824233,1.3000030517578125,-2.1000022888183594,2.7300033569335938,1.2099990844726562,-0.5699996948242188,6.099998474121094,-11.23000335693358,9.0,3.0,04-03,0.7233335177103714
03-05,5.280000686645504,-0.6099967956542969,2.3600006103515554,1.6500015258789062,3.4300003051757812,1.2099990844726562,-1.5099983215332173,2.69000244140625,1.339996337890625,-2.470001220703125,5.75,-7.7700042724609375,8.0,4.0,04-04,0.9458333651224752
03-06,5.54000091552734,-1.1100006103515625,3.0099983215332102,3.0999984741210938,2.2599983215332102,1.3899993896484375,-0.7499961853027202,3.3699951171875,0.7999954223632812,-1.2099990844726562,6.980003356933608,-11.090003967285142,8.0,4.0,04-05,1.0241657892863
03-07,7.459999084472646,-0.9599990844726562,3.3699989318847656,3.069999694824226,2.1100006103515554,1.4099960327148295,-0.5299987792968821,3.19000244140625,1.2699966430664062,-0.43000030517578125,7.5900039672851705,-5.2999954223632955,8.0,4.0,04-06,1.8541669845581028
03-08,7.549999237060536,-0.7999992370605469,1.8300018310546946,1.9899978637695312,1.3899993896484375,1.1200027465820312,-1.029998779296882,1.9499969482421875,0.1399993896484375,-0.23999786376953125,7.0,-7.259994506835966,8.0,4.0,04-07,1.1366672515869107
03-09,7.549999237060536,-0.4399986267089844,2.25,1.7199974060058594,1.3199996948242188,0.48000335693359375,-0.799999237060554,2.1300048828125,0.23000335693359375,-1.1600036621093892,6.0800018310546875,-0.6899948120117188,8.0,4.0,04-08,1.5558344523111953
03-10,5.390001296997063,-0.3899993896484375,3.5100021362304616,1.19000244140625,0.7400016784667969,-0.1399993896484375,-0.6399993896484375,2.6100006103515625,-0.7099990844726562,-0.37999725341796875,6.720001220703111,-2.8699951171874716,6.0,6.0,04-09,1.252501646677653
03-11,5.5600013732910085,-0.45999908447265625,3.4000015258789062,0.7400016784667969,1.0400009155273438,0.790000915527358,0.05999755859375,2.2000045776367188,-0.220001220703125,-2.279998779296875,6.970001220703111,2.040000915527358,9.0,3.0,04-10,1.6533342997233078
03-12,4.760000228881843,-0.5,2.539997100830078,0.5500030517578054,1.0799980163574148,1.1999969482421875,-0.14000320434571023,2.1100006103515625,-0.589996337890625,-0.8799972534179688,5.900001525878892,6.720001220703139,8.0,4.0,04-11,1.8958334922790516
03-13,4.280000686645504,0.18999862670897727,1.9599990844726634,-1.0699996948242188,1.9199981689453125,2.089996337890639,0.31999969482421875,2.1200027465820312,0.1399993896484375,2.220001220703125,6.760002136230469,4.730003356933608,11.0,1.0,04-12,2.1383334795633973
03-14,5.089998245239258,0.9199981689453125,1.6499977111816477,-0.5599975585937571,1.7700004577636719,1.7299957275390625,-0.45999908447265625,2.1200027465820312,0.3899993896484375,2.1800003051757812,6.150001525878906,16.230003356933594,10.0,2.0,04-13,3.1008334159851074
03-15,6.129999160766602,1.0099983215332031,1.700000762939446,-0.9899978637695384,1.5499992370605469,0.75,-0.2999992370605469,1.42999267578125,-0.31999969482421875,1.970001220703125,5.9899978637695455,19.389999389648438,9.0,3.0,04-14,3.192499319712321
03-16,5.479997634887688,0.8100013732910156,2.299999237060554,-0.8400001525878977,1.9199981689453054,-0.23999786376954546,-0.3600006103515625,1.6399993896484375,-0.06000518798828125,2.0999984741210938,5.950004577636719,14.470001220703125,8.0,4.0,04-15,2.7641663551330544
03-17,4.040000915527344,1.279998779296882,2.2099990844726634,-0.09000015258789062,1.3400001525878764,0.23000335693359375,-0.3100013732910156,0.9300003051757812,-0.160003662109375,2.7399978637695455,6.599998474121108,7.5699996948242045,9.0,3.0,04-16,2.19833278656006
03-18,2.8199996948242116,1.549999237060554,1.6199989318847727,-0.5099983215332031,-0.17000198364258523,0.5599975585937784,-0.9500007629394531,1.3000030517578125,-1.6099929809570312,2.7900009155273438,6.180000305175781,4.180000305175781,8.0,4.0,04-17,1.480000495910647
03-19,2.310001373291005,1.9699974060058665,0.6799964904785156,-0.31999969482421875,0.04999923706053977,1.1699981689453267,-0.6399993896484375,1.0699996948242188,-2.0399932861328125,4.349998474121108,6.020004272460952,2.0500030517578267,9.0,3.0,04-18,1.3891671498616576
03-20,2.8700008392333913,2.6599998474121165,1.2399978637695312,0.09999847412110086,-1.640003204345696,1.3699951171875,-0.22999954223632812,1.8700027465820312,-0.5699996948242188,6.3499984741210795,5.670005798339844,8.419998168945298,9.0,3.0,04-19,2.342499574025471
03-21,-0.5799999237060582,3.1599998474121165,0.5999984741210938,0.20000076293944602,-1.25,1.2799987792968892,-0.3800010681152344,2.25,0.8000030517578125,6.0200042724609375,4.080001831054702,17.919998168945312,9.0,3.0,04-20,2.8416670163472517
03-22,-1.139999389648441,3.2299995422363352,1.2599983215332031,0.4799995422363281,-1.2300033569335938,2.209999084472642,-0.5499992370605469,1.3799972534179688,0.7000045776367188,7.650001525878906,5.790000915527358,19.010002136230455,9.0,3.0,04-21,3.232500076293944
03-23,-1.9799995422363352,2.829998016357429,1.1899986267089844,0.18999862670898438,-1.4300003051757812,2.3799972534179688,-0.5799980163574148,1.6299972534179688,0.3899993896484375,8.840003967285156,3.1899948120117188,23.010002136230455,9.0,3.0,04-22,3.3049993515014644
03-24,-0.8299999237060476,3.75,1.0399971008300852,-0.37999725341796875,-0.9199981689453125,2.8899993896484375,-0.7799987792968679,2.3799972534179688,0.9300003051757812,6.590003967285142,3.6999969482421733,18.060005187988295,8.0,4.0,04-23,3.035833835601807
03-25,-1.5200004577636683,4.060001373291016,1.1999969482421804,-0.029998779296875,-0.5400009155273438,3.459999084472642,-0.09999847412110086,1.4599990844726562,1.1999969482421875,6.2300033569335795,4.419998168945298,16.120002746582017,8.0,4.0,04-24,2.9966665903727154
03-26,-3.090000152587887,3.7800025939941335,2.099998474121101,-0.6599998474121094,-0.49000167846678977,3.6299972534179688,-0.09999847412110086,0.2700042724609375,1.3699951171875,6.1399993896484375,4.619995117187528,10.100006103515597,8.0,4.0,04-25,2.305833180745443
03-27,-2.7099990844726456,3.529998779296875,2.4699974060058736,-0.7600021362304616,-0.3400001525878906,3.5099983215332102,-0.299999237060554,1.3700027465820312,1.6800003051757812,5.099998474121094,4.4200057983398295,12.300003051757798,8.0,4.0,04-26,2.5225003560384116
03-28,-1.0900001525878906,3.670001983642578,2.2199974060058736,0.0800018310546946,-0.8499984741210938,2.9300003051757955,-0.7600021362304759,0.7099990844726562,1.660003662109375,4.790000915527344,3.75,4.5399932861328125,9.0,3.0,04-27,1.8041664759318057
03-29,-0.6700000762939382,3.529998779296875,3.020000457763672,0.1100006103515625,-0.4700012207031321,1.2600021362304545,-0.4099998474121094,1.4199981689453125,2.2999954223632812,3.3199996948242188,3.5500030517577983,3.6399993896484517,9.0,3.0,04-28,1.7166663805643705
03-30,-0.7200012207031214,2.9599990844726562,2.5100021362304545,0.25,-0.8000030517578196,1.0400009155273295,-0.9099998474121094,1.2299957275390625,2.4799957275390625,5.220001220703125,1.7399978637695455,12.099998474121094,9.0,3.0,04-29,2.25833225250244
03-31,-1.139999389648441,3.6000022888183594,2.0,-0.5,-1.5800018310546946,0.8000030517577841,-0.7400016784667898,1.5499954223632812,2.3499984741210938,5.349998474121094,3.7099990844726562,11.639999389648438,8.0,4.0,04-30,2.2533327738443982
04-01,-0.2999992370605469,3.450000762939453,1.3500022888183452,-0.20999908447265625,-1.6200027465820384,0.06999969482421875,-1.1000022888183523,0.8700027465820312,2.3400039672851562,5.529998779296875,3.6100006103515625,13.870002746582031,8.0,4.0,05-01,2.3216673533121734
04-02,-1.9699974060058523,3.2900009155273438,1.220001220703125,-0.4900016784667969,-1.1300010681152344,0.279998779296875,-0.6000022888183523,0.37999725341796875,3.850006103515625,5.569999694824219,4.019996643066392,13.930000305175781,8.0,4.0,05-02,2.3624998728434243
04-03,-2.059997558593743,4.060001373291023,1.3100013732910156,-0.5900001525878906,-1.1699981689453054,0.7399978637695312,-0.8300018310546804,-2.910003662109375,3.2800064086914062,3.9800033569335938,5.339996337890639,15.889999389648452,7.0,5.0,05-03,2.253333727518722
04-04,-1.8199977874755753,3.3800010681152344,1.69000244140625,-0.26000213623046164,-1.1999969482421804,1.3799972534179688,-1.3100013732910085,-2.0600051879882812,3.4599990844726562,2.849998474121108,4.7099990844726705,6.3199996948242045,7.0,5.0,05-04,1.4283328056335487
04-05,-2.15999794006348,4.009998321533203,0.8199996948242045,0.18999862670899148,-0.6199989318847585,1.7700042724609375,0.6700019836425852,-1.9899978637695312,4.3699951171875,2.159996032714858,4.069999694824247,5.3799972534179545,9.0,3.0,05-05,1.555833021799726
04-06,-1.5199985504150355,3.779998779296875,0.34999847412109375,0.37999725341798296,-0.7900009155273438,1.2600021362304688,0.579998016357429,-2.4200057983398438,3.9199981689453125,4.059997558593764,4.010002136230483,6.049995422363281,9.0,3.0,05-06,1.6383318901062056
04-07,-0.3800010681152308,2.5999984741210938,0.9500007629394602,0.6800003051757884,-0.3999977111816406,1.3199996948242188,-0.1100006103515625,-1.7900009155273438,4.2899932861328125,1.2200012207031392,4.860000610351577,4.439994812011719,8.0,4.0,05-07,1.4733324050903358
04-08,-0.8899993896484375,2.3100013732910227,1.529998779296875,-0.43000030517576704,-0.31999969482421875,0.5200042724609233,-0.31999969482421875,-1.8000030517578125,4.5,2.3600006103515767,6.029998779296889,0.75,7.0,5.0,05-08,1.1866668065389028
04-09,-1.9300003051757812,1.5800018310546875,1.2999992370605469,-0.5600013732910085,-0.29999923706053977,0.2400054931640767,-0.23000335693359375,-1.3000030517578125,5.0200042724609375,2.900001525878892,5.80999755859375,-2.4099960327148438,6.0,6.0,05-09,0.8433338801066093
04-10,-1.279998779296868,0.3500022888183594,1.2099990844726562,0.4500007629394531,-0.7900009155273438,0.7700042724609517,-0.3900032043457031,-1.0800018310546875,5.620002746582031,-0.959999084472642,4.949996948242173,2.5100021362304688,7.0,5.0,05-10,0.9466670354207375
04-11,-1.7099990844726456,-0.6699981689453125,2.200000762939453,-0.18000030517576704,-1.0200004577636719,1.7600021362304972,-0.43000030517578125,-0.80999755859375,5.560005187988281,0.7099990844726562,4.329994201660142,3.1200027465820312,6.0,6.0,05-11,1.0716673533121777
04-12,-1.4899978637695277,1.1500015258789062,3.020000457763672,-0.7799987792968679,-0.4400024414062429,1.5099945068359375,-0.2700004577636719,-0.5099945068359375,6.6399993896484375,0.26000213623045454,3.680000305175753,5.180000305175781,7.0,5.0,05-12,1.4958337148030578
04-13,-1.759998321533196,1.039997100830071,1.9900016784667898,-0.3600006103515554,0.5699996948242188,1.3999938964843608,-0.3699989318847585,-1.3600006103515625,7.069999694824219,0.20999908447265625,3.1100006103515625,3.9599990844726705,8.0,4.0,05-13,1.2916660308837897
04-14,-0.8400001525878906,0.9000015258788991,1.94000244140625,-0.7000007629394531,1.1000022888183594,2.30999755859375,0.20999908447265625,-1.6199951171875,5.600006103515625,-0.5199966430664205,3.7099990844726562,-0.06999969482420454,7.0,5.0,05-14,1.0016679763793939
04-15,-2.19000053405761,0.3300018310546875,1.3800010681152344,-0.8800010681152344,0.5900001525878906,0.959999084472642,1.3300018310546875,-2.4199981689453125,5.260002136230469,-0.01999664306642046,2.910003662109361,1.4899978637695312,8.0,4.0,05-15,0.7283342679341605
04-16,-0.05999946594238281,-0.1699981689453125,2.8800010681152415,-1.9399986267089844,0.4399986267089844,0.37999725341799717,1.3200035095214844,-2.0,5.160003662109375,-0.9399948120117188,3.3600006103515483,0.5699996948242188,7.0,5.0,05-16,0.7500011126200375
04-17,0.5,-0.6499977111816406,2.720001220703132,-2.759998321533203,1.6599998474121094,0.20999908447267046,1.4900016784667969,-2.6599960327148438,5.3600006103515625,-4.029998779296861,5.540000915527315,-0.5200042724609233,7.0,5.0,05-17,0.5716673533121762
04-18,1.8899993896484375,-2.109996795654297,3.329998016357422,-3.200000762939446,2.0999984741210938,-0.3000030517577983,2.3999977111816335,-2.2299957275390625,5.220001220703125,-2.0699996948242188,5.029998779296861,-4.4800033569335795,6.0,6.0,05-18,0.4649995168050142
04-19,1.8199996948242223,-1.6899986267089844,1.8300018310546875,-3.2600021362304616,1.589996337890625,-1.0999984741210795,2.3899955749511648,-4.049995422363281,4.7299957275390625,-1.2600021362304545,4.309997558593736,-5.440002441406236,6.0,6.0,05-19,-0.010834376017249939
04-20,2.170000076293949,-2.4599990844726634,2.229999542236328,-3.6100006103515554,1.1100006103515625,-0.94000244140625,2.8500022888183665,-4.519996643066406,4.459999084472656,-0.900001525878892,5.180000305175781,-2.7900009155273295,6.0,6.0,05-20,0.23166672388712892
04-21,1.6499996185302805,-2.640003204345703,1.8600006103515554,-4.119998931884766,1.6100006103515625,-0.45000457763671875,3.3699951171874787,-3.3300018310546875,4.290000915527344,-1.05999755859375,4.849998474121094,-2.3899993896484517,6.0,6.0,05-21,0.30333248774210314
04-22,1.6500015258789027,-2.8400001525878906,2.1100006103515554,-4.55999755859375,1.6000022888183665,-1.8100051879882812,2.579998016357429,-4.430000305175781,3.839996337890625,-0.7900009155273295,4.1100006103515625,-1.8899993896484233,6.0,6.0,05-22,-0.03583367665608458
04-23,1.1800003051757848,-2.9800033569335938,1.8700027465820241,-3.6999969482421804,0.8300018310546875,-1.1800003051757955,2.520000457763679,-4.1699981689453125,4.05999755859375,-0.3399963378906108,3.4200057983398295,-0.6099929809570312,6.0,6.0,05-23,0.07500171661376924
04-24,0.7600002288818324,-4.1999969482421875,1.4000015258788991,-3.4399986267089915,0.1100006103515625,-1.3400039672851705,2.1699981689453125,-3.6899948120117188,4.5399932861328125,0.779998779296875,3.2099990844726705,0.29000091552732954,8.0,4.0,05-24,0.049166520436602155
04-25,0.8100013732910156,-4.3899993896484375,0.44000244140625,-3.970001220703125,0.44000244140625,-1.1200027465820455,2.6699981689453125,-4.2299957275390625,4.459999084472656,0.9399948120117188,3.7000045776367045,-8.169998168945312,7.0,5.0,05-25,-0.7016661961873396
04-26,0.5100002288818359,-4.529998779296875,-0.3699989318847585,-3.450000762939453,1.220001220703125,-0.8800048828125,2.1299972534179688,-3.5500030517578125,4.0500030517578125,0.80999755859375,1.7300033569335938,-7.4900054931640625,6.0,6.0,05-26,-0.8183341026306147
04-27,0.4500007629394531,-4.470001220703125,-0.06999969482420454,-3.740001678466797,1.2600021362304688,-0.9800033569335795,1.7099990844726562,-3.6100006103515625,4.599998474121094,0.6299972534179688,1.8300018310546875,-7.480003356933594,6.0,6.0,05-27,-0.8225008646647112
04-28,1.6299991607666016,-4.380001068115234,-0.29999923706053977,-3.4599990844726562,1.3400001525878835,-0.9100036621093608,1.19000244140625,-2.94000244140625,3.089996337890625,0.589996337890625,1.6399993896484375,-1.629997253417983,6.0,6.0,05-28,-0.3450007438659668
04-29,-0.09000015258789418,-5.150001525878913,-0.3899993896484304,-3.4499969482421804,0.8700027465820384,-1.1700057983398438,1.930004119873061,0.34999847412109375,3.6599960327148438,0.529998779296875,1.6100006103515625,2.470001220703111,7.0,5.0,05-29,0.09749984741211026
04-30,-0.3299999237060618,-4.470001220703125,-0.7700004577636648,-3.8999977111816406,0.37000274658203836,-1.4599990844726562,2.410003662109389,-0.5,4.4199981689453125,0.5800018310546875,1.6600036621093892,5.470001220703111,6.0,6.0,05-30,0.29000107447306495
05-01,0.010000228881843043,-5.099998474121094,-0.8500022888183594,-3.9599990844726562,0.7999992370605398,-1.2300033569335938,0.43000030517579546,-0.4199981689453125,4.6399993896484375,-0.23000335693357954,-0.1100006103515625,6.410003662109361,5.0,7.0,05-31,0.03249979019165158
05-02,-0.8799991607666016,-3.7199974060058594,-0.6000022888183594,-4.659999847412109,0.6700019836425781,-0.720001220703125,0.529998779296875,0.29000091552734375,4.340003967285156,1.400001525878892,-0.3000030517577983,4.7900009155273295,6.0,6.0,06-01,0.0950004259745268
05-03,-0.31999969482421164,-3.80999755859375,1.0200004577636719,-4.960002899169915,0.279998779296875,-0.3699951171875,-0.18999862670898438,1.5100021362304688,4.560005187988281,2.839996337890611,-1.150001525878892,4.580001831054673,6.0,6.0,06-02,0.33250077565511066
05-04,0.8399982452392543,-4.459999084472656,0.22999954223633523,-3.8500022888183594,1.1700019836425781,-0.15000152587892046,-0.059997558593757105,1.6500015258789062,3.6200027465820312,1.6999969482421733,-1.5099945068359233,4.610000610351548,7.0,5.0,06-03,0.31583388646443417
05-05,1.5400009155273366,-2.6500015258789062,0.770000457763679,-2.920001983642578,0.6500015258789134,-0.23999786376953125,0.9500007629394531,1.1500015258789062,3.0999984741210938,-0.48000335693357954,-1.75,6.5100021362304545,7.0,5.0,06-04,0.5525000890096035
05-06,1.2299995422363352,-1.5100021362304688,0.8600006103515696,-3.3300018310546875,0.779998779296875,-0.15000152587892046,1.0400009155273438,0.9300003051757812,3.75,-0.03000640869139204,-0.9899978637695312,8.419998168945312,7.0,5.0,06-05,0.9166657129923514
05-07,1.659999847412113,-0.4900016784667969,-0.2799987792968679,-3.3699989318847585,0.44000244140625,-0.31000518798829546,1.1399993896484375,0.7999954223632812,3.8199996948242188,1.0599975585937642,1.75,7.80999755859375,8.0,4.0,06-06,1.1691656112670914
05-08,1.439998626708995,-2.3699989318847656,-1.0999984741211009,-3.3899993896484446,-0.6800003051757741,-0.529998779296875,0.9799995422363281,0.649993896484375,3.339996337890625,2.1599960327148295,3.1399993896484375,5.75,7.0,5.0,06-07,0.7824989954630525
05-09,1.759998321533196,-3.700000762939453,-1.7000007629394531,-2.1399993896484446,-0.18000030517577414,-0.4199981689452983,0.8599967956542898,0.5399932861328125,3.0,0.9500045776367188,4.1299972534179545,5.830001831054673,7.0,5.0,06-08,0.7441660563151018
05-10,1.3499984741210938,-4.1399993896484375,-1.5300025939941264,-1.9899978637695312,-0.7100028991699148,-0.9700012207031108,1.2199974060058665,0.40999603271484375,2.8199996948242188,0.12000274658203125,3.529998779296861,7.090003967285142,7.0,5.0,06-09,0.5999994277954114
05-11,1.6599998474121094,-4.189998626708977,-1.0100021362304688,-1.80999755859375,0.299999237060554,-0.3899993896484375,0.6899986267089773,0.8899993896484375,3.160003662109375,-0.37999725341796875,7.4300003051757955,7.270004272460923,7.0,5.0,06-10,1.135000864664714
05-12,1.8600006103515625,-5.0600013732910085,-1.8700027465820384,-0.39000320434571023,1.0200004577636719,-0.26999664306639204,0.6400032043456889,0.09000396728515625,3.2600021362304688,-0.13000488281252842,9.119995117187514,8.520004272460923,7.0,5.0,06-11,1.399166742960609
05-13,3.1600017547607493,-4.650001525878899,-1.710002899169929,0.06999969482421164,1.2099990844726491,0.1399993896484375,-0.09000396728515625,0.75,2.6200027465820312,0.29000091552732954,10.419998168945327,9.220001220703125,9.0,3.0,06-12,1.7858328819274896
05-14,2.610002517700206,-3.190002441406243,-1.8299980163574219,-0.5600013732910156,0.5499992370605469,-0.18000030517578125,-0.970001220703125,0.3899993896484375,3.0200042724609375,0.4499969482421733,9.599998474121094,9.180000305175781,7.0,5.0,06-13,1.5891664822896325
05-15,2.680002212524421,-2.6300010681152344,-2.5199966430664134,0.6299972534179759,-0.6199989318847656,0.6199951171875,-0.9599990844726562,0.7999954223632812,2.8100051879882812,2.0500030517578125,8.380004882812528,10.139999389648438,8.0,4.0,06-14,1.7816672325134306
05-16,3.029998779296875,-2.099998474121101,-1.4699974060058594,0.69000244140625,-0.5200004577636719,0.45999908447267046,-0.8800048828125,-0.6200027465820312,3.3899993896484375,0.779998779296875,7.510002136230483,0.09999847412109375,7.0,5.0,06-15,0.8641662597656268
05-17,3.020000457763672,-2.2399978637695312,-0.40000152587890625,1.8300018310546946,-1.0200004577636719,-0.5299987792968608,-1.0800018310547017,1.0400009155273438,3.970001220703125,1.029998779296875,7.8400039672851705,1.2099990844726562,7.0,5.0,06-16,1.2225004831949888
05-18,2.2900009155273438,-0.15999984741210938,-2.6399993896484375,2.270000457763679,0.22999954223632102,-0.21999359130857954,-1.3900070190429972,1.0699996948242188,4.1100006103515625,0.7600021362304545,7.680000305175781,1.2600021362304688,8.0,4.0,06-17,1.2716671625773088
05-19,1.7199993133544886,0.3900032043457031,-2.4000015258789062,1.8199996948242045,-0.02000045776367898,-0.9899978637695312,-1.1899948120117188,1.470001220703125,3.8899993896484375,0.8499984741210795,7.049995422363281,3.6599960327148438,8.0,4.0,06-18,1.354166507720944
05-20,2.099998474121101,1.75,-1.9300003051757812,1.7099990844726491,0.07999801635741477,0.5200042724609375,-0.6500015258789062,0.9899978637695312,3.3900070190429688,0.9099960327148295,7.129997253417969,2.5,10.0,2.0,06-19,1.541666348775226
05-21,2.3999996185302805,1.94000244140625,-0.8900032043457102,2.05999755859375,0.34999847412109375,0.05000305175782671,-0.1100006103515625,1.7099990844726562,3.1100006103515625,0.829994201660142,6.009994506835923,1.82000732421875,10.0,2.0,06-20,1.606666088104247
05-22,2.4599990844726634,1.9200019836425781,-1.0800018310546946,1.8400001525878906,-0.01000213623046875,0.15000152587890625,0.30999755859375,1.55999755859375,3.910003662109375,0.29000091552734375,6.260002136230469,1.8100051879882812,10.0,2.0,06-21,1.6183338165283203
05-23,1.3600025177002024,1.9500007629394531,-0.9099998474121236,1.19000244140625,-0.09000015258788352,0.0800018310546875,1.29999542236326,2.8300018310546875,3.6999969482421875,0.5500030517578125,6.450004577636719,-2.5600051879882812,9.0,3.0,06-22,1.3208336830139142
05-24,1.2800006866455078,1.529998779296875,-0.17000198364258523,1.1800003051757741,0.37999725341796164,0.7300033569335938,1.3199996948242116,1.3000030517578125,3.6100006103515625,0.6100006103515625,6.480003356933594,-1.9500045776367045,10.0,2.0,06-23,1.3583334287007638
05-25,0.3900012969970703,0.7700004577636719,-0.9700012207031321,1.6300010681152344,-1.1500015258789134,0.6800003051757812,1.529998779296868,1.9599990844726562,2.8499984741210938,0.55999755859375,6.909996032714858,-2.0,9.0,3.0,06-24,1.0966658592224114
05-26,0.5799999237060547,0.020000457763671875,-0.8899993896484375,0.420001983642571,-1.44000244140625,0.44000244140625,1.2099990844726491,1.8799972534179688,2.6299972534179688,-0.20999908447267046,6.479995727539048,-2.1100006103515625,8.0,4.0,06-25,0.7508327166239385
05-27,1.5400009155273544,-1.3600006103515625,-1.1399993896484375,1.0100021362304759,-1.6399993896484446,0.0500030517578125,-0.03000640869142046,1.1699981689453125,2.279998779296875,-0.6800003051758097,5.879997253417969,-6.6100006103515625,6.0,6.0,06-26,0.03916613260904681
05-28,1.7900009155273544,-1.2700004577636719,-2.5800018310546804,0.0,-1.6100006103515696,0.43000030517578125,-0.04000091552734375,2.8799972534179688,2.2600021362304688,-1.129997253417983,8.159996032714858,-5.659996032714858,5.0,7.0,06-27,0.2691666285196937
05-29,1.2300014495849645,-0.6800003051757884,-2.7900009155273366,-0.12999725341796875,-1.3100013732910156,0.01999664306640625,0.6799964904785156,-0.5100021362304688,2.5999984741210938,-0.599998474121108,6.540000915527315,-5.449996948242202,5.0,7.0,06-28,-0.0333336194356327
05-30,0.7900009155273509,-0.31999969482421875,-2.3600006103515554,0.8600006103515554,-2.2800025939941406,-0.1999969482421733,0.37999725341799007,-2.660003662109375,1.8300018310546875,-1.8600006103515625,5.729995727539034,-3.8199996948242188,5.0,7.0,06-29,-0.3258339564005522
05-31,1.19000244140625,0.18000030517578125,-1.7800025939941264,0.060001373291015625,-1.7600021362304759,-0.19000244140625,0.5800018310547088,-1.5699996948242188,1.9199981689453125,-0.220001220703125,5.970001220703111,-3.6999969482421875,6.0,6.0,06-30,0.05666669209798295
06-01,1.6200027465820384,-0.8500022888183594,-0.07999801635742898,0.470001220703125,-1.4399986267089844,0.5100021362304688,-0.15999984741210227,-0.48999786376953125,0.6699981689453125,-0.6699981689453125,7.520004272460923,-2.1699981689453125,5.0,7.0,07-01,0.41083463033040307
06-02,0.9099998474121165,-2.029998779296875,0.06999969482421164,0.30999755859375,-1.6399993896484375,0.5100021362304688,-0.18000030517578125,-0.6299972534179688,0.5999984741210938,-1.1500015258789062,10.30999755859375,-0.089996337890625,6.0,6.0,07-02,0.582500139872233
06-03,0.9700012207031179,-1.970001220703125,0.8899993896484446,0.8299980163574148,-0.8999977111816406,1.290000915527358,-0.3699989318847656,-0.4799957275390625,0.6399993896484375,-0.48000335693360796,10.239997863769531,-1.2999954223632812,6.0,6.0,07-03,0.7800003687540684
06-04,0.9200019836425852,-0.6399993896484375,1.4900016784667969,0.8299980163574148,-0.6300010681152344,1.3400039672851562,-0.14999771118164062,-0.3699951171875,0.6399993896484375,-0.48000335693360796,8.549995422363281,-0.15999603271484375,6.0,6.0,07-04,0.9450006484985339
06-05,1.3300018310546875,-0.20000076293945312,1.7900009155273438,1.379997253417983,0.02000045776366477,0.9800033569335795,-0.5099983215332173,2.0400009155273438,1.0100021362304688,-0.3300018310546875,6.410003662109389,-1.4199981689453125,8.0,4.0,07-05,1.0416676203409825
06-06,1.3600006103515554,-0.40000152587889914,2.69000244140625,0.9499969482421946,-0.47999954223633523,0.40000152587890625,0.09999847412109375,2.0800018310546875,1.5999984741210938,0.07999420166014204,3.30999755859375,-1.0999984741210938,9.0,3.0,07-06,0.8824993769327788
06-07,0.9000015258789062,0.00999832153321023,2.2900009155273366,0.5900001525879048,-1.2000007629394531,-0.4900054931640767,0.04000091552734375,1.2300033569335938,1.5999984741210938,0.75,1.6200027465820312,1.3899993896484375,10.0,2.0,07-07,0.7274999618530273
06-08,0.40000152587890625,-0.6599998474121094,3.5699996948242188,0.12999725341798296,-1.30999755859375,-0.26000213623049717,0.09000015258789062,1.0199966430664062,2.0400009155273438,0.32999420166014204,2.6999969482421875,1.6800003051757955,9.0,3.0,07-08,0.8108323415120431
06-09,-0.45999908447265625,0.8899993896484304,3.079998016357422,0.7299995422363281,-0.5699996948242045,-0.8100051879882955,0.15000152587892046,0.9499969482421875,1.6399993896484375,0.720001220703125,1.3899993896484375,2.6800003051757812,9.0,3.0,07-09,0.8658326466878261
06-10,-0.9300003051757884,-0.09000015258789062,3.7699966430664134,-0.3100013732910156,-0.2899971008300781,-0.8899993896484375,-0.799999237060554,0.5400009155273438,1.8699951171875,0.26000213623046875,0.769996643066392,1.2900009155273438,6.0,6.0,07-10,0.43249956766764147
06-11,-1.6299972534179688,-0.6200027465820241,2.8899993896484375,-2.0499992370605398,0.9500007629394531,-0.2799987792968892,-1.340000152587912,1.7099990844726562,2.649993896484375,1.279998779296875,1.4899978637695312,8.680000305175781,7.0,5.0,07-11,1.1441659927368146
06-12,-1.6199989318847656,0.049999237060546875,2.759998321533203,-2.8999977111816406,2.0400009155273438,0.2200012207031108,-1.1400032043457102,3.0100021362304688,2.8600006103515625,1.9599990844726562,1.959999084472642,7.569999694824219,9.0,3.0,07-12,1.3975000381469698
06-13,-0.8700027465820384,0.23999786376953125,2.020000457763679,-2.740001678466804,0.7999992370605469,-0.09000396728517046,-0.8599967956542827,3.4199981689453125,1.9899978637695312,1.3600006103515625,2.8600006103515625,8.349998474121108,8.0,4.0,07-13,1.3733323415120449
06-14,-0.5800018310546875,0.09999847412109375,1.7900009155273438,-3.150001525878899,1.0499992370605469,0.6200027465820312,-0.5899963378906108,3.970001220703125,2.7300033569335938,0.8199996948242188,3.4900054931640625,9.539993286132827,9.0,3.0,07-14,1.6491670608520537
06-15,0.029998779296875,0.5900001525878906,2.6599998474121094,-3.0400009155273438,2.1800003051757812,0.7099990844726705,-0.00999450683592329,3.910003662109375,2.75,0.7600021362304688,3.8499984741210938,8.019996643066406,10.0,2.0,07-15,1.8675003051757837
06-16,0.3500022888183665,0.029998779296875,2.5800018310546875,-3.569999694824226,2.5100021362304616,0.9000015258789062,-0.9600028991699148,3.7300033569335938,3.0300064086914062,0.900001525878892,3.2400054931640625,8.919998168945327,10.0,2.0,07-16,1.8050015767415364
06-17,1.8600006103515554,0.18999862670898438,2.770000457763672,-2.779998779296882,2.6199989318847656,0.48999786376953125,-0.8699989318847727,3.8800048828125,1.8799972534179688,0.03000640869142046,2.75,10.989997863769531,10.0,2.0,07-17,1.9841670989990228
06-18,2.009998321533196,0.15999984741210938,1.8699989318847727,-2.9799995422363352,2.0900001525878906,0.2799987792968892,-1.3299980163574148,2.5699996948242188,2.6800003051757812,-1.5499954223632812,3.670005798339858,10.91000366210939,9.0,3.0,07-18,1.6983343760172562
06-19,2.0900001525878906,0.5600013732910156,2.0099983215332102,-2.6100006103515625,2.7800025939941335,-0.3300018310546733,-1.3500022888183665,2.2999954223632812,3.0400009155273438,0.3899993896484375,4.1199951171875,10.300003051757812,9.0,3.0,07-19,1.941665967305502
06-20,3.720001220703125,-0.26999664306640625,0.9799995422363281,-1.9300003051757741,4.0600013732910085,-0.2799987792968608,-1.1999969482421875,2.2900009155273438,2.8499984741210938,-0.01999664306639204,3.720001220703111,9.689994812011719,7.0,5.0,07-20,1.967500686645509
06-21,3.1199989318847727,-0.37999725341796164,2.240001678466797,-0.8199996948242045,4.350002288818345,-1.3600006103515483,-1.5699996948242188,1.94000244140625,3.089996337890625,1.5200042724609517,4.1500015258789205,11.849998474121108,8.0,4.0,07-21,2.344167391459153
06-22,3.799999237060547,1.2599983215332031,1.9799995422363281,-1.4099998474121094,5.0,-0.339996337890625,-1.5400009155273438,1.9900054931640625,3.2699966430664062,1.990005493164091,5.5800018310546875,11.739997863769545,9.0,3.0,07-22,2.7766672770182326
06-23,3.3899993896484375,1.6500015258789062,2.25,0.0,4.75,-0.9899978637695455,-2.0999984741210938,0.160003662109375,3.2899932861328125,4.150001525878906,4.620002746582031,10.739997863769545,9.0,3.0,07-23,2.6591669718424478
06-24,3.489997863769524,1.8600006103515696,2.4599990844726562,-0.5999984741210938,4.80999755859375,-2.270000457763672,-1.4499969482421875,3.5500030517578125,2.55999755859375,3.5999984741210938,4.3800048828125,12.559997558593764,9.0,3.0,07-24,2.912500063578289
06-25,2.770000457763672,1.5,2.1199989318847656,-0.9300003051757741,4.709999084472656,-2.720001220703125,-1.2799987792968892,5.340003967285156,2.3700027465820312,2.9599990844726562,3.4500045776367188,10.900001525878906,9.0,3.0,07-25,2.5991675059000645
06-26,2.3699989318847727,2.799999237060547,2.0,-1.8300018310546875,3.740001678466797,-2.6399993896484375,-1.480003356933608,5.8600006103515625,2.3199996948242188,2.0400009155273438,4.050003051757827,10.779998779296875,9.0,3.0,07-26,2.500833193461101
06-27,2.299999237060547,3.4599990844726562,1.6899986267089844,-1.3800010681152344,3.2900009155273438,-3.3400039672851562,-1.2800025939941406,5.349998474121094,2.3199996948242188,2.6300048828125,1.7399978637695455,9.190002441406236,9.0,3.0,07-27,2.1641661326090493
06-28,2.270000457763672,4.229999542236335,0.94000244140625,-1.1800003051757884,3.490001678466797,-3.220001220703125,-1.9900016784667969,4.6100006103515625,1.1299972534179688,2.0200042724609375,-1.0499954223632812,9.599998474121094,8.0,4.0,07-28,1.737500508626302
06-29,1.4599990844726562,5.1100006103515625,-0.5699996948242116,-1.7000007629394531,2.3899993896484375,-3.5100021362304688,-2.3600006103515696,3.0,1.5699996948242188,1.3500061035156392,-1.3499984741210938,10.599998474121094,7.0,5.0,07-29,1.3325001398722343
06-30,1.2000007629394531,5.420001983642578,-0.8699989318847585,-1.9699974060058594,1.9899978637695241,-4.100002288818359,-1.470001220703125,0.5900039672851562,1.1999969482421875,2.4800033569335938,0.2200012207031108,6.0699996948242045,8.0,4.0,07-30,0.8966671625773088
07-01,0.5099983215332173,5.620002746582024,-1.7700004577636648,-1.129997253417983,2.5400009155273438,-4.8800010681152415,2.500000000000014,0.5500030517578125,0.9199981689453125,9.310005187988281,0.6700057983398295,6.3299942016601705,9.0,3.0,07-31,1.764167467753093
07-02,0.9699974060058665,5.210002899169915,-1.9199981689453125,-1.299999237060554,2.5900001525878906,-4.629997253417969,2.559997558593764,0.6599960327148438,-4.7700042724609375,8.910003662109375,0.26999664306642046,3.839996337890639,8.0,4.0,08-01,1.032499313354495
07-03,1.4699974060058665,5.650001525878906,-2.1100006103515625,-2.520000457763679,2.5099983215332102,-4.860000610351548,2.5099983215332173,-0.5400009155273438,-6.150001525878906,8.440002441406264,-4.900001525878906,3.5499954223632812,6.0,6.0,08-02,0.25416564941406666
07-05,1.7699966430663991,6.1899986267089915,-3.240001678466797,-3.279998779296868,1.7700004577636648,-5.319999694824219,3.950000762939453,-2.1100006103515625,-5.040000915527344,7.8899993896484375,-3.5900039672851562,-0.06000518798828125,5.0,7.0,08-04,-0.08916791280110677
07-06,2.529998779296875,6.099998474121087,-4.569999694824219,-2.239997863769524,3.0099983215332102,-5.289997100830085,3.4399986267089986,-2.1199951171875,-5.05999755859375,8.349998474121094,-6.430000305175753,3.400001525878892,6.0,6.0,08-05,0.09333388010661044
07-07,3.329998016357422,5.090000152587891,-4.740001678466797,-1.1500015258789134,3.579998016357429,-5.039997100830085,3.6299972534179688,-1.8699951171875,-5.839996337890625,7.8800048828125,-5.970001220703111,3.470001220703139,6.0,6.0,08-06,0.19750054677327653
07-08,3.1399993896484375,4.55999755859375,-4.6100006103515625,0.3400001525878906,3.069999694824233,-5.269996643066399,5.369998931884773,-3.1699981689453125,-6.0500030517578125,9.0,-6.9099960327148295,5.430000305175781,7.0,5.0,08-07,0.4083334604899124
07-09,3.1200027465820384,4.369998931884766,-6.030002593994155,0.259998321533196,1.6700019836425852,-4.799999237060547,5.399997711181641,-3.4199981689453125,-5.94000244140625,9.110000610351562,-4.349998474121094,4.5999984741210795,7.0,5.0,08-08,0.3324998219807925
07-10,2.8300018310546875,4.560001373291016,-5.729999542236335,0.5799980163574148,1.4099998474121094,-4.740001678466797,5.129997253417969,-3.6100006103515625,-5.560005187988281,7.440002441406236,-1.9199981689453125,3.410003662109361,7.0,5.0,08-09,0.31666660308837535
07-11,1.7700004577636719,4.680000305175781,-8.210002899169929,0.6899986267089844,0.18000030517578125,-4.829998016357436,4.1100006103515625,-4.029998779296875,-5.430000305175781,7.279998779296875,-2.3599929809570312,4.230003356933594,7.0,5.0,08-10,-0.15999921162923356
07-12,2.0,4.680000305175781,-5.899997711181641,0.8699989318847656,-0.15000152587889914,-4.959999084472656,4.529998779296875,-4.430000305175781,-6.5,7.220001220703139,-1.75,5.819999694824219,6.0,6.0,08-11,0.11916669209798354
07-13,1.6800003051757812,2.4300003051757812,-7.840000152587891,0.07999801635742188,0.5800018310546875,-4.180000305175781,5.659996032714844,-4.010002136230469,-6.149993896484375,8.08999633789061,-0.04999542236326704,3.5699996948242188,7.0,5.0,08-12,-0.011666615804036459
07-14,2.1899986267089773,1.1899986267089915,-7.1100006103515625,0.19000244140625,0.3600006103515696,-4.380001068115234,5.240001678466804,-3.970001220703125,-6.9499969482421875,10.610000610351562,-1.839996337890625,0.43000030517575283,7.0,5.0,08-13,-0.33666610717773554
07-15,0.7099990844726562,1.2099990844726634,-7.25,0.25,0.460002899169929,-4.470001220703125,4.840000152587912,-3.6999969482421875,-8.279998779296875,9.08999633789061,-2.8799972534179688,0.18999481201171875,7.0,5.0,08-14,-0.8191668192545555
07-16,-0.030002593994140625,2.0399971008300852,-4.2800025939941335,0.3400001525878906,0.9199981689453125,-3.2399978637695455,4.479995727539077,-3.8100051879882812,-7.650001525878906,8.110000610351562,-1.94000244140625,0.849998474121108,6.0,6.0,08-15,-0.3508351643880185
07-17,0.5699996948242116,2.259998321533196,-3.8300018310546804,0.15000152587891336,0.9300003051757955,-1.9199981689453267,4.849998474121108,-4.3300018310546875,-6.879997253417969,7.340003967285156,-4.44000244140625,-1.3100051879882812,6.0,6.0,08-16,-0.5508337020874011
07-18,0.15000152587890625,2.1299972534179616,-3.2100028991699148,0.04999923706053977,0.47999954223633523,-2.94000244140625,5.069999694824233,-4.410003662109375,-6.989997863769531,6.7199935913085795,-5.2700042724609375,-0.7700042724609375,6.0,6.0,08-17,-0.7491687138875326
07-19,-0.3699989318847656,2.1499977111816406,-5.560001373291016,-0.34999847412109375,0.7299995422363352,-2.2600021362304545,5.910003662109375,-4.459999084472656,-6.5399932861328125,5.0099945068359375,-4.310005187988281,-0.8000030517578267,4.0,8.0,08-18,-0.9041671752929682
07-20,-1.0900001525878906,2.3800010681152344,-5.299999237060547,0.25,-0.4399986267089844,-2.100002288818345,6.1299972534179545,-4.510002136230469,-6.149993896484375,5.55999755859375,-4.8300018310546875,-1.0400009155273438,4.0,8.0,08-19,-0.928333600362142
07-21,-0.7099990844726491,2.30999755859375,-5.3899993896484375,0.8800010681152273,-0.34999847412109375,-1.7200012207031108,6.75,-4.150001525878906,-5.959999084472656,6.529998779296875,-2.910003662109375,-0.3000030517578267,4.0,8.0,08-20,-0.4183340072631836
07-22,-0.5099983215332031,0.5099983215332031,-5.270000457763672,0.8400001525878906,-0.3999977111816406,0.3999977111816406,6.1100006103515625,-4.6699981689453125,-7.3300018310546875,7.6200027465820455,-2.94000244140625,-0.8099975585937642,5.0,7.0,08-21,-0.537499745686849
07-23,-0.8699989318847656,-0.15000152587890625,-6.610000610351555,0.7900009155273366,-0.22999954223632812,0.0800018310546875,6.650001525878906,-3.1199951171875,-7.30999755859375,7.720001220703125,-5.630004882812528,-0.75,4.0,8.0,08-22,-0.7858327229817732
07-24,-0.8400001525878906,-1.5699996948242259,-6.069999694824219,1.6199989318847727,0.20000076293944602,-0.04000091552734375,7.3600006103515625,-3.1699981689453125,-7.970001220703125,8.540000915527344,-3.9599990844726562,-1.159996032714858,4.0,8.0,08-23,-0.5883328119913754
07-25,0.04000091552734375,-1.4099998474121165,-6.040000915527351,1.4900016784667969,0.5600013732910085,0.25,6.6899986267089915,-2.8499984741210938,-6.569999694824219,8.449996948242188,-3.589996337890625,-2.2999954223632955,6.0,6.0,08-24,-0.43999926249186433
07-26,0.3800010681152344,-1.8000030517578196,-4.729999542236335,1.029998779296868,0.9600028991699219,1.0200004577636719,6.229999542236335,-2.9600067138671875,-6.4499969482421875,7.1100006103515625,-5.1599960327148295,-2.0499954223632955,6.0,6.0,08-25,-0.5349995295206718
07-27,0.25,-2.329998016357422,-3.2000007629394602,0.18999862670899148,1.0999984741210938,0.7099990844726634,4.770000457763665,-2.1399993896484375,-6.3899993896484375,0.279998779296875,-4.400001525878892,-0.7399978637695312,6.0,6.0,08-26,-0.991666793823241
07-28,0.5200004577636719,-2.170001983642578,-2.970001220703125,0.04000091552734375,1.3499984741210938,0.8100013732910227,3.240001678466797,-1.7999954223632812,-0.6999969482421875,0.410003662109375,-4.680000305175753,0.07999420166015625,7.0,5.0,08-27,-0.48916625976562206
07-29,0.5499992370605327,-1.9200019836425781,-2.779998779296875,0.3400001525878906,1.5799980163574219,1.329998016357429,0.3600006103515483,-0.5999984741210938,0.15000152587890625,1.3000030517577983,-3.9500045776367188,-0.20999908447267046,7.0,5.0,08-28,-0.32083352406820076
07-30,0.18999862670897727,-2.0,-3.6399993896484375,0.029998779296875,0.3600006103515625,1.8899993896484375,-0.7900009155273438,0.7300033569335938,1.4599990844726562,2.0400009155273438,-2.309997558593764,0.6899948120117188,8.0,4.0,08-29,-0.11250019073486506
07-31,0.25,-2.579998016357429,-2.5,0.970001220703125,0.42000198364258523,2.9000015258789062,-1.0800018310546875,1.1300048828125,0.9300003051757812,1.4599990844726562,0.8400039672851562,3.400001525878892,9.0,3.0,08-30,0.5116678873697905
08-01,-0.5900001525878906,-1.520000457763679,-0.8899993896484375,1.6999969482421804,-1.0999984741210866,2.8699989318847727,0.3800048828125,1.44000244140625,-0.5100021362304688,2.2699966430664205,4.300003051757798,1.3899993896484233,7.0,5.0,08-31,0.8116668065388986
08-02,-0.9099998474121094,-2.5399971008300852,0.39000320434571023,2.3499984741210938,-1.6699981689453054,2.6199989318847727,0.43000030517576704,2.0800018310546875,0.720001220703125,1.719993591308608,3.8400039672851562,-0.5300064086914205,8.0,4.0,09-01,0.7083333333333334
08-03,-1.2999992370605469,-1.789997100830071,0.8800010681152344,0.8599967956542898,-1.1599998474121094,2.6399955749511648,0.08000183105467329,1.3600006103515625,0.720001220703125,0.599998474121108,4.779998779296875,-0.2700042724609375,8.0,4.0,09-02,0.616666158040364
08-04,-1.749999999999993,-0.8400001525878906,3.040000915527351,0.9399986267089844,-0.7600021362304759,2.7700004577636648,-2.1299972534179688,1.2000045776367188,0.6100006103515625,0.48999786376954546,4.610000610351548,0.8799972534179545,8.0,4.0,09-03,0.7550001144409167
08-05,-1.5600013732910156,-0.8900032043457031,2.7399978637695312,0.490001678466804,-1.1599998474121094,3.5699996948242116,-2.329994201660142,1.3900070190429688,0.23000335693359375,0.48999786376954546,5.1399993896484375,3.9000015258789205,8.0,4.0,09-04,1.0008341471354203
08-06,-1.1100006103515625,-1.0100021362304688,5.220001220703125,0.670001983642571,-1.1000022888183594,2.6499977111816406,-1.8899993896484233,1.8100051879882812,0.8700027465820312,0.5,-0.06999969482421875,4.599998474121108,7.0,5.0,09-05,0.9283336003621437
08-07,-1.3400001525878906,-1.0100021362304688,3.94000244140625,0.9500007629394531,-0.8800010681152273,2.589996337890625,-2.309997558593736,1.8000030517578125,1.1399993896484375,2.8299942016601562,0.2799987792968608,3.010002136230483,8.0,4.0,09-06,0.9166663487752297
08-08,-1.0200004577636719,-0.5600013732910156,2.7300033569335938,0.69000244140625,-1.720001220703118,1.80999755859375,-3.4399948120117045,2.9900054931640625,0.5100021362304688,5.220001220703125,-0.9300003051758097,5.260002136230483,7.0,5.0,09-07,0.9616680145263677
08-09,-0.8600006103515554,0.07999801635742188,0.06999969482422586,0.779998779296875,-1.5,2.579998016357422,-2.5400009155273438,3.4799957275390625,0.3699951171875,4.279998779296875,0.8600006103515483,2.1699981689453125,9.0,3.0,09-08,0.8141651153564453
08-10,-0.700000762939446,0.40000152587890625,3.0999984741210938,0.720001220703125,-1.7299995422363352,3.039997100830078,-2.6500015258789205,4.069999694824219,1.339996337890625,5.800003051757827,1.159996032714858,1.720001220703125,9.0,3.0,09-09,1.3558327356974296
08-11,-0.5699996948242259,2.0,1.1599998474121094,0.8199996948242188,-1.710002899169929,2.549999237060547,-1.1600036621093892,4.19000244140625,0.7099990844726562,7.5499954223632955,0.8399963378906108,-0.6800003051757528,8.0,4.0,09-10,1.308332125345866
08-12,-0.5400009155273509,1.8899993896484446,0.7099990844726562,1.5100021362304688,-1.069999694824233,1.5300025939941335,-1.0,4.709999084472656,0.6999969482421875,6.5,-0.94000244140625,-0.1999969482421875,7.0,5.0,09-11,1.1499999364217104
08-13,-0.8000030517578196,2.020000457763679,0.43000030517578125,1.1300010681152344,-0.8599967956542969,0.43000030517578125,-1.25,3.7099990844726562,0.9099960327148438,7.159996032714858,-2.1100006103515625,-0.6299972534179688,7.0,5.0,09-12,0.8449996312459321
08-14,-0.28000259399414773,2.1100006103515554,-0.339996337890625,1.2199974060058452,-0.8000030517578196,0.40000152587890625,-2.090003967285142,1.9599990844726562,2.2099990844726562,6.5399932861328125,-0.45999908447267046,-0.5999984741210795,6.0,6.0,09-13,0.8224989573160789
08-15,0.5400009155273438,2.1399993896484304,-0.5399971008300852,0.9199981689453196,0.30999755859375,0.24000167846679688,-3.1799926757812216,3.0100021362304688,2.4499969482421875,8.050003051757812,0.29999542236326704,-1.0599975585937642,9.0,3.0,09-14,1.0983339945475254
08-16,0.75,2.8100013732910085,0.5200004577636719,0.6199989318847727,0.21999740600585938,0.1100006103515625,-2.6899948120117188,2.3799972534179688,0.9499969482421875,7.720001220703125,-1.6200027465820455,0.1100006103515625,10.0,2.0,09-15,0.9899997711181628
08-17,1.1700019836425781,2.3199996948242188,1.4599990844726562,0.6599998474121094,-0.09000015258789773,-0.9799995422363281,-3.3699951171875,1.5800018310546875,2.3700027465820312,6.6299972534179545,-2.1699981689453267,0.8300018310546875,8.0,4.0,09-16,0.8675009409586559
08-18,1.9099998474121023,3.1700019836425852,3.1100006103515554,1.5699996948242188,-0.23000335693359375,-0.9200019836425781,-1.4199981689452983,0.5400009155273438,2.3499984741210938,7.959999084472656,-1.8199996948242188,0.45000457763673296,8.0,4.0,09-17,1.3891668319702166
08-19,1.8899993896484375,3.819999694824226,2.5699996948242188,1.8899993896484375,1.0799980163574219,-1.5399971008300781,-0.06999969482421875,0.5900039672851562,3.3800048828125,9.110000610351562,-3.7399978637695312,0.07999420166017046,9.0,3.0,09-18,1.588333765665692
08-20,1.8199996948242188,3.6599998474121165,2.960002899169922,1.8300018310546804,0.1699981689453125,-2.259998321533203,0.970001220703125,0.8000030517578125,3.220001220703125,8.440002441406236,-1.8699951171874716,0.21999359130860796,10.0,2.0,09-19,1.6633342107137068
08-21,1.4799995422363281,3.9800033569335866,2.540000915527351,1.729999542236321,1.319999694824233,-2.4399986267089844,1.4300003051757812,0.5,3.9500045776367188,8.299995422363281,-1.0299987792968892,-0.03000640869139204,9.0,3.0,09-20,1.8108332951863613
08-22,1.4399986267089773,3.6000022888183594,1.8300018310546946,1.5699996948242188,0.6300010681152415,-2.129997253417976,2.2699966430664205,1.5100021362304688,3.4399948120117188,7.949996948242173,-2.2399978637695455,-3.1500015258789062,9.0,3.0,09-21,1.3933331171671537
08-23,1.2000007629394531,3.6200027465820312,0.29999923706053977,1.8899993896484375,0.3800010681152415,-2.1200027465820384,1.0,1.3800048828125,4.510002136230469,8.21999359130858,-1.9599990844726847,-4.069999694824219,9.0,3.0,09-22,1.1958335240681925
08-24,1.4500007629394531,3.6999969482421804,-1.5900001525878906,1.5900001525878906,0.04000091552734375,-2.5600013732910227,1.4799957275390767,0.839996337890625,5.040000915527344,7.329994201660156,-3.1399993896484233,-5.660003662109361,8.0,4.0,09-23,0.709998448689781
08-25,1.6099967956542969,3.3800010681152344,-0.6800003051757812,2.170001983642578,0.17000198364257812,-2.520000457763679,1.1999969482421875,0.34999847412109375,3.7300033569335938,5.949996948242173,-2.9399948120117188,-3.799995422363267,8.0,4.0,09-24,0.7183338801066075
08-26,2.190002441406257,3.5,-1.8199996948242188,2.1599998474121094,0.3300018310546804,-3.020000457763679,-0.029998779296875,-0.0500030517578125,4.290000915527344,5.779998779296875,-2.8899993896484233,-6.459999084472656,6.0,6.0,09-25,0.3316669464111334
08-27,2.270000457763672,2.44000244140625,-4.310001373291016,2.140003204345696,1.6599998474121094,-3.0,-0.980003356933608,0.6800003051757812,3.8600006103515625,5.839996337890611,-2.989997863769517,-7.910003662109361,7.0,5.0,09-26,-0.025000254313151633
08-28,2.5900001525878906,3.1499977111816406,-3.9599990844726634,1.0100021362304688,1.4499969482421804,-3.019996643066392,-1.029998779296875,0.01000213623046875,4.900001525878906,4.8700027465820455,-2.739997863769517,-5.989997863769517,7.0,5.0,09-27,0.10333442687988637
08-29,2.4300003051757812,3.8400001525878906,-3.1000022888183594,0.8900032043457102,1.0499992370605469,-3.150001525878892,-1.7600021362304545,-0.720001220703125,4.75,3.900001525878892,-2.5699996948241903,-6.1299972534179545,6.0,6.0,09-28,-0.04749997456867957
08-30,1.999999999999993,3.609996795654297,-2.69000244140625,1.3400001525878906,1.4499969482421804,-3.700000762939453,-1.8300018310546733,-0.9500045776367188,3.5699996948242188,3.900001525878892,-3.0999984741210795,-6.290000915527344,6.0,6.0,09-29,-0.2241678237915039
08-31,2.9699974060058594,3.779998779296875,-4.829998016357429,1.1599998474121236,2.200000762939446,-3.1599998474121165,-3.2099990844726705,0.6299972534179688,2.9300003051757812,3.8899993896484375,-0.7300033569335938,-6.029998779296875,7.0,5.0,09-30,-0.03333377838134943
09-01,3.2400016784667827,2.8000030517578196,-3.549999237060554,0.6199989318847727,1.2800025939941264,-2.7900009155273438,-0.8600006103515625,0.6399993896484375,2.660003662109375,1.9599990844726705,-0.9800033569335938,-6.8799972534179545,7.0,5.0,10-01,-0.154999415079752
09-02,3.3800010681152344,2.3500022888183665,-2.3400001525878977,0.7099990844726562,1.7600021362304545,-3.8400001525878906,-0.5200042724609517,-0.5500030517578125,3.8300018310546875,1.3600006103515625,-1.2000045776367045,-9.060005187988281,6.0,6.0,10-02,-0.34333419799804804
09-03,3.220001220703118,1.710002899169929,-1.0900001525878906,0.7400016784667969,2.720001220703118,-4.909999847412109,-1.4199981689453125,-2.25,3.05999755859375,1.3899993896484517,-1.9800033569335938,-5.970001220703111,6.0,6.0,10-03,-0.39833323160807116
09-04,3.0600013732910085,2.089996337890625,-2.8900032043457102,0.8699989318847727,1.6599998474121094,-5.479999542236328,-1.3099975585937358,-2.0499954223632812,4.629997253417969,1.7700042724609517,-6.590003967285142,-5.520004272460923,6.0,6.0,10-04,-0.8133338292439737
09-05,1.4699974060058665,1.6999969482421946,-4.770000457763679,1.4199981689453196,1.7899971008300852,-5.939998626708984,-0.7799987792968608,-2.0999984741210938,5.180000305175781,-0.18000030517578125,-5.849998474121108,-2.3600006103515625,5.0,7.0,10-05,-0.8683338165283185
09-06,1.1699981689453267,1.80999755859375,-2.9099998474121165,1.2299995422363352,1.770000457763679,-5.379997253417969,-0.03999328613278408,-3.3600006103515625,5.290000915527344,-0.9499969482422017,-5.529998779296861,-3.2099990844726705,5.0,7.0,10-06,-0.8424990971883108
09-07,1.7599983215332102,2.8599967956542898,-2.8499984741210938,0.5399971008300852,0.579998016357429,-4.599998474121094,0.39000701904299717,-4.180000305175781,4.529998779296875,0.09999847412109375,-4.110000610351577,-1.509994506835966,7.0,5.0,10-07,-0.5408331553141276
09-08,1.8800010681152415,2.5400009155273366,-3.1899986267089844,1.2000007629394602,0.9799995422363281,-4.479999542236328,-0.3399963378906108,-3.0999984741210938,4.319999694824219,-1.4700012207031392,-1.7699966430664062,-1.5,5.0,7.0,10-08,-0.4108324050903314
09-09,1.9000015258789134,2.4300003051757812,-2.420001983642578,1.4599990844726562,1.109996795654304,-4.930000305175774,0.900001525878892,-1.3499984741210938,3.0199966430664062,-1.3899993896484517,-2.5400009155273295,-2.9099960327148438,6.0,6.0,10-09,-0.39333343505859314
09-10,1.7999992370605469,2.4000015258789062,-1.4000015258788991,1.2999992370605469,0.6099967956542969,-3.6200027465820312,1.769996643066392,-1.8700027465820312,3.4599990844726562,-0.8899993896484517,-4.3300018310546875,-2.209999084472642,6.0,6.0,10-10,-0.2483345667521165
09-11,1.5900001525878906,1.4799995422363281,-1.9300003051757741,0.490001678466804,0.26000213623046875,-3.8700027465820312,1.2799987792968892,-2.8700027465820312,3.339996337890625,-2.7999954223632812,-2.149993896484361,-3.3799972534179688,6.0,6.0,10-11,-0.7133328119913701
09-12,1.4399986267089844,1.759998321533196,-0.6399993896484304,-0.09000015258790484,0.6199989318847727,-2.7800025939941406,2.909996032714858,-2.5600051879882812,3.2700042724609375,-6.970001220703125,-1.5699996948242045,-2.5600051879882812,5.0,7.0,10-12,-0.5975014368693016
09-13,2.079998016357422,2.0600013732910156,-0.8199996948242188,-0.9500007629394602,0.7600021362304688,-4.19999694824218,3.540000915527358,-2.470001220703125,3.8600006103515625,-8.400001525878906,-1.9199981689453125,-2.2700042724609233,5.0,7.0,10-13,-0.727499961853025
09-14,2.049999237060547,1.729999542236321,-0.5200004577636719,-1.270000457763679,0.6100006103515625,-5.259998321533203,3.849998474121108,-1.7099990844726562,3.4899978637695312,-9.550003051757812,-0.17000579833982954,-1.0400009155273438,5.0,7.0,10-14,-0.6491676966349272
09-15,1.2400016784667969,1.3499984741210866,-0.9400024414062429,-1.1300010681152273,1.1300010681152344,-6.579998016357422,1.75,-2.2399978637695312,3.6500015258789062,-9.73000335693358,-0.15000152587890625,-0.7700042724609233,5.0,7.0,10-15,-1.035000483194984
09-16,1.779998779296875,1.4199981689453196,-0.5200004577636719,-1.170001983642571,1.5999984741210938,-6.200000762939453,0.6299972534179688,-1.9399948120117188,3.0499954223632812,-9.650001525878892,-0.6300048828125,-1.3299942016601705,5.0,7.0,10-16,-1.08000087738037
09-17,1.9500007629394602,1.7999992370605469,-0.279998779296875,-0.950000762939446,1.7300033569335938,-4.850002288818359,1.25,-3.0200042724609375,3.399993896484375,-9.150001525878892,-1.8300018310547017,0.48000335693357954,6.0,6.0,10-17,-0.7891674041748047
09-18,2.1899986267089844,1.7000007629394531,0.11999893188476562,0.01000213623046875,1.430000305175767,-4.959999084472656,2.5199966430664205,-2.5800018310546875,3.5,-5.989997863769531,-2.8300018310546733,1.400001525878892,8.0,4.0,10-18,-0.2908334732055664
09-19,0.75,1.4699974060058594,-1.0200004577636719,0.5900001525878906,1.5400009155273366,-4.520000457763672,2.0600051879882812,-2.410003662109375,3.4200057983398438,-6.110000610351548,-2.3799972534179688,2.8899993896484233,7.0,5.0,10-19,-0.3099994659423834
09-20,0.5400009155273438,1.5400009155273438,0.4399986267089915,0.31999969482421875,1.4099998474121023,-3.549999237060554,2.209999084472642,-2.3300018310546875,2.4799957275390625,-5.470001220703111,-2.5800018310546733,2.900001525878892,8.0,4.0,10-20,-0.17416731516520242
09-21,0.579998016357429,1.69000244140625,0.8299980163574219,0.3300018310546875,2.349998474121101,-2.5,2.3600006103515625,-1.9399948120117188,2.4499969482421875,-5.3000030517578125,-1.5499954223632955,1.7000045776367045,8.0,4.0,10-21,0.08333396911620976
09-22,-0.029998779296875,2.9399986267089844,1.7099990844726562,0.09000015258789773,2.789997100830078,-1.1599998474121094,3.75,-2.9799957275390625,2.8799972534179688,-6.110000610351548,-0.31999969482421875,2.6299972534179688,7.0,5.0,10-22,0.5158329010009783
09-23,-0.7400016784667898,3.25,1.359996795654304,-0.3100013732910085,3.1499977111816477,0.31000137329102273,3.19000244140625,-2.30999755859375,1.8799972534179688,-6.059997558593736,-0.1999969482421875,5.5999984741210795,7.0,5.0,10-23,0.7599999109904001
09-24,-0.1900024414062429,2.55999755859375,0.94000244140625,-0.06999969482421164,3.829998016357422,-0.4099998474121094,4.270004272460923,-2.089996337890625,2.4399948120117188,-6.4099960327148295,-1.849998474121108,5.479995727539034,6.0,6.0,10-24,0.7083333333333309
09-25,0.23999786376954546,0.40000152587890625,1.4800033569335938,-0.2800025939941406,3.0900001525878906,-0.25,4.340003967285142,-0.899993896484375,2.2699966430664062,-5.080001831054702,-1.75,5.639999389648423,7.0,5.0,10-25,0.7666670481363909
09-26,-0.18000030517578125,0.4500007629394531,2.5700035095214844,-0.39000320434571023,2.779998779296875,-0.7900009155273366,7.139999389648452,-1.05999755859375,2.3700027465820312,-8.519996643066406,-1.549995422363267,5.949996948242202,6.0,6.0,10-26,0.7308340072631871
09-27,-0.3899993896484375,0.6500015258789062,0.729999542236321,-0.20000076293946023,3.6999969482421946,0.029998779296882105,7.250000000000014,-0.7399978637695312,1.9499969482421875,-8.259994506835938,-1.299995422363267,5.989997863769531,7.0,5.0,10-27,0.7841669718424503
09-28,-0.43000030517578125,-0.29000091552734375,3.299999237060554,-0.29000091552734375,3.4300003051757955,0.1699981689453125,7.1500015258789205,-2.3400039672851562,1.4099960327148438,-7.6599960327148295,-1.1100006103515767,5.099998474121094,6.0,6.0,10-28,0.7033325831095407
09-29,-1.1100006103515554,-0.39000320434571023,2.479999542236321,-0.3200035095214844,4.149997711181662,-1.3800010681152273,6.0099945068359375,-0.94000244140625,2.1800003051757812,-6.4799957275390625,-0.5699996948242472,3.029998779296861,5.0,7.0,10-29,0.5549987157185855
09-30,-1.9300003051757812,-0.5,4.280002593994141,-0.3200035095214844,4.039997100830085,0.5499992370605469,5.8899993896484375,-1.1400070190429688,1.0600051879882812,-7.409996032714844,-0.25,-0.8600006103515767,5.0,7.0,10-30,0.2841663360595697
10-01,-0.9899978637695312,-0.1100006103515696,6.479999542236328,-0.44000244140625,2.920001983642578,1.770000457763679,4.6100006103515625,-1.0800018310546875,0.0500030517578125,-7.609992980957031,0.8400039672851705,-1.3600006103515767,6.0,6.0,10-31,0.42333443959554035
10-02,-0.6899986267089915,-0.15999984741210938,6.3400001525878835,-0.21999740600587359,3.2800025939941406,1.6999969482421946,3.869995117187486,-4.340003967285156,-1.4199981689453125,-6.779998779296861,3.9000015258789062,-0.5100021362304688,5.0,7.0,11-01,0.4141664505004865
10-03,-0.9699974060058594,-0.5099983215332102,5.180000305175788,-0.75,3.8300018310546946,0.9199981689453196,3.929992675781236,-5.9199981689453125,-1.3600006103515625,-6.040000915527344,4.260002136230483,-1.6100006103515625,5.0,7.0,11-02,0.07999992370605587
10-04,-1.3999977111816406,-0.5799980163574219,1.5499992370605469,-1.0300025939941406,3.4300003051757955,1.4799995422363281,5.149993896484361,-5.4799957275390625,-0.7299957275390625,-5.129997253417969,1.9199981689453125,-0.4600067138671733,5.0,7.0,11-03,-0.10666688283284387
10-05,-1.779998779296875,-1.529998779296868,1.5800018310546875,-1.2900009155273366,3.900005340576186,2.0100021362304688,7.309997558593736,-5.19000244140625,-0.7299957275390625,-5.209999084472656,1.590003967285142,3.6399993896484375,6.0,6.0,11-04,0.3583345413208008
10-06,-1.6300010681152344,-1.3499984741210866,0.7600021362304688,0.7200012207031179,3.6300010681152344,1.5,7.0800018310546875,-5.720001220703125,-1.1699981689453125,-4.489997863769531,-5.7699966430664205,5.0,6.0,6.0,11-05,-0.1199989318847668
10-07,-2.049999237060547,-1.0999984741210866,1.2900009155273438,-2.9199981689453125,3.8200035095214844,3.3600006103515696,4.5500030517578125,-4.720001220703125,-1.8600006103515625,-3.869995117187514,-7.889999389648452,4.0699996948242045,5.0,7.0,11-06,-0.609998703002932
10-08,-2.3199996948242188,-1.3799972534179545,1.6199989318847656,-2.740001678466797,3.6800003051757884,3.720001220703125,3.600006103515625,-5.079994201660156,-1.5199966430664062,-5.790000915527358,-6.1199951171875,2.530006408691392,5.0,7.0,11-07,-0.8166643778483079
10-09,-2.9599990844726562,-0.5200004577636648,1.5199966430664062,-1.5200004577636719,4.600002288818359,5.079998016357415,2.970001220703125,-4.5399932861328125,-2.6100006103515625,-1.6200027465820312,-6.990005493164077,2.240005493164034,5.0,7.0,11-08,-0.36249987284342805
10-10,-2.2900009155273438,-0.3200035095214844,1.2699966430664062,-2.2700004577636648,3.44000244140625,6.1399993896484375,2.8799972534179688,-1.6199951171875,-2.75,2.69000244140625,-6.819999694824247,4.870002746582031,6.0,6.0,11-09,0.43500010172525866
10-11,-2.5100021362304688,-0.40000152587890625,0.7299995422363281,-2.3500022888183594,2.920001983642578,7.619998931884766,2.69000244140625,0.6699981689453125,-2.6299972534179688,3.5400009155273438,-6.8400039672851705,5.55999755859375,7.0,5.0,11-10,0.7499993642171212
10-12,-1.920001983642571,-0.3999977111816335,-1.529998779296875,-2.3100013732910156,1.4900016784667969,8.58999633789061,1.8799972534179688,-0.5500030517578125,-2.7599945068359375,3.4599990844726562,-6.4499969482421875,5.129997253417969,5.0,7.0,11-11,0.3858331044514974
10-13,-2.0900001525878906,-0.22999954223632812,-1.0600013732910156,-3.1800003051757812,2.3300018310546875,9.370002746582031,2.8799972534179545,-0.4799957275390625,-3.1099929809570312,2.9799957275390483,-6.849998474121094,10.050003051757798,5.0,7.0,11-12,0.8841676712036097
10-14,-2.9300003051757812,-0.15000152587890625,-1.4599990844726562,-3.4300003051757812,2.8000030517577983,8.870002746582031,3.3899993896484375,-0.9199981689453125,-4.180000305175781,2.1399993896484375,-7.269996643066406,11.169998168945327,5.0,7.0,11-13,0.6691672007242838
10-15,-1.7400016784667969,0.0800018310546875,0.0,-3.5600013732910156,3.159999847412095,8.529998779296875,3.3699951171875,-4.769996643066406,-4.029998779296875,-0.3800048828125,-6.959999084472656,11.270004272460938,5.0,7.0,11-14,0.4141664505004871
10-16,-1.5300025939941406,-0.21000289916991477,1.0999984741210938,-4.959999084472663,3.4399948120117116,7.519996643066413,3.220001220703139,-4.349998474121094,-3.350006103515625,-3.220001220703139,-5.8499984741210795,11.260002136230469,5.0,7.0,11-15,0.2558320363362642
10-17,-1.9300003051757884,-0.8200035095214844,0.6800003051757812,-6.959999084472656,2.339996337890611,6.469997406005859,0.8100051879882812,-2.6899948120117188,-3.3700027465820312,-2.9399948120117188,-6.930000305175753,12.459999084472656,5.0,7.0,11-16,-0.23999977111816348
10-18,-1.529998779296882,-0.8000030517578054,0.020000457763671875,-6.700000762939453,1.8999977111816335,4.909996032714844,1.529998779296875,-3.0100021362304688,-3.1199951171875,-2.1899948120117188,-8.15999603271483,12.459999084472656,5.0,7.0,11-17,-0.3908332188924148
10-19,-0.8199996948242259,-1.0900001525878835,0.8700027465820241,-6.299999237060547,1.3699989318847656,4.790000915527344,2.1100006103515625,-2.910003662109375,-3.1599960327148438,-2.2399978637695312,-7.430000305175781,12.459999084472656,5.0,7.0,11-18,-0.1958328882853196
10-20,-0.15999984741210938,-2.0400009155273438,0.43000030517577414,-6.780002593994141,1.3900032043457031,5.440002441406264,1.4800033569335938,-2.4000015258789062,-3.7199935913085938,0.8199996948242188,-7.94000244140625,10.650001525878906,6.0,6.0,11-19,-0.23583253224690695
10-21,-0.02000045776367898,0.34999847412109375,-0.1100006103515696,-6.39000320434571,1.2299995422363423,3.7399978637695312,3.55999755859375,-3.5900039672851562,-2.9199981689453125,2.30999755859375,-7.560005187988281,9.870002746582045,6.0,6.0,11-20,0.03916517893473367
10-22,-0.5699996948242188,0.2999992370605469,-1.8700027465820312,-5.64000320434571,0.15000152587890625,4.240001678466797,2.1399993896484375,-3.4199981689453125,-3.3799972534179688,1.2099990844726562,-6.160003662109375,9.300003051757798,6.0,6.0,11-21,-0.30833339691162287
10-23,-0.3600006103515625,0.2200012207031321,-1.5500030517578054,-4.770000457763679,0.5400009155273438,3.0500030517578054,2.029998779296875,-3.3499984741210938,-3.55999755859375,1.5,-6.670005798339844,9.260002136230469,6.0,6.0,11-22,-0.30499998728434247
10-24,-0.5099983215332031,0.3300018310546875,-2.1300010681152344,-4.44999694824218,0.32999801635741477,2.910003662109375,2.3799972534179688,-2.7600021362304688,-3.6500015258789062,4.229995727539077,-6.639999389648423,10.150001525878906,6.0,6.0,11-23,0.015833218892417733
10-25,-0.5799980163574219,0.7700004577636719,-0.8999977111816406,-4.329998016357415,-0.3899993896484517,4.380001068115227,2.9899978637695312,-2.7600021362304688,-1.9499969482421875,3.0199966430664205,-7.180000305175753,10.150001525878906,5.0,7.0,11-24,0.2683337529500349
10-26,-0.23999786376953125,0.8800010681152344,-1.1199989318847656,-4.680000305175767,-0.06999969482420454,4.729999542236335,2.5499954223632812,-0.779998779296875,-2.4000015258789062,3.9499969482422017,-6.899993896484403,10.150001525878906,5.0,7.0,11-25,0.5058336257934588
10-27,0.4099998474121094,0.2800025939941406,-1.4399986267089844,-4.329998016357429,0.029998779296875,4.969997406005838,2.9000015258789062,-0.7900009155273438,-1.3899993896484375,3.339996337890625,-8.079994201660156,11.959999084472656,7.0,5.0,11-26,0.6550003687540666
10-28,1.0799980163574219,0.220001220703125,-1.2999992370605398,-3.6599998474121094,0.06999969482421875,4.089996337890611,2.4300003051757812,2.470001220703125,-0.6100006103515625,3.7399978637695312,-7.25,15.270004272460938,8.0,4.0,11-27,1.3791666030883782
10-29,0.7699966430664062,0.5699996948242259,-1.0500030517578196,-3.4899978637695384,0.2299957275390625,4.23999786376951,1.94000244140625,4.6100006103515625,-0.20999908447265625,3.529998779296861,-7.560005187988281,14.669998168945327,8.0,4.0,11-28,1.5208320617675757
10-30,1.1999969482421875,1.6599998474121165,-1.460002899169929,-3.9699974060058594,0.8100013732910085,3.559997558593736,0.720001220703125,4.629997253417969,0.279998779296875,0.9300003051757528,-6.690002441406236,13.520004272460938,9.0,3.0,11-29,1.2658329010009737
10-31,1.8899993896484375,1.5399971008300781,0.18999862670897727,-3.6999969482421946,0.20999908447264204,3.029994964599595,-0.8499984741210938,5.029998779296875,-0.15999603271484375,2.0699996948242188,-5.590003967285142,9.419998168945327,8.0,4.0,11-30,1.089999198913573
11-01,0.9799995422363281,1.0799980163574219,2.4199981689453196,-5.54999923706054,0.48000335693359375,3.5600013732910156,-0.7099990844726562,5.05999755859375,0.149993896484375,0.8499984741210938,1.7699966430664205,9.419998168945327,10.0,2.0,12-01,1.6258322397867875
11-02,1.1899986267089915,0.7599983215332031,3.549999237060547,-1.9099998474121094,0.8699951171875,3.520000457763672,-1.2399978637695312,2.2600021362304688,0.9599990844726562,0.2299957275390767,4.160003662109375,9.419998168945327,10.0,2.0,12-02,1.9808327356974313
11-03,1.1100006103515625,1.779998779296868,1.9300003051757812,-1.8999977111816406,0.839996337890625,3.36999893188478,0.20999908447265625,2.30999755859375,0.6199951171875,1.9700012207031392,3.450004577636733,8.050003051757798,11.0,1.0,12-03,1.9783331553141295
11-04,1.4500007629394602,0.6199989318847585,2.0300025939941406,-2.0,0.8899993896484233,3.0399971008300852,0.6999969482421875,1.7699966430664062,2.5600051879882812,2.1700057983398438,3.3400039672851705,8.559997558593764,11.0,1.0,12-04,2.0941670735677103
11-05,0.8100013732910227,0.4200019836425781,2.0700035095214844,-2.7199974060058594,0.43000030517577414,2.7900009155273438,0.48000335693359375,-0.25,1.75,2.1700057983398438,4.049995422363281,4.6999969482421875,10.0,2.0,12-05,1.3916676839192708
11-06,1.0300025939941477,1.1699981689453125,2.44000244140625,-3.079998016357422,-0.5600013732910085,2.6300010681152344,0.6699981689453125,0.01999664306640625,2.2099990844726562,0.3600006103515625,2.290000915527358,4.010002136230469,10.0,2.0,12-06,1.09916687011719
11-07,0.03000259399413352,1.8800010681152415,2.740001678466797,-1.6699981689453125,0.40000152587891336,1.6600036621093892,1.0100021362304688,-0.9500045776367188,3.279998779296875,-2.1699981689453267,2.3799972534179688,4.44000244140625,9.0,3.0,12-07,1.0858341852823898
11-08,0.5,1.1800003051757812,2.299999237060547,-1.0200004577636719,-0.43999862670897727,1.0199966430664062,1.9000015258789062,-1.9399948120117188,2.4399948120117188,-2.1899948120117188,2.779998779296875,4.44000244140625,8.0,4.0,12-08,0.9141670862833665
11-09,0.6100006103515554,0.9899978637695384,3.479999542236328,-0.7700004577636719,-0.6399993896484233,0.7099990844726562,1.7700042724609375,-1.6299972534179688,3.4099960327148438,-1.349998474121108,3.369995117187514,4.44000244140625,8.0,4.0,12-09,1.1991666158040377
11-10,0.7299995422363281,-0.1399993896484375,3.1599998474121094,-0.20999908447265625,-0.02999877929686079,0.32999420166015625,0.55999755859375,2.0500030517578125,3.2599945068359375,-0.1399993896484517,3.5,0.0,7.0,5.0,12-10,1.0891660054524739
11-11,0.75,0.0800018310546804,2.0600013732910156,-0.18999862670898438,-0.1300048828125,1.0,0.0200042724609375,1.6300048828125,2.7900009155273438,-2.0,4.049995422363267,0.0,8.0,4.0,12-11,0.8383337656656883
11-12,1.1100006103515625,0.69000244140625,1.6800003051757812,-0.1100006103515554,-0.12000274658200283,0.220001220703125,2.279998779296875,0.6899948120117188,2.3100051879882812,-2.6599960327148438,3.720001220703111,0.0,8.0,4.0,12-12,0.8175004323323586
11-13,0.7099990844726562,0.7200012207031179,2.549999237060547,0.5900001525878977,-1.8799972534179545,0.44000244140625,1.5600051879882812,1.2399978637695312,1.69000244140625,-3.709999084472642,2.9499969482421733,0.0,9.0,2.0,12-13,0.5716673533121757
11-14,-0.3999977111816406,1.0300025939941406,1.759998321533196,1.529998779296875,-1.7099990844726562,0.55999755859375,1.3300018310546875,1.0999984741210938,0.8199996948242188,-2.1500015258789062,2.0999984741210938,0.0,8.0,3.0,12-14,0.49749978383382104
11-15,-0.12999725341796875,0.8600006103515554,1.0699996948242188,1.7700004577636719,-1.7300033569335938,0.1999969482421733,0.7600021362304688,0.9900054931640625,1.2099990844726562,-4.8600006103515625,2.6100006103515625,0.0,8.0,3.0,12-15,0.2291669845581037
11-16,-0.1699981689453125,1.4699974060058594,0.6100006103515696,1.3800010681152415,-1.37999725341799,-0.8400039672851705,0.45000457763671875,-0.5199966430664062,0.5800018310546875,-6.349998474121094,3.8400039672851562,0.0,6.0,5.0,12-16,-0.07749875386556167
11-17,-0.25,1.3100013732910156,1.2800025939941406,0.26000213623047586,-1.079998016357436,-1.6200027465820455,1.089996337890625,-0.529998779296875,1.0400009155273438,-4.8600006103515625,3.6300048828125,0.0,6.0,5.0,12-17,0.022500673929848485
11-18,0.15000152587890625,1.1899986267089773,0.9600028991699148,-0.02000045776366477,-0.40999603271485796,-1.1699981689453125,0.01999664306640625,-0.5999984741210938,0.9000015258789062,-4.840003967285156,3.9800033569335938,0.0,6.0,5.0,12-18,0.013333956400551608
11-19,0.3400001525878906,1.0799980163574219,2.479999542236328,0.44000244140625,0.08000183105467329,0.43000030517578125,-0.23000335693359375,-1.279998779296875,1.5100021362304688,-6.540000915527344,2.8499984741210938,0.0,8.0,3.0,12-19,0.09666665395100793
11-20,0.4099998474121094,1.3899993896484375,3.729999542236328,0.5900001525878906,1.19000244140625,0.5100021362304688,-0.8400039672851562,-1.30999755859375,1.0999984741210938,-6.369995117187528,2.380004882812486,0.0,8.0,3.0,12-20,0.2316675186157191
11-21,-0.470001220703125,1.0900001525878906,2.55999755859375,1.1199989318847656,0.9800033569335795,0.1600036621093608,-1.589996337890625,-0.43999481201171875,0.04000091552734375,-7.910003662109375,1.7799987792968892,0.0,7.0,4.0,12-21,-0.223332722981772
11-22,-0.75,1.3299980163574219,4.35999679565429,0.450000762939446,0.8800048828125,1.2700042724609517,-2.7399978637695312,-1.5099945068359375,0.48000335693359375,-8.310005187988281,2.959999084472642,0.0,7.0,4.0,12-22,-0.13166586558024207
11-23,-0.490001678466804,1.9799995422363281,5.30000305175782,0.450000762939446,0.540000915527358,1.790000915527358,-2.1899948120117188,-2.69000244140625,0.0800018310546875,-8.310005187988281,2.3100051879882812,0.0,7.0,4.0,12-23,-0.10249932607014796
11-24,-0.20999908447265625,0.9599990844726491,5.710002899169929,0.3999977111816335,1.1200027465820312,1.75,-1.970001220703125,-2.7099990844726562,0.0800018310546875,-8.680000305175753,4.0100021362304545,0.0,7.0,4.0,12-24,0.038333892822266215
11-25,-0.5200004577636719,1.0800018310546875,5.710002899169929,0.3999977111816335,1.1200027465820312,1.8199996948242188,-2.5600051879882812,-2.7099990844726562,-0.40999603271484375,-8.680000305175753,4.0100021362304545,0.0,6.0,5.0,12-25,-0.061666170756020953
11-26,0.3899993896484375,1.0800018310546875,4.060001373291023,-0.030002593994140625,1.4799957275390767,2.1500015258789062,-2.7000045776367188,-3.1100006103515625,-0.9799957275390625,-10.139999389648438,2.8100051879882812,0.0,6.0,5.0,12-26,-0.41583315531412585
11-27,0.3899993896484375,2.0699996948242188,4.029998779296868,0.6800003051757741,1.44000244140625,2.19000244140625,-2.7000045776367188,-3.4500045776367188,-0.839996337890625,-12.60000610351561,1.9000015258789062,0.0,7.0,4.0,12-27,-0.5741672515869141
11-28,0.04999923706053977,1.9799995422363352,4.420001983642578,-0.04000091552734375,1.470001220703125,2.19000244140625,-1.0200042724609375,-2.8600006103515625,-1.5200042724609375,-12.260002136230469,2.6100006103515483,0.0,6.0,5.0,12-28,-0.41500059763590613
11-29,0.25,2.1800003051757812,3.900001525878899,-0.22999954223632812,1.470001220703125,2.459999084472642,-1.1800003051757812,-1.5100021362304688,-1.9399948120117188,-12.080001831054688,2.6100006103515483,0.0,6.0,5.0,12-29,-0.3391663233439157
11-30,0.27000045776366477,2.5,1.0999984741210938,-0.12999725341796875,1.819999694824233,2.7600021362304545,-0.7700042724609375,0.5400009155273438,-2.7900009155273438,-12.280006408691392,2.809997558593736,0.0,7.0,4.0,12-30,-0.3475008010864264
12-01,0.049999237060546875,1.1599998474121094,1.30999755859375,0.8199996948242188,1.75,3.279998779296861,-0.9300003051757812,-0.3600006103515625,-1.9799957275390625,-12.08999633789061,3.0099945068359233,0.0,7.0,4.0,12-31,-0.331666946411134
12-02,-0.1100006103515696,0.4900016784667969,0.9399986267089844,0.8199996948242188,1.75,3.029998779296861,0.1100006103515625,-0.6299972534179688,-2.4399948120117188,-12.08999633789061,3.0099945068359233,0.0,7.0,4.0,01-01,-0.4266662597656268
12-03,0.2999992370605469,-0.2200012207031321,0.6399993896484375,0.3899993896484375,3.319999694824233,1.6699981689453267,0.5800018310546875,0.34000396728515625,-1.30999755859375,-11.760002136230455,3.0500030517578267,0.0,8.0,3.0,01-02,-0.24999968210855705
12-04,-0.1699981689453196,0.31999969482421875,1.2400016784667969,0.6399993896484446,3.9999961853027273,1.5299987792968892,-0.30999755859375,0.31000518798828125,-1.779998779296875,-8.870002746582017,3.8400039672851705,0.0,7.0,4.0,01-03,0.06250063578288056
12-05,-0.31999969482421875,0.049999237060546875,0.9199981689453125,1.5099983215332031,3.7299957275390625,1.8399963378906392,-0.5999984741210938,0.06999969482421875,-1.9899978637695312,-11.449996948242173,3.6700057983398438,0.0,7.0,4.0,01-04,-0.2141666412353492
12-06,-0.8999977111816406,0.5999984741211009,1.5699996948242259,1.0799980163574219,3.1199951171875,0.959999084472642,-1.5699996948242188,-0.7800064086914062,-0.9799957275390625,-11.449996948242173,3.540000915527358,0.0,6.0,5.0,01-05,-0.40083376566568774
12-07,-0.3999977111816406,0.5400009155273366,1.7299995422363281,1.05999755859375,2.540000915527358,0.7700042724609233,-2.1399993896484375,0.75,-1.1899948120117188,-9.589996337890625,1.0500030517578267,0.0,7.0,4.0,01-06,-0.40666516621907495
12-08,-0.4799995422363281,1.200000762939446,2.529998779296875,1.170001983642571,2.260002136230497,-1.2799987792968608,-1.9300003051757812,0.03000640869140625,-0.7099990844726562,-10.020004272460938,1.4100036621093892,0.0,6.0,5.0,01-07,-0.4849990208943649
12-09,0.04000091552734375,1.1500015258788991,1.6599998474121094,1.8400001525878906,1.9100036621093892,-2.3500022888183594,-1.9000015258789062,-0.5199966430664062,-1.2699966430664062,-8.040000915527344,1.4200057983398438,0.0,6.0,5.0,01-08,-0.5049988428751622
12-10,0.4399986267089844,0.8400001525878764,2.010002136230476,1.420001983642571,2.529998779296861,-1.1100006103515483,-2.25,-1.1399993896484375,-0.3699951171875,-7.160003662109361,0.9700012207031392,0.0,6.0,5.0,01-09,-0.31833299001057824
12-11,0.1699981689453125,0.5800018310546946,1.9099998474121165,3.9799995422363352,5.0,-1.400001525878892,-1.6800003051757812,-1.1100006103515625,-0.0800018310546875,-5.150001525878906,0.6500015258789062,0.0,6.0,5.0,01-10,0.23916625976562797
12-12,0.20999908447265625,0.49000167846678977,1.8500022888183665,3.6100006103515625,4.809997558593757,-0.3600006103515483,-2.7900009155273438,-0.9300003051757812,-0.04000091552734375,-6.4499969482421875,-0.9599990844726562,0.0,5.0,6.0,01-11,-0.04666646321614406
12-13,0.23999786376953836,0.5499992370605398,2.2900009155273438,3.979999542236328,4.509998321533203,2.25,-2.6700057983398438,-1.5500030517578125,-1.0200042724609375,-6.839996337890625,-0.75,0.0,6.0,5.0,01-12,0.08249886830647786
12-14,0.2700004577636719,1.0600013732910156,2.80999755859375,4.260002136230469,3.3799972534179688,1.6100006103515483,-2.7300033569335938,-0.01000213623046875,-0.7000045776367188,-6.859992980957031,0.34000396728515625,0.0,7.0,4.0,01-13,0.28583335876464727
12-15,0.17000198364257812,1.5400009155273438,1.8699989318847656,3.5,3.6800003051757812,1.5100021362304688,-3.220001220703139,0.0800018310546875,-1.3100051879882812,-4.05999755859375,1.470001220703125,0.0,8.0,3.0,01-14,0.4358336130777983
12-16,0.1399993896484375,0.7900009155273438,0.6199989318847656,3.6599998474121165,2.7599945068359375,1.3499984741210938,-4.539993286132798,0.1100006103515625,-0.9000015258789062,-3.9099960327148438,1.879997253417983,0.0,8.0,3.0,01-15,0.16333325703939097
12-17,0.6800003051757812,1.0900001525878906,1.7900009155273438,3.849998474121101,3.779998779296889,-0.6600036621093608,-3.3499984741210795,-0.7600021362304688,-0.31999969482421875,-4.680000305175781,2.779998779296861,0.0,6.0,5.0,01-16,0.3499994277954131
12-18,0.9599990844726562,0.8500022888183594,1.460002899169929,3.989997863769524,2.9199981689453125,-2.0100021362304545,-2.1999969482421733,-0.470001220703125,-0.01000213623046875,-3.1300048828124716,3.6299972534179688,0.0,6.0,5.0,01-17,0.4991658528645881
12-19,0.7000007629394602,0.8300018310546875,1.470001220703125,3.5,3.220001220703111,-2.529998779296861,-2.749999999999986,-0.3000030517578125,-0.34000396728515625,-0.8799972534179688,3.4499969482421733,0.0,6.0,5.0,01-18,0.530833244323731
12-20,0.5900001525879048,1.1200027465820384,-0.509998321533196,3.3800010681152415,2.6399993896484375,-2.489997863769503,-2.910003662109375,-0.6400070190429688,0.5099945068359375,-0.3000030517578267,1.75,0.0,6.0,5.0,01-19,0.2616656621297242
12-21,0.050003051757819605,1.6399993896484375,-0.13000106811524148,3.8100013732910156,2.150001525878892,-3.3099975585937287,-3.5900039672851562,0.12000274658203125,1.0799942016601562,1.159996032714858,1.3399963378906108,0.0,8.0,3.0,01-20,0.35999933878580787
12-22,0.5900001525878906,0.7099990844726562,-0.09999847412108664,3.579998016357422,2.150001525878892,-2.6199951171875,-4.189994812011719,0.4600067138671875,0.9399948120117188,5.010002136230469,2.8499984741210795,0.0,8.0,3.0,01-21,0.7816677093505842
12-23,0.25,0.7999992370605398,-0.4900016784667969,4.049999237060547,1.3899993896484233,-3.2300033569335938,-5.629997253417969,-0.12999725341796875,1.8499984741210938,6.230003356933594,1.9499969482421733,0.0,7.0,4.0,01-22,0.5866664250691702
12-24,0.04999923706053977,0.5999984741210938,-0.15000152587889914,4.340000152587891,0.779998779296875,-3.220001220703139,-5.470001220703125,-1.4399948120117188,3.220001220703125,7.990005493164048,0.8999938964843608,0.0,7.0,4.0,01-23,0.6333332061767543
12-26,-0.31999969482421875,-0.060001373291015625,-0.9399986267089844,4.270000457763679,0.1999969482421875,-3.5200042724609517,-7.010002136230469,-1.720001220703125,2.2099990844726562,5.610000610351548,0.8499984741210938,0.0,5.0,6.0,01-25,-0.03583431243896662
12-27,-0.3299980163574219,0.5699996948242188,-1.0800018310546946,4.040000915527351,0.26999664306642046,-3.6699981689453125,-5.459999084472656,-0.6299972534179688,2.5799942016601562,5.009994506835909,0.6500015258789062,0.0,6.0,5.0,01-26,0.16249942779540896
12-28,-0.3299980163574219,0.3800010681152344,-0.13000106811523438,4.470001220703132,-1.2299957275390767,-4.619998931884766,-6.849998474121094,-0.29000091552734375,1.4499969482421875,4.680000305175753,1.6100006103515625,0.0,5.0,6.0,01-27,-0.07166608174642224
12-29,-0.3600006103515625,0.8400001525878906,-0.7300033569335938,4.379997253417962,-3.0499954223632812,-4.609996795654297,-3.5500030517578125,-0.26000213623046875,1.9199981689453125,3.059997558593736,1.3600006103515625,0.0,5.0,6.0,01-28,-0.08333396911621271
12-30,-0.1100006103515625,1.0,-0.4099998474121094,4.30999755859375,-4.12999725341799,-5.2099990844726705,-3.3700027465820312,-0.01999664306640625,2.4199981689453125,3.3199996948242188,0.7299957275390341,0.0,5.0,6.0,01-29,-0.12250041961670455
12-31,0.4699974060058594,1.2700004577636719,-0.12999725341798296,3.3199996948242116,-4.1399993896484375,-4.74999618530272,-2.4000015258789062,0.3000030517578125,2.1299972534179688,3.809997558593736,0.34999847412107954,0.0,7.0,4.0,01-30,0.01916662851969105
