,2009,2010,2011,2012,2013,2014,2015,2016,2017,2018,2019,2020,ups,downs,avg
01-02,-12.35884767182307,-0.8908784126780493,-0.6483947912348934,-0.28773778651119075,5.977636429490478,-5.950120907117661,-7.344180000136371,-1.9951941398648236,-0.3849309699201095,0.7754593297339135,7.942015977958558,1.9492859139558967,4.0,8.0,-1.1013239190122768
01-03,-11.545798661276706,-2.142057908782502,-0.12483886158832526,0.2670724809970881,5.6112607272728345,-5.508203646070294,-2.5396801176525523,1.124828090069553,-0.06851503566796775,0.26309280754568254,9.054719099102144,1.6387799602118474,6.0,6.0,-0.3307784221532664
01-04,-13.789747054130332,-1.9122617517290843,1.786812397664598,2.147929596963062,4.319324435217365,-3.566424152279913,-2.3609536513380256,0.31806905725960494,-0.3922111251715943,1.6128987214000245,7.033482496980291,2.136603607523902,7.0,5.0,-0.22220645180334195
01-05,-16.93897953476593,-0.33259125774622456,1.4403229839913152,2.969742483001655,4.521634138469159,-4.231976168067193,-1.6682366120878218,-0.4907437964367989,0.6356521574036699,0.5833842570556191,7.233661823710036,1.2639590143464694,7.0,5.0,-0.4178475425938369
01-06,-13.215703345580806,-2.083333333333333,2.325097302255413,3.1565229968386608,5.801261355261233,-8.270924751709286,-0.6932387241950377,2.6930979898970757,0.5950803717580749,-0.4145562247041282,7.634360492750783,2.7209099881752197,7.0,5.0,0.020714509784489115
01-07,-10.598922245313956,-2.083333333333333,2.5102828072216923,1.9128756366047086,5.765175970723933,-7.532587172093693,-1.676680699345877,4.634312124312299,-0.47729232971718283,-1.6316944600105032,7.91186945078061,3.45446207058969,6.0,6.0,0.1823723183681989
01-08,-13.324364344927464,-2.166663275824672,1.9834770018687289,3.1962599709769273,1.5794443927832906,-9.486356211536538,-4.571337130411222,4.4702723229665,0.1355360202976229,-4.581434181646758,7.470073290347943,3.94502538179822,7.0,5.0,-0.9458388969422847
01-09,-9.488565502441668,-4.87180334332692,2.386831036691909,3.1962599709769273,3.2697024139586057,-8.747994911206032,-3.559000247635481,3.349942193393962,-0.44990025619580176,-3.102993729218687,7.9830625783103795,2.723338431894414,6.0,6.0,-0.6092601137331993
01-10,-7.646280419690267,-5.081366417420894,4.045307555731888,2.788169726907202,3.836701540637354,-9.22954074656994,-2.444759974482588,1.8279007333422657,-0.12374031862607544,-2.1705423112034183,6.900280302718524,1.764657489256754,6.0,6.0,-0.461101069949933
01-11,-4.925471249841169,-4.722616715080219,4.014452051889072,2.613272091626737,3.534301525756344,-7.40799560546875,-1.6166654530161904,4.3954527428838635,0.6934087220520923,-2.8622558969033576,6.75262646741372,1.1316275375380636,7.0,5.0,0.1333446849041839
01-12,-6.935271908352014,-3.980812351779295,2.606588950851917,3.2336857499788705,3.101947082997567,-5.733179207310856,-2.7022799363230368,6.141657168800647,0.2991178947311642,-3.23196080356406,7.837173225052566,0.42844902577140237,7.0,5.0,0.08875957423790592
01-13,-11.48950872944991,-5.159627890872674,2.647002078929005,3.2148883786847575,2.4376286806544716,-5.866578481245147,-2.2595302636941677,7.11686023122441,0.06798511173769074,-5.971984239834122,7.3281392148172335,-0.34541786350871057,6.0,6.0,-0.69001198104643
01-14,-4.193656820442692,-4.8460571821785345,2.0610232838352665,3.86904405003356,2.2887674155153337,-6.924640517235403,-1.4447207357669423,7.33252764845594,0.312631993866618,-4.965912877072779,7.610617596880198,-0.06893080530508834,6.0,6.0,0.08589108754878971
01-15,-6.000682691646769,-3.3067268724746994,1.1283525312087515,2.564103670581622,2.2007206745594936,-6.349705130577031,-0.1570327789602306,8.249093604512932,1.9387679634801016,-4.406779003499453,7.339720639786458,-1.743527169350944,6.0,6.0,0.12135878646835276
01-16,-3.7845230591166636,-5.159627890872674,0.8286173225651141,1.4116709073216283,3.0092129569709023,-6.349705130577031,-1.240579321201919,8.18169496573097,1.464468578282887,3.878737527402724,7.869653431052899,-3.059892044498838,7.0,5.0,0.5874773535883332
01-17,0.7841784617613425,2.6649131809158857,0.3452517827937482,1.242120204729612,2.1252535120039924,-5.161087438125281,-0.8322845112389199,8.342299480221833,0.6636942719916802,4.2135530221860025,6.682881850813861,-2.275303488085248,9.0,3.0,1.5662891941640424
01-18,1.689189167419779,3.0231374821273813,0.2642298091449612,0.610569921304855,1.5798314215125113,-5.051610277775486,-0.21851005199824766,9.535192581918722,-0.38252243219271104,3.7723424445097478,4.97081756678429,-0.8020209016546239,8.0,4.0,1.5825538942584314
01-19,0.27416011949753544,2.329894247947643,1.057126392114427,0.07632305980499215,2.162869570782331,-4.268860723634235,0.5421290076776103,7.883697690671422,0.6420677744575781,2.2611989509709174,6.18677083808006,0.49053331307584835,11.0,1.0,1.6364925201205105
01-20,-3.9285727909633215,2.776297226228254,1.9312806968170053,1.640909392969646,1.9785175110203563,-3.705421723432867,1.5938711349078067,7.550771034672514,2.1311442945780223,3.5296762060182165,5.237294268912903,0.8914039014737729,10.0,2.0,1.8022642627668588
01-21,-9.244610333466285,3.710623127656719,2.3988622446008008,1.5836634588320944,2.052344455020475,-3.3702596166117678,2.2634140235754643,9.090916653469211,1.0245902066502892,4.069320126120581,5.3953304574044205,-0.3210091188009517,9.0,3.0,1.5544321403709207
01-22,-7.877699978991706,3.7373137891024304,1.118111917900936,2.218006007479265,3.218603799509448,-3.828272394940641,1.7013560920997581,6.978332499545324,2.3584906630396536,4.758796318682204,5.032004388761178,-0.573859682163172,9.0,3.0,1.5700986183353898
01-23,-7.949644073641222,4.854881473636618,1.7572186656818773,2.347591576928838,0.8800441561969136,-2.7588445463484197,3.144468254510939,8.785814697523142,1.962117114610538,3.799691606894991,4.772154098247915,-2.051995971233979,9.0,3.0,1.628624754417346
01-24,-10.59723908150533,5.403981155074771,1.717523257204085,2.0190502348400434,0.3252381521977349,0.061985877578438986,3.1439793366690485,8.260149382461835,1.4076893335760885,2.1739204017921967,5.01662896112436,-1.834623572871728,10.0,2.0,1.4248569531784618
01-25,-11.163986744066484,5.651490786039224,-0.1237318138109973,1.315543243793044,0.45915759779019144,2.235924413816049,3.627017950119878,8.159343670883025,1.117697020169813,0.809675385184556,4.76237301471424,-1.3573458230674715,9.0,3.0,1.2910965584637557
01-26,-15.563166079619887,5.412509981506838,-2.175734167629452,0.5719718449890469,2.2783814611115965,1.9183135449845221,3.772440488820043,3.2660968754034174,1.2658260360426725,1.1313267868572685,5.08146368657634,-4.027499885368304,9.0,3.0,0.2443275478061752
01-27,-12.765955660371864,5.825751974043788,-1.861923439024642,0.3241219850709562,3.3699333388509944,1.5069149903906722,5.143293371264733,4.951973319933291,1.1042279440282319,3.1784540713146723,4.086237798763119,-6.666055160082792,9.0,3.0,0.6830812111817636
01-28,-15.423599536905158,6.579980608043883,-0.020924971527449203,1.937544737120656,2.0345443179240545,1.4396289893851244,5.70994443228558,4.383717132495665,1.8618521744133876,3.5828053449531856,3.62347419617914,-8.443985948330738,9.0,3.0,0.6054151230031111
01-29,-13.830556041830421,7.724320316700228,-1.2855650169515003,2.066501002406146,1.0293574627361664,2.4330178189942075,4.3280160063194995,1.366529679592284,2.178594315875399,3.3597658772593615,3.326419108083044,-10.756593526369828,9.0,3.0,0.1616505835678823
01-30,-11.585802890510113,7.299267967959726,-0.04163292544237753,2.066501002406146,2.8838967631508696,1.1241196943167004,4.160968758179028,2.7306952909576583,2.3362049070075392,2.0223436408868714,3.4020357489896935,-11.329767458708307,9.0,3.0,0.42240254159945295
01-31,-8.462930144200387,7.708272774723572,0.2283512556270005,0.6255958882553317,3.5018777025236028,1.7554714528603532,4.105042458511858,1.3909781085386166,2.066837835693094,2.236636145106275,2.2581607660299894,-10.345817538671927,10.0,2.0,0.5890397254164483
02-01,-6.878119536382391,8.843878740537697,-2.591655216948237,-1.4399434517012055,2.1910148880343394,6.243327482694691,3.537273013360532,1.8993373263707216,2.7872668751459475,2.8852626748886436,1.83413918073503,-14.492183707770934,8.0,4.0,0.40163318908040263
02-02,-13.684612301733887,8.216737291774646,-2.46678929246736,-0.03789400952299758,3.207266567077169,7.17847987221081,4.451126442816024,4.268456785470847,3.589266125647686,4.048305962104894,1.8480338354224235,-15.998810940704258,8.0,4.0,0.38496386150799955
02-03,-15.00765677773613,9.182642395799292,-2.0451216834533033,-1.3641554326551835,2.35646550863106,5.9850046724639006,3.6727852350314274,1.693323577770605,2.997631938576451,6.31460982762026,0.9522855944071327,-13.187870043674183,8.0,4.0,0.12916206773177738
02-04,-11.645373314760436,11.453080185245723,-2.46678929246736,-1.0578039059647693,2.2284689277200482,5.50570179754338,3.657423690071255,2.9162823431560203,3.244953388332873,7.024981077519259,1.732115072983444,-13.80886971294515,8.0,4.0,0.7320141880361906
02-05,-12.997742206578733,11.629668721830038,-1.6865481547480095,-0.5639083322523829,2.3234201072979346,5.505841121360141,2.758307372038759,4.421449742788628,3.5376149513656205,7.765491320762105,0.39420668282922333,-9.707743920486173,8.0,4.0,1.1150047838505959
02-06,-15.927872417153027,11.326937267668189,-3.1289112285545624,-0.28116500500308106,2.7032018974435577,5.202487925525631,1.9658653787461726,2.885635980063742,3.0403212232203467,7.689760918452385,-1.0946347870484925,-9.39128453891589,7.0,5.0,0.4158618845370807
02-07,-17.31887374349434,12.887229603186384,-3.495914073565587,-2.453985396935108,2.776760034151265,3.700892788434333,2.122093309737735,3.907896343030428,3.630578798795472,6.978035231992336,-1.4528800034924372,-8.61875865265921,7.0,5.0,0.221922853265106
02-08,-18.512726382880054,13.124067421522925,-0.18097758579597883,-1.9160759270229903,3.4387692347407253,3.558935593289567,0.9646727082167655,3.5525652377707018,3.1472205857413713,9.718218543982436,-0.895613041109841,-11.367570026180445,7.0,5.0,0.3859571968562651
02-09,-19.683800789566966,11.846695122143416,-0.4057633581346695,-3.0082386206861407,3.85108843046297,3.529595909075471,0.8258005247378294,1.820817042812892,3.1208884255839693,8.852890816033748,-1.8221863685143078,-7.921714592962216,7.0,5.0,0.0838393784154996
02-10,-10.490308950612413,12.93124588256033,-0.6897953870412217,-1.6286689235193152,5.10407184583569,3.279435313065862,0.03137326708026961,2.188524806999449,1.514355397560362,8.171204806544164,-1.224241776246361,-14.14490540678546,7.0,5.0,0.4201909062867795
02-11,-12.203521838339695,5.9319914006935575,-0.3854709336171486,1.5956491111583582,5.2755162591568245,1.8905560616280608,-0.5050500185316258,2.017137521523996,1.8721136420718518,9.100917819408801,0.31366369864113564,-11.597274195338771,8.0,4.0,0.27551904403794536
02-12,-13.236423384123968,5.584512159027709,-2.519264896778388,2.091899005285999,4.786852414491109,1.6912704079556018,-1.120579352325099,0.7251093387311426,3.0733175963204835,9.010795786705053,-0.058671579640500314,-15.775128143486825,7.0,5.0,-0.4788592206531403
02-13,-11.629690078459582,6.41724507784969,-2.28500686074976,2.2014931693430992,3.903856118972772,0.9532637420889315,-1.8939345591580308,1.8840463667148266,3.0228009053084284,0.861877104195442,-0.5084124742541359,-17.27896124424736,7.0,5.0,-1.1959518943663066
02-14,-3.9346675758314844,6.509903388074237,-1.7355374506316075,3.822823051260039,4.084587134356488,0.41513571442231045,-2.658902753609982,2.4148876491598004,3.528024292837959,-0.6550504821629973,0.4986333030087027,-17.75332661770035,7.0,5.0,-0.45529086223474025
02-15,-2.1152440630643747,5.57499885559082,-3.187920402757783,3.7642292903472185,4.01229197042448,-1.293845380065787,-3.4072925164343326,1.7145148221070332,5.230451873720677,-1.221270653767199,0.3324172291244297,-22.09745791649484,6.0,6.0,-1.057843907605805
02-16,-2.301787144498484,6.370847013145954,-3.9518151816245592,3.139917578441903,3.1182400081299533,-0.7285710822185425,-2.2887585256598935,2.9017943902314904,3.935785861735889,-1.9540381283376485,1.3023581940320759,-19.576722550128515,6.0,6.0,-0.8360624638958649
02-17,-0.14306479555486792,7.506175100067515,-4.628061371159566,3.011383432277775,3.5008989878450874,-0.030794754838186746,-2.578209988857558,4.154147848989222,4.32417973882065,-0.8639773923831284,1.4556040325846584,-31.156128514498338,6.0,6.0,-1.2873206397255614
02-18,5.890323712048982,6.419749318817515,-4.58580303811779,4.354161807659195,3.257741772053181,0.7484311205641987,-2.939798351346916,4.245590947661459,3.104711502753787,-1.009424312049102,2.0827268843725695,-19.502338810940824,8.0,4.0,0.1721727127896878
02-19,7.041305912625615,5.876545847198092,-2.2780042913533984,4.092074552032671,3.691097155709581,0.5242120938723924,-2.9554269779562774,4.79425950624514,3.2304170135098085,-1.2227639899020082,1.9787600893405195,-18.87338722091006,8.0,4.0,0.49159080753433937
02-20,7.5152374810395095,4.996267323898317,-1.0208368301391602,3.8285402944605273,7.7316874671474665,0.01542111646057896,-3.471457982049628,5.7727141614731785,4.17523144000712,-1.425705944197512,1.6257766826613618,-18.79069798984577,8.0,4.0,0.9126814350763324
02-21,12.545752566161514,3.993971609492666,1.0206164173694474,3.492649765781789,7.8022980840052085,0.3391939849411798,-4.132616716909876,5.319282572970412,2.8396514269910043,-0.6362399235612812,0.7984552438932914,-15.741605536882266,9.0,3.0,1.470117457854424
02-22,10.885042758177478,3.703697296216648,0.8587163570959101,3.371403937937108,6.760815053650185,0.44850123585331286,-4.8078398273582295,5.9188347948123665,3.370196993254066,-1.1385247395411973,1.8277960098742767,-10.447008614472455,9.0,3.0,1.7293026046249558
02-23,14.703014793312057,4.7309120239160025,2.4091472360228297,2.063373170730349,7.394240973199412,0.586868345047056,-4.543299071064918,6.660685242178796,3.5523692670708074,-1.5626761726819987,3.771085202206048,-18.052098759710017,9.0,3.0,1.8094685208522021
02-24,10.446781371169306,1.7879967705154216,3.1237215059128975,1.9344127867980676,7.361314155029319,-0.28041797527596085,-4.409453624815453,5.32854623924206,3.24007535876273,-3.206002414934115,2.186270088056556,-30.120336813269272,8.0,4.0,-0.21725771273403657
02-25,10.64380143778668,2.0178822087788117,1.9191478879014827,1.4259267736364294,6.964288439069476,-0.6857774110003114,-4.557000560090621,4.777767864114493,3.4733024597973645,-4.621415571474381,2.8227007150869063,-21.43993346155844,8.0,4.0,0.22839089850399072
02-26,10.546749417582978,1.5836595719471183,1.9540054514530532,1.9524799326128717,7.396297137771766,-2.1551089400014187,-5.208006697101466,6.071471605351854,2.7930035407678204,-2.9135015548102507,3.9169241153114966,-16.078953150289344,8.0,4.0,0.8215850358830398
02-27,9.2203183291453,-0.43768838382454434,1.6336594482656472,3.0772008067265366,5.736981310610084,-3.051757827150347,-4.588763457210853,5.66931192702651,2.7930035407678204,-1.6121686414913978,3.8949896813014107,-13.550677732700974,7.0,5.0,0.7320340834554329
02-28,18.780789616506645,0.2811876619503524,1.4928493540992092,3.723308781601449,4.7837649182267645,-4.089977169423807,-5.58907666457357,4.75513675435952,3.3216524831070826,-1.5213400431812634,3.591729915376043,-12.07584758571288,8.0,4.0,1.4545148351946289
02-29,0.0,0.0,0.0,3.931561524215283,0.0,0.0,0.0,5.8740883891347915,0.0,0.0,0.0,-7.671522990570464,2.0,1.0,0.17784391023163412
03-01,17.81931334970601,1.415217027065745,2.785744815348179,3.6403350018063225,5.6134160980085355,-2.5749776098408645,-5.254826968641595,5.107632183313812,1.2720708012557602,-1.044502894890887,4.463608068909212,-10.191491309632646,8.0,4.0,1.920961546867299
03-02,14.76575602429425,1.082033938133369,4.413540253628954,3.1670875632742144,6.052073570503625,-1.6493002074905998,-4.395603145250795,5.487107215325382,1.5965775471397843,-1.8165286567432568,4.313025450377815,-3.085189461139861,8.0,4.0,2.494215007671073
03-03,16.12074068339189,0.2516413804595932,2.015316448057037,2.8410150748972147,6.887527555950348,1.1648966124679758,-3.731106603912335,4.483686343423134,1.2980269835360956,-2.3087380052466333,4.492902346761326,-3.234881646661556,9.0,3.0,2.523418931093674
03-04,14.37761110137021,0.2516413804595932,3.3857322477616227,2.5926638155455635,6.266455359539084,1.9388560665005532,-3.3060489195284455,3.4675514296077665,1.57428971488935,-0.634531540916842,5.663353937397315,-11.672386928383197,9.0,3.0,1.9920989720202147
03-05,16.982954843137897,-1.5349692246863313,4.707760941686104,3.000002774325284,5.993360706991455,1.8022030018951898,-2.3772013706726276,3.4306878150372526,1.740481069062621,-2.809054034039091,5.3628053856893,-8.07608808481419,8.0,4.0,2.351911985301072
03-06,17.81923733784928,-2.820840288168156,5.927527360950614,5.609841781180647,3.9901100739528768,2.070299973614158,-1.1807244645746104,4.260962540433189,1.0464296328290115,-1.3510485902827611,6.49483881795004,-11.526872542164861,8.0,4.0,2.5283134694641194
03-07,22.771671143735002,-2.4303774290446993,6.589751607558501,5.555555172045557,3.725283603617376,2.1000834756221654,-0.8326767739061162,4.0425830609079165,1.654934425879098,-0.47932260568956725,7.0624396399681295,-5.512215640409319,8.0,4.0,3.6873091400236713
03-08,22.983255974907742,-2.017143822840303,3.549266451343943,3.601154405019385,2.4540949940449237,1.6796681785484264,-1.6310352405530633,2.5083573473456156,0.18401601771688167,-0.26752632506834007,6.513445538745851,-7.7078185780409845,8.0,4.0,2.6541445784308393
03-09,22.983255974907742,-1.1071932766107522,4.365541249577563,3.1125542132628454,2.329274285291168,0.7268372960012107,-1.2622266070976955,2.731475751626921,0.3023177594610808,-1.2930594960959787,5.624423604881203,-0.6847903904158572,8.0,4.0,3.1523675303991214
03-10,17.003158256382527,-0.9774420419394876,6.810248494141977,2.1719336037992405,1.3193112434546044,-0.2140009073171983,-1.0141013840260718,3.34701269299124,-0.9332269550272875,-0.42035093695124165,6.1798798535217845,-2.8382071194954355,6.0,6.0,2.5361845666278877
03-11,17.539436086674232,-1.1528798668699387,6.596820848822676,1.3617991836379395,1.8443002780352178,1.1996976975448623,0.09460353252285149,2.8212419632335206,-0.2874705660685838,-2.576269807115113,6.395083362984523,2.017405913882169,9.0,3.0,2.9878140522736967
03-12,15.01577323129522,-1.2531327841571709,4.986252786230546,1.0157027447080544,1.9135330308926155,1.811589654199755,-0.22075561082918038,2.7278612178092065,-0.7746800282576091,-0.9788623342399497,5.454882882872702,6.645570646931456,8.0,4.0,3.02864461978797
03-13,13.501579128191265,0.472751015678588,3.8919758949919134,-2.0059986722221743,3.3537085920442142,3.1551878099225883,0.5045722233730875,2.74043786175766,0.1820775013132402,2.3943067207460613,6.199561701643237,4.677613952194524,11.0,1.0,3.2556478108028504
03-14,15.680832990762697,2.248284970949755,3.296698773893034,-1.0389564800381066,3.0917038563557586,2.6117086101014153,-0.7263525519860158,2.74043786175766,0.5070194993918901,2.3631439622501693,5.64013341364815,15.589283701646487,10.0,2.0,4.333661550727741
03-15,18.298504957512243,2.4628099557928564,3.4426908184842877,-1.8367306785589101,2.7074222481406935,1.1413788014756276,-0.4725141425886815,1.843011655206022,-0.41601625382436797,2.13550267826897,5.4933949133125575,18.075883281853113,9.0,3.0,4.406278186256201
03-16,16.68188094195736,1.9684115267446887,4.635226292966771,-1.5584417974173714,3.3402891166248008,-0.37082487522075813,-0.5675557443158125,2.0974540714171415,-0.0780098666363554,2.2764211101583673,5.425865747707077,14.13776398283174,8.0,4.0,3.9990400422348045
03-17,12.62500286102295,3.0636639940046053,4.453847505128752,-0.16513789465668005,2.355008992360793,0.35281998515082774,-0.48973361299745116,1.1894107637005147,-0.20801308621711956,2.9557690981364177,5.983137177222185,7.277446586351907,9.0,3.0,3.2827685307673082
03-18,8.714461191703839,3.7099073296972436,3.2648104932622144,-0.9430442016744601,-0.30691819013516014,0.8480956670399948,-1.5079377189515129,1.6626205539921863,-2.1120200840324275,3.008087240460748,5.623805932751632,4.141484486809644,8.0,4.0,2.175279391743662
03-19,7.138446630783019,4.715168653815407,1.3690286199842527,-0.5896438034366015,0.0895081212213132,1.7719191133957268,-1.015872047061012,1.3639257316098519,-2.6912839102920123,4.612446810231865,5.491702355069186,2.031113688258555,9.0,3.0,2.023871663631629
03-20,8.86897646817508,6.280991601540596,2.4686400061120213,0.1834834387543135,-2.9812820476013915,2.0748071217851507,-0.3650786384703621,2.3596249168227525,-0.7376727314448072,6.605636799698651,5.172418952996819,8.342413696112425,9.0,3.0,3.189413298706771
03-21,-1.9186236602342717,7.374562333579949,1.209918274399889,0.36710859878842844,-2.272314194037519,1.938510984340986,-0.6030805875856877,2.8255683506298537,1.0313304820229254,6.296416937590898,3.721950126645036,17.59450018401186,9.0,3.0,3.1304873191793625
03-22,-3.8422628470408733,7.525628331860918,2.511457778591526,0.881056435883782,-2.2359632693392015,3.328311797720836,-0.8752374852403572,1.7369380823475298,0.9026493231335235,8.001256643701613,5.281883570932395,18.46706983230451,9.0,3.0,3.4735656829046833
03-23,-6.867844424127939,6.615236318629791,2.3719327688665945,0.3487493177412483,-2.620488021207396,3.575179907358498,-0.9234166592520564,2.043371345132992,0.5029005471323413,9.245898871302865,2.961926557476828,21.516739864334607,9.0,3.0,3.2308488661156978
03-24,-2.8031067429829175,8.741258430347276,2.072946260288748,-0.6967312927011428,-1.6702943688476926,4.308287583126619,-1.2436204785012017,2.9835744685653536,1.199226651938476,6.951480754370028,3.4192745398267874,17.018474105316567,8.0,4.0,3.356730825895575
03-25,-5.171828817046635,9.463872328400429,2.3918616544518145,-0.05465254077326951,-0.9736763873812069,5.116827778667213,-0.1590306495268293,1.830260932572772,1.5420161307479405,6.596784409020833,4.057650010614462,15.164630558602276,8.0,4.0,3.3170596173624833
03-26,-10.51378093487211,8.811194544396212,4.117644066904119,-1.21636540329598,-0.8725101136006669,5.401781872421531,-0.1590306495268293,0.34360430919999324,1.7566292533826764,6.507683613087238,4.197705996429751,9.501416569666393,8.0,4.0,2.322997760349361
03-27,-9.220820485716459,8.190252678121142,4.808248895003917,-1.4066299341129689,-0.6017701815714878,5.2232120251979035,-0.4770980152108738,1.7193809504705033,2.145594175858804,5.473275871880212,4.020379934678937,11.571027938511808,8.0,4.0,2.620421154425953
03-28,-3.6503688221962745,8.487515821421006,4.342718021109363,0.14540499888964623,-1.5044220780904314,4.360119699756085,-1.2075026260136654,0.8985055867310708,2.108476554463632,5.142244591586601,3.4109513523056405,4.3229798431273805,9.0,3.0,2.2380519119241713
03-29,-2.2126818398304415,8.190252678121142,5.825618149835039,0.19992840682726806,-0.831860567616163,1.8705494727041665,-0.6478114101457083,1.7765521875687547,2.8989104216341715,3.564143467997537,3.2290367226886434,3.495965514434202,9.0,3.0,2.279883600351551
03-30,-2.3817440675020856,6.932082041182827,4.8148898615037075,0.4543802215921709,-1.4242532986232443,1.5490034628860536,-1.4492750981742308,1.5382638089323264,3.1257825082034745,5.603865952973608,1.5897651094429657,10.74791106530553,9.0,3.0,2.591722630643592
03-31,-3.7999979654948035,8.381844528218767,3.8365623614446447,-0.9174311926605505,-2.852503788526803,1.1958191831256078,-1.1787220338570985,1.9384635319040084,2.961934185266402,5.735418679388431,3.3297425466182586,10.469508326765634,8.0,4.0,2.4250531968493747
04-01,-0.9743398120824927,8.032597675565999,2.5896839845722925,-0.3832799433539397,-2.9268343111869664,0.10429036346811438,-1.7585968061317045,1.0880474694139612,2.9699250413690574,5.916968578502397,3.242903898893388,12.599929611074154,8.0,4.0,2.541774645842022
04-02,-6.39817261263018,7.660071844204036,2.3300252224632922,-0.8989207366627829,-2.0142622082895483,0.41530523123901053,-0.9592362847909581,0.4792499041875455,4.794527966622968,5.957218924945688,3.613805034399134,12.65443320627379,8.0,4.0,2.302837124330166
04-03,-6.690475795195218,9.286370676880159,2.4976193598392604,-1.0792028029059522,-2.109244894893973,1.097594013448647,-1.3269413927712868,-3.8289521869860197,4.113892224496145,4.254867776330036,4.733619761951536,14.43495560077809,7.0,5.0,2.1153418617476185
04-04,-5.865284393173907,7.8531621659325905,3.1989445065906237,-0.47680568870501294,-2.1633259813131285,2.0468663466289096,-2.1105226030800908,-2.6805533232144163,4.314213486448882,3.0790822701966447,4.17516105523031,5.902128863235896,7.0,5.0,1.4394222253981084
04-05,-7.038116332603077,9.18250169377108,1.565482394240261,0.34842954513530494,-1.1177193406178538,2.6343268464746497,1.0460608145501056,-2.627059886164398,5.431939444322109,2.3336172101209316,3.6078359922933965,5.0687745283166565,9.0,3.0,1.7030060758199301
04-06,-4.851575340301609,8.685658868421609,0.6745008252802468,0.6968590902706099,-1.4208649949784586,1.8896252706415568,0.9068136720756037,-3.2027605565540496,4.8725895806649415,4.3863414711345925,3.5486744568411352,5.664259489421276,9.0,3.0,1.8208434860764544
04-07,-1.2132856699166183,6.117643468520221,1.8307974062704968,1.2401974876292068,-0.7144091787649933,1.9778239992135116,-0.17460414341517858,-2.368979583594176,5.332496518169909,1.3388950657696308,4.26877529687125,4.206133871448023,8.0,4.0,1.8201237115167739
04-08,-2.819130181348559,5.435297348920053,2.9485426812359825,-0.8004473108798988,-0.5707146362866089,0.7834929199060533,-0.5071310658675511,-2.382216926836164,5.528934800031871,2.557988896279036,5.242565601883442,0.7152393626116016,7.0,5.0,1.3443684574707715
04-09,-6.113399822085515,3.7176513671875,2.5316441590854355,-1.0449736363062239,-0.5343769866799395,0.3610190749772955,-0.3645061212290266,-1.7091810327187287,6.128682759152572,3.1250015414993686,5.097830566258114,-2.2982987017806042,6.0,6.0,0.7414244306133541
04-10,-4.054478275800297,0.8462337612508666,2.360513312705986,0.8365881302849228,-1.3992223314516592,1.1582494488256418,-0.6180716541628021,-1.4158388153354433,6.811298752971751,-1.0462064757228209,4.342483587163462,2.393669770761652,7.0,5.0,0.8512682676242717
04-11,-5.491326647363659,-1.6608779534234355,4.210527775960675,-0.33507129762758975,-1.8065895754578347,2.647415835376813,-0.6825401669456845,-1.0581287084287714,6.741034143666637,0.7637683858274147,3.798573807181712,2.958189732124127,6.0,6.0,0.8404146109075338
04-12,-4.751268605771957,2.7277076139493777,5.763359484392721,-1.4519708890033762,-0.779317124585732,2.263859933918231,-0.4274864762760679,-0.6616430912310466,8.012548774679876,0.27969249009371316,3.228353692552705,4.817260637943116,7.0,5.0,1.5850913700551301
04-13,-5.660978812786195,2.4650323173314495,3.8558450977186185,-0.6701425952552192,1.0185841746776902,2.1024087302550956,-0.586741078063901,-1.770142623895982,8.53143412634413,0.22590263182105919,2.752212929514657,3.724954543706089,8.0,4.0,1.3323641201139578
04-14,-2.6957643026357525,2.108719586325205,3.7589661276174025,-1.3067029436759268,1.947251294272248,3.422218605324074,0.33065515670381557,-2.108544941531809,6.757579242081777,-0.5544265252057725,3.265844308367505,-0.06733977573761557,7.0,5.0,1.2382046526587625
04-15,-7.258868175404485,0.7732001609537673,2.6739024448653925,-1.6482507551514491,1.0539481197078997,1.4330483879472433,2.0674674229725296,-3.1498088133158797,6.373442643924976,-0.021207596640427526,2.579790410798232,1.4547919258031312,8.0,4.0,0.5276213480384108
04-16,-0.1988712820373088,-0.3983087341372322,5.488852679841138,-3.707239745513849,0.7815251024361416,0.5690285420247773,2.0519251856825926,-2.5763236773938467,6.259861267749356,-1.006741763265214,2.973978147032286,0.5565316393425283,7.0,5.0,0.8995181134801141
04-17,1.6572754349870704,-1.537728185811402,5.19977279544087,-5.3343607112441624,2.9292392818917987,0.3144640435929063,2.316184728829765,-3.4558866968022954,6.486749108695931,-4.375677357290335,4.892265118365749,-0.5077175178261167,7.0,5.0,0.715381670235815
04-18,6.152341900694066,-5.170293370867735,6.292513476146608,-6.2402512463229085,3.7056617998478694,-0.4492408763727099,3.6804136556921128,-2.881131374129828,6.305110717451519,-2.2129566758221033,4.441892329729705,-4.3724413400004645,6.0,6.0,0.7709682496705108
04-19,5.938008866153111,-4.098953784798704,3.5192342904897838,-6.3572586073200394,2.8057109392354453,-1.66716947280283,3.6656375564686274,-5.371346605309067,5.7486579943037315,-1.3470195893715222,3.806073507506392,-5.35960831665639,6.0,6.0,0.10683056482487825
04-20,7.000000246109512,-6.101188251716301,4.1893660744199215,-7.039782949076454,1.9621718514046946,-1.4212314032064683,4.340545430799337,-6.006640057231104,5.4205142812846905,-0.9621568495510829,4.539479692813072,-2.678829452377951,6.0,6.0,0.27018738447265556
04-21,5.27830968153931,-6.557385281692096,3.4942713250931052,-8.216990390979847,2.8210979831099885,-0.6753783523736143,5.099100172374194,-4.425251602730482,5.213904933366121,-1.1362391984040834,4.262610763011879,-2.3040579507401486,6.0,6.0,0.2378326734645272
04-22,5.31572640854373,-7.054148710853042,3.9639312953165375,-9.175045248679497,2.8040698393100723,-2.7503498786438154,3.9413352466260787,-5.887043594917982,4.674940791848306,-0.8443789398696555,3.635881614529434,-1.810170791454831,6.0,6.0,-0.26543766402038865
04-23,3.801547262795039,-7.401896376482779,3.5289728011877477,-7.318031740000608,1.4563990289691409,-1.7873377236830297,3.8496799465452973,-5.571139951842568,4.929574463946109,-0.36165974913809695,3.0137519361739322,-0.5842284834421465,6.0,6.0,-0.20369738208099678
04-24,2.448454273407101,-10.796906898443348,2.665654062598064,-6.7997600639125935,0.19431303509197997,-2.02969408576288,3.3149987768026774,-4.89843982784894,5.480436367494431,0.8301391942284232,2.836941264855839,0.2777520403751997,8.0,4.0,-0.5396759884261705
04-25,2.6095404297679106,-11.340737518666986,0.8533794214252658,-7.7766920274918245,0.7772521403679199,-1.6964598659967842,4.078824024271405,-5.65583055991227,5.361220042773765,0.9990379940456826,3.26999958262525,-7.824918956410517,7.0,5.0,-1.3621154411000982
04-26,1.6590768792425554,-11.744876368004649,-0.718863266193068,-6.758081908911903,2.155098405846049,-1.3329368790643836,3.2809570448152905,-4.647817726386409,4.856701140905101,0.8608753216281708,1.528946825986493,-7.127229759416702,6.0,6.0,-1.4990125241294543
04-27,1.4667560575725844,-11.69239150987875,-0.13445964843965091,-7.326154229894061,2.2257589165262575,-1.4866556191672586,2.651161371275436,-4.7282261722312615,5.516247161277844,0.6695687936425873,1.617323735197778,-7.11703469603323,6.0,6.0,-1.52817548667931
04-28,5.1533329244865405,-11.355979006406356,-0.5762566829559325,-6.777667259906275,2.3637329071243878,-1.379002411832142,1.8602507717650627,-3.850690897397682,3.705475908990353,0.6270553309109119,1.4518408312149764,-1.487902517581745,6.0,6.0,-0.8554841751323249
04-29,-0.29316009886403954,-13.352350444975508,-0.7491344205928442,-6.756750598222348,1.547496847548374,-1.774080140228162,2.993182412211406,0.45841320381915407,4.3890107440979005,0.5636486080797098,1.4256624510765836,2.1945812116657555,7.0,5.0,-0.7794566853653352
04-30,-1.0749182915475117,-11.589321379494237,-1.479063460337724,-7.705982343702939,0.6552200081171369,-2.2134613473885687,3.7375985369737714,-0.6548788605011898,5.252522981340668,0.6164985329148195,1.4703309474525414,4.860063147388498,6.0,6.0,-0.6771159607320612
05-01,0.03257403463623089,-13.22270810078713,-1.6352487424084918,-7.80910896463653,1.4217153555223803,-1.864771640397344,0.666873887700499,-0.5495200409110433,5.4995842581460765,-0.24649379804039706,-0.09760480330987108,5.6952496564230435,5.0,7.0,-1.009121574838548
05-02,-2.8899807511257745,-9.311632878507481,-1.1487694698008972,-9.344295061600056,1.1906912710005795,-1.0915725147009852,0.8218309766678225,0.37594103943726437,5.133669174692466,1.4899973813540075,-0.2661961489631411,4.292115574390516,6.0,6.0,-0.8956834505963065
05-03,-1.0319241936869543,-9.558448319753165,1.9101131622053524,-9.94586526048369,0.4975986796144465,-0.5574734094862671,-0.2979435868670329,1.9544422656990392,5.364080782730447,3.02255892460937,-1.0204095448263708,4.111681350345978,6.0,6.0,-0.46263242915823716
05-04,2.611123074449319,-11.418328027818186,0.44128846306562647,-7.72007694260613,2.0440285627781924,-0.22526135174686526,-0.09389289070589249,2.137030883880337,4.258325674172898,1.8092773146089844,-1.3302744061476486,4.137498372026034,7.0,5.0,-0.2791051061702774
05-05,4.686551694835348,-6.649941348429005,1.4773608471672968,-5.762782887630323,1.1459829194109028,-0.36089904326245303,1.4855367499698313,1.4894463664229958,3.646627921680646,-0.519934313821808,-1.5449810645925561,5.808871378564935,7.0,5.0,0.4084866016929843
05-06,3.7499986916053487,-3.789215041528988,1.6500395778509087,-6.625551019224754,1.3720295518599552,-0.22651996845935393,1.6214545142250028,1.2045075977248771,4.347321941955928,-0.03234494963586345,-0.8681907168004581,7.432908068219503,7.0,5.0,0.8197031873160089
05-07,5.060975262269175,-1.22961530044978,-0.5387700071581404,-6.710471624790563,0.7776642403089298,-0.46849810573787515,1.7773610859005122,1.0342539601095595,4.424880822196491,1.1293389640963416,1.5122709830104224,6.8944188230527335,8.0,4.0,1.1386507585673173
05-08,4.390239817694715,-5.95626759827471,-2.1505345871095747,-6.726189061537589,-1.2190755110381264,-0.8009653830481929,1.5279070027470103,0.8419610390919519,3.8905025011706256,2.2998254629747565,2.6807815788254956,5.075918133794042,7.0,5.0,0.32117528294086695
05-09,5.357681592952602,-9.620387028124615,-3.3630084838717536,-4.148893589918446,-0.3226968610881047,-0.6347259793977302,1.345426815221825,0.7004712826369659,3.509592749397873,1.0116116926742542,3.5259944935219725,5.198860230770464,7.0,5.0,0.21332724289794225
05-10,4.161524449047272,-10.88900404998036,-3.007671763553227,-3.858080250341163,-1.2728628804370592,-1.4579907387657434,1.8979424847139226,0.5290954239483049,3.29093198095367,0.12778483857140954,3.013744439572974,6.252207999897724,7.0,5.0,-0.10103150553102298
05-11,5.068701824159113,-11.02631217554994,-1.9960517128217405,-3.5091072011246185,0.5330476964596372,-0.5811345344978004,1.0823507869944742,1.145135583723278,3.687715686868075,-0.40463980257652704,6.179822089098621,6.400778442735666,7.0,5.0,0.5483588902890197
05-12,5.632951497776975,-13.45029642997255,-3.695657713385968,-0.7508725734643356,1.7894744873046875,-0.4016014124422122,0.997666701671868,0.11580541156911474,3.8044136344372466,-0.13943037944131564,7.480311068041422,7.575357144116921,7.0,5.0,0.7465101196843209
05-13,9.480952838761828,-12.3604509779446,-3.3794524718108327,0.13358719997296326,2.1157529524883625,0.20854967283841105,-0.1401058067841519,0.965002558183458,3.0733170047883065,0.3096315440831558,8.45641784265344,8.258689780643289,9.0,3.0,1.4268243448228024
05-14,7.830790201962659,-8.479538894145373,-3.5819103755957338,-1.0817101957491584,0.9674569073399608,-0.27027073468436236,-1.5099645905346337,0.5013489973755628,3.5259827421584475,0.4796386161862227,7.831618804633603,8.222859508566941,7.0,5.0,1.2030250822928448
05-15,8.040810276906052,-6.813474539068926,-4.999993188040818,1.2029735846231047,-1.1061533279643991,0.9309236207091096,-1.4943946394713106,1.023012088980988,3.2888636560086124,2.177379732908799,6.890317952281115,9.082765536622391,8.0,4.0,1.5185858962078933
05-16,8.903905048448788,-5.366722250954059,-2.857137772998305,1.3276937179123556,-0.9277439158640433,0.6906893318494793,-1.3584515273157765,-0.8075055436823088,3.933626569556697,0.8269707186393017,6.174972838866788,0.09592179771807555,7.0,5.0,0.8863515843480827
05-17,8.877132325477321,-5.745057110388959,-0.7751967785028495,3.521265707274377,-1.8198045881314524,-0.8018136029221865,-1.672347166976015,1.360545371939958,4.602899966032608,1.0920258509642424,6.446311289452344,1.14844255643804,7.0,5.0,1.3528669850547859
05-18,6.878945186388464,-0.3984059960658085,-5.21842139095821,4.367905338550167,0.4014654190273963,-0.33126574187210617,-2.162761928808899,1.4019912199983706,4.765218098958333,0.805769867143203,6.36182921431141,1.195334496210997,8.0,4.0,1.5056336485736097
05-19,5.215279979466785,0.9594174408515492,-4.744023559280689,3.4746079757758452,-0.03506391557268451,-1.5082234506017622,-1.8335821017464968,1.9261022360863764,4.510144219882246,0.8960557333459724,5.870593419394482,3.408134885479512,8.0,4.0,1.5116202385900948
05-20,6.336748680740932,4.305042888832125,-3.8149837899873056,3.2714732532944963,0.14000353029738974,0.7839654124922389,-1.0029340385196737,1.2971670174635364,3.93135438602576,0.9586979037811973,5.9332590181070035,2.3384154095638108,10.0,2.0,2.039850806007626
05-21,7.24200260329498,4.772453551253107,-1.7564697779901963,3.914856709253004,0.6103914774846708,0.07568193126803335,-0.16972784214674996,2.2352929208792895,3.6183836192854772,0.875152081093598,5.029705091875485,1.7023732689888493,10.0,2.0,2.345841302878296
05-22,7.423051085634795,4.741916285628767,-2.1394648194302444,3.5094414302459,-0.017671619258155937,0.22703424636258482,0.4783174977185979,2.043218847113026,4.507208832402738,0.30769327907410476,5.24244363474286,1.6930176091928955,10.0,2.0,2.334683859118989
05-23,4.122468773888853,4.812440130577124,-1.796643277388989,2.277952532870546,-0.15901087458338678,0.12108647105223867,1.9917197628680403,3.645969764126691,4.258254084742212,0.5811528479552917,5.4015613263760445,-2.392751882515166,9.0,3.0,1.9053499716641247
05-24,3.889397425038764,3.815458447671199,-0.3313878872726592,2.25880602462187,0.671373257353895,1.0947860731742227,2.0217486235480933,1.6735363628354594,4.149425988909842,0.6445484090084254,5.426683827319736,-1.812271938001654,10.0,2.0,1.9585087178505993
05-25,1.217992790198444,1.9743601481119792,-1.8986126792054785,3.1202163394782523,-2.0788169418347056,1.020561808804365,2.335875998926516,2.5028721051946525,3.275860315081717,0.5917134004705008,5.767461959370698,-1.8596001331934058,9.0,3.0,1.330823759283628
05-26,1.8006828320142763,0.051828084178772986,-1.7420226795661027,0.8214394188708224,-2.616758992093601,0.6627540976824522,1.856396254690668,2.400711674152846,3.022985348756286,-0.22556293009074932,5.428041444651248,-1.9638873440106983,8.0,4.0,0.7913839341030182
05-27,4.776677529008709,-3.5242306425861964,-2.231355228505891,1.9528269767831705,-2.9910620734642754,0.07576219963304924,-0.04655765727268798,1.4940597694054158,2.626121616345499,-0.7341037734411877,4.950326076651586,-6.2393812139162925,6.0,6.0,0.0090902982200749
05-28,5.552111731814523,-3.2910092063798664,-5.076745073883662,0.0,-2.9347440620475997,0.6476883704307235,-0.062065038667833076,3.5937076058799837,2.6036890054979103,-1.2258594594022096,6.740456135203019,-5.342642913233189,5.0,7.0,0.10038225793431661
05-29,3.8151407740356484,-1.7717568688154859,-5.512746259395779,-0.257013144942502,-2.383554212360091,0.030119962720656597,1.0550760631138585,-0.6644978973686889,2.983702653582935,-0.6471777370792764,5.484737531611834,-5.144418371385738,5.0,7.0,-0.25103229219021905
05-30,2.396847504463426,-0.8260187944237676,-4.623825564300878,1.6952505777878903,-4.148476404611675,-0.30124559433774734,0.5911593973775532,-3.5656886280394984,2.118793299595104,-2.0195446701057205,4.805430920994729,-3.550185640330625,5.0,7.0,-0.6189586329942675
05-31,3.56715353607336,0.4587163544250243,-3.4482809585930654,0.11827591924391842,-3.2023329067480155,-0.2865366436461673,0.8995065149796406,-2.074249761108938,2.208671531352792,-0.23887212198482555,5.006710271434067,-3.4348281714752438,6.0,6.0,-0.03550553633728778
06-01,4.794325844003179,-2.224554590904907,-0.1537240871445867,0.926475901723231,-2.5988064080029747,0.7610835994209357,-0.2510195218054957,-0.6386833367741186,0.7707329651365722,-0.727468165087509,6.186757781699762,-1.9862683468606979,5.0,7.0,0.4049043029502825
06-02,2.6946989489984117,-5.367527222837832,0.13451132512052974,0.6134921157385066,-2.9704753067269536,0.7610835994209357,-0.2822648641738674,-0.8211642901381525,0.6902087564876841,-1.2404287965002385,8.291778882296736,-0.08036822217602889,6.0,6.0,0.20196207712581096
06-03,2.8723755035665572,-5.208887457957133,1.7102217025190187,1.6258531415508128,-1.6085749757090035,1.9108293211489258,-0.5802084510409004,-0.6256461416863667,0.739969251307534,-0.5140323099720787,8.240120817884376,-1.1609174704340532,6.0,6.0,0.6167585775981409
06-04,2.724317356149393,-1.692224735094388,2.8631853425318066,1.6258531415508128,-1.1260072556290988,1.9848969410208608,-0.23521673217014877,-0.4822668291194652,0.739969251307534,-0.5140323099720787,6.8801767549096695,-0.14287911048266377,6.0,6.0,1.0521476512501862
06-05,3.9384122387505687,-0.5288227513307564,3.4199482428523442,2.6651164270976095,0.03584311476187461,1.4516417211126749,-0.7997464605179059,2.57803738953021,1.1627931488986214,-0.3526037439549335,5.188605807516824,-1.2680819131779288,8.0,4.0,1.4575952684616003
06-06,3.987102275040207,-1.0632683073786013,5.05259646243444,1.8084846189195178,-0.8602142451599446,0.5925070555793068,0.15661468521667063,2.6272601732490313,1.837389114007228,0.08510927064397512,2.6792921596762973,-0.9779502500817507,9.0,3.0,1.327076917678865
06-07,2.674595795149519,0.026290617549672938,4.307751922687066,1.1231680302654712,-2.1505390310873906,-0.7342006425656196,0.06270718757366718,1.5625042401677538,1.8329687906286667,0.7979572476286902,1.3113183864145643,1.2090105026441755,10.0,2.0,1.0019610872546865
06-08,1.206641048165988,-1.7675410945770103,6.590363329328734,0.24747240898322173,-2.3443048202467307,-0.3882367201601903,0.14097768228818258,1.295398362635383,2.3370384856582853,0.3510950198535385,2.1442161590723936,1.4575744178714614,9.0,3.0,0.939224523239438
06-09,-1.4127735413733542,2.311086544895484,5.685800480833557,1.390475318545387,-1.0067108893978045,-1.219520039624171,0.2332838549916986,1.2064985699971775,1.878794102929962,0.7615836828121622,1.115479803258237,2.3273992789079343,9.0,3.0,1.1059497638980227
06-10,-2.8703711770907407,-0.23370593744629237,6.959565756876257,-0.6024123179290033,-0.5096609719741105,-1.343598155722812,-1.2610328726012061,0.6858025529307427,2.141788076368398,0.27636280949204356,0.6210151272947064,1.1423013477741226,6.0,6.0,0.41717118649767543
06-11,-5.030855483497549,-1.6099786382887071,5.318364706538935,-4.1230876643802885,1.643599957576342,-0.4221935774808832,-2.1122323165116783,2.1786203733125347,3.0082801755600923,1.3459503678595666,1.2009332372326016,7.686177527423562,7.0,5.0,0.7569648887787107
06-12,-4.999996467873069,0.1280718132377418,5.091308555885492,-5.862133898569615,3.511793613649117,0.33172681199556797,-1.7969786081706434,3.772405190742033,3.238958676677676,2.039328968916429,1.586016390542009,6.703267222498424,9.0,3.0,1.1453140224609302
06-13,-2.6835373094357626,0.611771263242411,3.777820107813186,-5.565715425441047,1.3771720347033036,-0.13571165214012298,-1.3562479068344941,4.2643370312750015,2.2570011399528824,1.4214053156498512,2.3142907978440137,7.340012585549862,8.0,4.0,1.1352164985149236
06-14,-1.7731637031136842,0.25581599828792406,3.3526895223647433,-6.398540636134661,1.8075387059777273,0.9357119326789433,-0.9265017824484167,4.93719815930547,3.06810884911128,0.8570230896831019,2.824085969779498,8.299254927712907,9.0,3.0,1.4366017527670694
06-15,0.09003235165555802,1.4478531351850077,4.99530487776922,-6.175098402995533,3.67498367564218,1.0700815385091467,-0.015553231409384409,4.873493080530286,3.0905820366950025,0.7943166114197396,3.1043368636765205,7.070436940394203,10.0,2.0,2.0017307897559955
06-16,1.0501118199527295,0.07374331138600854,4.845073861135563,-7.278286952809681,4.207882769527689,1.3525721573425584,-1.5014121360473456,4.649137730107351,3.405266682826326,0.940047572551154,2.6253993979572683,7.669158590130378,10.0,2.0,1.8365579003383334
06-17,5.314287458147301,0.4670566009922339,5.201878793922388,-5.577846650854261,4.384201816385772,0.7333101855842806,-1.3606489686744492,4.836102107027003,2.1211748975265454,0.031628974199119565,2.2372274983443368,9.321456930903635,10.0,2.0,2.3091524702919917
06-18,5.742852347237703,0.39331328960622536,3.560546297764443,-6.0032223587371005,3.516742624693999,0.42200269138830326,-2.080072012703874,3.204887911934013,2.9967575713188,-1.6614807665901712,2.979868211443508,9.253607736141255,9.0,3.0,1.8604836286247586
06-19,5.971429007393973,1.3772783457761328,3.816935676713619,-5.23886115282878,4.681715298059986,-0.4973652428694266,-2.11135801972702,2.8778722160394086,3.3856786775036527,0.4120872698263087,3.3352182934514807,8.736219608527295,9.0,3.0,2.2289041648222185
06-20,10.408508802461558,-0.677872534908836,1.8981203214453144,-3.8362159659975443,6.837321152341764,-0.4220026913882604,-1.8662471093139121,2.865724953799727,3.175839694633774,-0.021133631881145108,3.0114152493026394,8.265092961935478,7.0,5.0,2.469879266869213
06-21,8.87876774637584,-0.9566899338862478,4.183790885623921,-1.6298940020692039,7.3257026112687775,-2.0913434351539943,-2.4558105542463315,2.436576707465049,3.4298995043815035,1.6064301715694662,3.359509080295113,9.924621710790117,8.0,4.0,2.834296707701167
06-22,10.60859650875325,3.129653189427205,3.7309205834222614,-2.8026233530589035,8.357011276915516,-0.5147559760507484,-2.407756312650111,2.478213471400983,3.6297000510489426,2.1031551843153755,4.486974753673502,9.841560712270404,9.0,3.0,3.553387507455639
06-23,9.522470603791595,4.100401235226226,4.239683461350079,0.0,7.972473739542877,-1.5137581661642647,-3.3291033816794395,0.19925735495457422,3.651896347951217,4.308109049096931,3.743924383674456,9.087830289419266,9.0,3.0,3.49859874309696
06-24,9.767696357353735,4.622267725567446,4.6353855259444705,-1.1973627356076064,8.065052997684317,-3.5619025169759415,-2.3015824575272816,4.420925176639954,2.8539550119169954,3.7586119440411223,3.556353322974141,10.599154057885032,9.0,3.0,3.7682128674913646
06-25,7.752590241399983,3.727634039346174,3.987958875037449,-1.8682208276038652,7.906662932015908,-4.272029682623409,-2.0317440941220464,6.680014766323315,2.6477518601496475,3.111203598341324,2.770865407151753,9.198313523948444,9.0,3.0,3.300916719947056
06-26,6.633078539738585,6.660321541587731,3.7707389997697085,-3.753849909855769,6.371382674373091,-4.146378931319151,-2.3492116776723937,7.283122889672562,2.593337490014456,2.1530352670473283,3.284940402046637,9.09704538337289,9.0,3.0,3.133130222397973
06-27,6.372954356708757,8.103042207614404,3.205004061028501,-2.796354834415852,5.60477150386087,-5.245805031158654,-2.0493157424850894,6.691680648323928,2.6158525549223484,2.776316678574256,1.4113049321507527,7.759204873330399,9.0,3.0,2.8707213507045517
06-28,6.295064812296484,9.730847534970266,1.7884368661449908,-2.391084785533631,5.945488301714346,-5.04781497803574,-3.222674782942181,5.740971899316319,1.2832129056852246,2.132380661752702,-0.8516468607074551,8.077407317940724,8.0,4.0,2.456715741050171
06-29,4.141841374390514,11.795938703485481,-1.1074406087150757,-3.4447838206741292,4.0966736088402635,-5.527562419260581,-3.844901546568248,3.7631710412228467,1.7828750151617543,1.4251093166638509,-1.098274076009675,8.844387658803287,7.0,5.0,1.7355861872783571
06-30,3.4315147871056473,12.534694202710217,-1.6903029167499084,-3.9550237938001858,3.4345838987510464,-6.517250514644562,-2.3595525500884147,0.7400952812980306,1.3627038172965293,2.5814545277522303,0.1767220053645274,5.141888638632967,8.0,4.0,1.2401272819690103
07-01,1.473132112270265,12.997230639287288,-3.438897252350764,-2.2309915486194547,4.3426241111948025,-7.7917946429664635,3.7678975998395905,0.6899185189863969,1.0454524647105823,9.047623955230803,0.5362620339743035,5.327829586511349,9.0,3.0,2.1471906315057248
07-02,2.8018412360853824,12.049034914271193,-3.7470689033021176,-2.575275849542851,4.435691350678544,-7.454511685588859,3.85832346264824,0.8314387195149788,-5.795169984138719,8.692686499618903,0.21807337726393464,3.2320481582342095,8.0,4.0,1.3789259413119035
07-03,4.246093158171676,13.142594336554602,-4.133203999775527,-5.0389932860258115,4.298678451396235,-7.824827825781017,3.782966660522543,-0.6907149058831531,-7.599161624475603,8.239775862794556,-4.048918907452012,2.987960184590125,6.0,6.0,0.6135206753863841
07-05,5.0687191749066995,14.220075351008257,-6.490388215763931,-6.663955095387565,3.0313417987078384,-8.707037361183414,5.826819161518411,-2.7542104079639684,-6.127660687571239,7.702820820210186,-2.966455186636165,-0.052087838175239515,5.0,7.0,0.17399845947248913
07-06,7.090803692986153,14.042354205717025,-9.213709345593278,-4.550991077235745,5.024200182272628,-8.653683965972139,5.11295881260857,-2.76689512032427,-6.151972715615502,8.15190710655418,-5.4695478383035345,2.8653307103887977,6.0,6.0,0.4567295539569072
07-07,9.278345146246716,11.674312685146251,-9.55645529090067,-2.3677198540346325,5.9193089342822,-8.211138828813395,5.34373213176828,-2.4406095668939654,-7.1002994989551675,7.651975748631536,-5.058465845206279,2.925308666630532,6.0,6.0,0.6715245356584507
07-08,8.835113418009449,10.45871036280047,-9.294356355185858,0.6791852642043554,5.119225666722836,-8.64358953182521,7.804096966159692,-4.137298427709498,-7.355626810647796,8.645533267935033,-5.901943905574828,4.587698780985713,7.0,5.0,0.89972905798953
07-09,8.778848244820715,10.022933680785771,-12.710798416000019,0.5202047297208969,2.808141835149672,-7.802339404005643,7.847693507885076,-4.454282656054806,-7.212241861809397,8.741964005744778,-3.63347680401531,3.886446815140326,7.0,5.0,0.5660911397801716
07-10,7.962863697671619,10.44673817614305,-12.002512234558342,1.158837213184098,2.3697476427094277,-7.704814114429384,7.455308000918942,-4.71341008351194,-6.7198517422526,7.1849369600573265,-1.578167114212647,2.881043971379574,7.0,5.0,0.5617266977582603
07-11,5.044173411418849,10.692255554559104,-18.139644727436682,1.3822088381770514,0.30252152130383403,-7.851102048793796,6.011409163731576,-5.290795426249486,-6.562727151765479,7.070705947971175,-1.9398264917955477,3.595107279684543,7.0,5.0,-0.4738095107662382
07-12,5.6625142052112745,10.692255554559104,-12.423662881984805,1.74278638580957,-0.252103404838486,-8.054561443633048,6.585257623211282,-5.830481849763592,-7.880698030371241,7.012433260396158,-1.4384349394401934,4.880502888741483,6.0,6.0,0.05798394732479206
07-13,4.800000871930803,5.627606039837171,-17.26492001526551,0.1602524424914498,0.9612227868544546,-6.70301517681819,8.094960213012001,-5.261089047504842,-7.4563453518183955,7.857416870461743,-0.040689689302263646,3.05128179044805,7.0,5.0,-0.5144431888061272
07-14,6.165536594834996,2.8421271962411865,-15.657345594016242,0.38130129324586554,0.5988034210703261,-7.0463337819612075,7.5744458735927,-5.208608183051013,-8.426281117092053,10.211742497144117,-1.5196533779855803,0.3683401687890593,7.0,5.0,-0.8096604174323204
07-15,1.9882360758205018,2.8898951882972868,-15.96564638705493,0.5011024314661987,0.7638706241204523,-7.169208227901461,7.036929686664628,-4.85436485041302,-10.1582610260005,8.87868390481632,-2.399197960223805,0.16088984495188488,7.0,5.0,-1.5272558912880367
07-16,-0.08401734741904904,4.872216749154465,-9.039076519365356,0.6802724203720101,1.5244377667048663,-5.133889767762271,6.513515276315442,-5.006577219950837,-9.313369348336014,7.9980280949815965,-1.6003979721746757,0.7197887208743824,6.0,6.0,-0.65575576221712
07-17,1.5961907293132855,5.383512020431058,-8.012556259802581,0.3001831543217294,1.5420333012753946,-3.0423041520782377,7.051466356787696,-5.729031127484777,-8.298150946243643,7.1974933571975725,-3.7282748996051343,-1.1093278250597676,6.0,6.0,-0.5707305242456171
07-18,0.41701840641742993,5.089599357417168,-6.629498183725015,0.09928363076759449,0.795887135311704,-4.658536544086197,7.344632456150064,-5.841064453125,-8.447127327818164,6.631136603659024,-4.425228343704458,-0.6496830022530918,6.0,6.0,-0.8561316887490785
07-19,-1.0437205188203384,5.134936150056546,-11.588164706830813,-0.6949929902287395,1.2104120802750038,-3.5793508997102923,8.45857081692828,-5.934005943537611,-7.82763979324022,4.9437484585370175,-3.6191160639216307,-0.67516504867998,4.0,8.0,-1.267874038264398
07-20,-3.1384974573993434,5.5816160932990515,-11.09482768740309,0.49642572869352225,-0.7432409139163957,-3.3175392008359568,8.745894669285468,-5.950655867199614,-7.360854185336843,5.486478941695885,-4.081806605522333,-0.8794933746531447,4.0,8.0,-1.354708321607733
07-21,-2.034964450825699,5.42890152764508,-11.283230768260218,1.737072780824694,-0.5903161894359717,-2.70100692911478,9.666332268372004,-5.475658366206303,-7.133451665801302,6.422739153044891,-2.419961465371622,-0.25449869252446733,4.0,8.0,-0.7198368998044744
07-22,-1.4480360700084656,1.1985859710403957,-11.03202932230071,1.659423489356866,-0.6752155635522815,0.6237294999421222,8.840978955853725,-6.161760275145418,-8.924877725780805,7.415339225548179,-2.445518558936723,-0.6882467004765624,5.0,7.0,-0.9698022562049733
07-23,-2.4701842752162095,-0.3525300318883594,-14.332178585073152,1.5621928421885918,-0.3875961268030053,0.12549306832107843,9.622343318114286,-4.0609072534557695,-8.898353527468839,7.505348215918836,-4.735872319050427,-0.6372673841802314,4.0,8.0,-1.4216260048827662
07-24,-2.3850088684668167,-3.747015841645111,-13.009000674398582,3.2161980667807706,0.33955986037041386,-0.06274653416053921,10.649689690856627,-4.1286770244128705,-9.780342900520052,8.267984160936866,-3.31852763237124,-0.985636849903525,4.0,8.0,-1.2452937122445051
07-25,0.11334914845452339,-3.3523533080707315,-12.936391289744382,2.9307664712722308,0.9507663137240508,0.39215686274509803,9.828116140299723,-3.6964961485410486,-8.00048645285472,8.189568640482271,-3.0084608085176088,-1.9566102617203651,6.0,6.0,-0.8788395577059132
07-26,1.0665199458983228,-4.319661941092374,-9.889189548734825,2.025961400876271,1.6298860344649149,1.5954957811584625,9.21461246264577,-3.8272651332115633,-7.903439406939618,6.890870894865568,-4.324139741504623,-1.7402337599792663,6.0,6.0,-0.7983819176294134
07-27,0.7042253521126761,-5.684308175038293,-6.629377941977577,0.3737187768267936,1.8459447412391434,1.1159998371468525,7.210884879416923,-2.758442045810589,-7.829921997130727,0.27136923674037783,-3.6502418221834496,-0.6212726555096834,6.0,6.0,-1.3042851511806293
07-28,1.465202685744523,-5.283666909586194,-6.152892464341037,0.07917837522742263,2.256013487096742,1.271188571521632,4.9435484180763805,-2.3201796595508157,-0.85773427644528,0.3984099188797668,-3.89156845338673,0.06771709431986947,7.0,5.0,-0.6687319343703101
07-29,1.5638307241829075,-4.674950080130006,-5.759268185069479,0.6690282460244054,2.6302614023378434,2.0794215687853375,0.5396501503405681,-0.7733932198502719,0.185004344463956,1.2524113810570676,-3.264736463657339,-0.1770649976175952,7.0,5.0,-0.4774837607610505
07-30,0.5402292766587171,-4.869734635649502,-7.685809423010936,0.05939176458868748,0.6127669963430851,2.9531240463256836,-1.1842316389886196,0.9350625845871376,1.7720586179007691,1.9514070189991188,-1.9012325585133862,0.581783154206598,8.0,4.0,-0.519598733046054
07-31,0.7108331333970528,-6.300361338924265,-5.154639175257731,1.9027093554590764,0.7141676140707116,4.531252384185791,-1.618950451021768,1.4400469800354294,1.1360863648200101,1.4053316902975457,0.689318860231321,2.8667804128351513,9.0,3.0,0.19354798584402708
08-01,-1.6813911371396162,-3.618187380370752,-1.776091356631483,3.338564433175807,-1.8704275606778997,4.484373331069957,0.561638874142285,1.8278782225427985,-0.6219538246713033,2.168096188377713,3.528641908928834,1.157850357612357,7.0,5.0,0.6249160046965581
08-02,-2.6171982612353366,-6.196625998589352,0.7752001464916641,4.615079651660892,-2.8396499403989925,4.093748331069957,0.6350617500958957,2.6432860166747205,0.867784994708987,1.64278284760493,3.151160305311013,-0.4486636934007762,8.0,4.0,0.5268305124994668
08-03,-3.781265842560414,-4.297711969393015,1.7432667909969817,1.6889175698729264,-1.9724533588243232,4.123704644456719,0.11876756284111285,1.7440376401710402,0.867784994708987,0.5730644619003318,3.922533034101127,-0.22806341232614757,8.0,4.0,0.37521517632877704
08-04,-5.125952054148568,-1.964453193546738,6.022188873008605,1.8460303623543006,-1.2835705927747265,4.318005287414082,-3.2370777425990815,1.5388619209773609,0.7352062207748309,0.4680017937457753,3.7883149953680575,0.7363993752451502,8.0,4.0,0.6534962704849206
08-05,-4.590939947930167,-2.081392046962529,5.427888051934293,0.9708770885977352,-1.9724533588243232,5.531452810942437,-3.5048045788299924,1.7825172598166812,0.27721267150735207,0.4680017937457753,4.205530468263293,3.189924306997207,8.0,4.0,0.8086512099381468
08-06,-3.26662926811361,-2.3620256685600687,10.340731513548409,1.3228074303220763,-1.8845336798823893,4.129652153339302,-2.8429592271542865,2.321114529456281,1.040548666703775,0.4775093156066549,-0.058503714109087265,3.76247210350567,7.0,5.0,1.0816820128885607
08-07,-3.9434966763972503,-2.3620256685600687,8.008134919327295,1.8627465939989276,-1.5011959811493178,4.036148374309971,-3.4747253940275438,2.3085841010348265,1.3590837231482915,2.660269105777994,0.22962011947753064,2.461968005592321,8.0,4.0,0.9704259352110816
08-08,-3.0017671321502983,-1.2959995027915887,5.688691938843068,1.363371731050957,-2.934154302359718,2.8206289702992193,-5.17448050286978,3.777166946488223,0.6126151786552178,4.825292296152248,-0.7626704006527202,4.3023082319019,7.0,5.0,0.851750287713894
08-09,-2.5190410829717687,0.1824356194781494,0.14718186039316775,1.5411949612530478,-2.5588536801970414,3.985168522535999,-3.76966610131243,4.379556717386234,0.4465843379623853,3.956367875044369,0.7052653707832996,1.820926577399911,9.0,3.0,0.6930934148129436
08-10,-2.0408185962380645,0.9178556885554535,6.390432037481703,1.4226461411183207,-2.9577696915560834,4.662572458773769,-3.9393513573960606,5.069123986069252,1.6173764183099948,5.361437451835846,0.9570924603325096,1.4487880753181634,9.0,3.0,1.5757820893837338
08-11,-1.6309003787738012,4.5589242049112455,2.391259302305922,1.6141726518491706,-2.9225823760459813,3.9406571984829872,-1.7053862383976375,5.218585619166362,0.8569693392262773,6.9297802972403915,0.6949010233095942,-0.585904118111367,8.0,4.0,1.6133730437635967
08-12,-1.5354021712863362,4.308181982367888,1.4636139126755923,2.9326123266800246,-1.8089597078980533,2.3951198628858696,-1.4753614901295125,5.866233691326046,0.837216772075376,6.024096300351793,-0.789254788790363,-0.1696470856541107,7.0,5.0,1.5040374670503514
08-13,-2.274674704032862,4.604514490415316,0.8802463021643274,2.2109196920775807,-1.4456156856448437,0.6767395325464995,-1.8442018626618908,4.683750949821584,1.085655017928895,6.595427591871811,-1.7714722521529291,-0.5343941442697868,7.0,5.0,1.0722412440053086
08-14,-0.7961404849926513,4.797636726497029,-0.707147098465838,2.38327298053354,-1.344317046415283,0.6295271012203549,-3.0835113675504,2.5303370870624633,2.59633342711728,6.0265328865089565,-0.3877595002299615,-0.5089477285838069,6.0,6.0,1.011318081891807
08-15,1.531048790810203,4.862530041500528,-1.1278134686377148,1.79406823487825,0.5209167658161065,0.3777174614552884,-4.752641610722294,3.833909125371716,2.8755833755845397,7.35899359783668,0.2528832751487092,-0.9045119349014024,9.0,3.0,1.3852236378450506
08-16,2.1138669945786783,6.289170443370598,1.0721658922962307,1.2090463078074078,0.3696814186033259,0.17244177578430928,-3.9910901351817754,3.069379965588027,1.1242567434818787,7.057319008846862,-1.3655928383117029,0.09293731816856887,10.0,2.0,1.4344652412527008
08-17,3.2590583117361973,5.160141775059448,2.9656695064968797,1.2870512151388136,-0.15215579081349895,-1.562997655999366,-5.05095182183809,2.0421374886463823,2.804736978203587,6.060880601892891,-1.838202552179447,0.6970119401175829,8.0,4.0,1.3060316663717817
08-18,5.1902170842671635,6.933512465015269,6.31728750613407,3.011123347147405,-0.38977014654424036,-1.4659050481952003,-2.0757171362816345,0.6979460984330899,2.781063282983543,7.182818179383575,-1.5371618846021873,0.3802962652525145,8.0,4.0,2.2521425010827807
08-19,5.092965126821464,8.355204708731366,5.220393497301003,3.6027438479461353,1.7904476489082135,-2.4604523040033968,-0.10139005488986828,0.7625745719793461,3.9825671891457817,8.136108342443363,-3.2108497218264405,0.06792409267244387,9.0,3.0,2.6031864121024504
08-20,4.904337550230444,8.005248796351255,5.961737780868123,3.4923698048956995,0.28566320574705856,-3.675391543085016,1.4049843682504475,1.0269615354141501,3.8012055902540447,7.583110700797901,-1.598149801766779,0.18679935261895064,10.0,2.0,2.6149064450480233
08-21,3.988142058460363,8.718517467468933,5.159457524163058,3.320536646648156,2.191962251854668,-3.968122556684607,2.0712634504820366,0.6443299095769255,4.623132566441095,7.437938609865336,-0.8706667394135664,-0.025478822744925873,9.0,3.0,2.77425103050979
08-22,3.8982097461904215,7.952291257821203,3.771644298824149,2.9956109509543185,1.0461658175766564,-3.463973321314578,3.3177385323239217,1.9208779093071626,4.020564411138417,7.153781287435117,-1.8934892696406076,-2.7164552869513603,9.0,3.0,2.333580527805401
08-23,3.2697567792729934,7.992940325468044,0.6233102647057301,3.6061808722591735,0.6310213557162803,-3.441562985545653,1.4892032424073895,1.7530549560631394,5.236881087314484,7.3967369697345715,-1.6568039170845663,-3.537899567484163,9.0,3.0,1.9469016152356184
08-24,3.924223905277404,8.279250530186584,-3.406169970422204,3.0337724808568214,0.06654619051934459,-4.185744571088885,2.188371710253587,1.0711506726651105,5.852299993949284,6.595873646019291,-2.664403419859137,-4.988985292517504,8.0,4.0,1.313848822986641
08-25,4.339614182942195,7.604051766256295,-1.4567272937665003,4.119214068093649,0.282207800308456,-4.117647755471437,1.7980176605513765,0.4463127802771294,4.331169574981965,5.385100066323036,-2.490465680651197,-3.323708004464581,8.0,4.0,1.4097615971150323
08-26,5.861890807355768,7.874015612881953,-3.898885353311407,4.101006118290819,0.5463606336388722,-4.95569498821758,-0.04498917090518738,-0.06376313813485135,4.979687567664935,5.239302751346953,-2.4470782616324085,-5.760655537393354,6.0,6.0,0.9525997534653762
08-27,6.076018256634367,5.489319234029399,-9.410483504557439,4.064583366239461,2.747889176634755,-4.918032786885246,-1.4697110864553176,0.8557768852386769,4.503033779028101,5.290810367101883,-2.522991992129435,-7.053686200429503,7.0,5.0,0.3043771245374751
08-28,6.932548475040076,7.1363791453073,-8.580712792072324,1.9426853310697065,2.4062346309824587,-4.9508141689612986,-1.5446892240294805,0.012694677134465681,5.647765566193658,4.477751609899734,-2.300199631122101,-5.341535488114555,7.0,5.0,0.48650901094397003
08-29,6.601467575437164,8.565692607060841,-6.5943467336785355,1.7178212328798022,1.7424481684483253,-5.163936927670315,-2.682930148123048,-0.9223690023339732,5.475504322766571,3.5911616764969345,-2.157487941208037,-5.460535486164556,6.0,6.0,0.39270744532593094
08-30,5.497525951841894,8.094163495877646,-5.648892275814633,2.5863735129694176,2.4062346309824587,-6.081526551051578,-2.7926169161364793,-1.2220280470054725,4.125259599094452,3.5911616764969345,-2.6024163890560597,-5.611062445267941,6.0,6.0,0.19518135357755337
08-31,7.951800608676593,8.320490323365075,-10.580499134527548,2.2389496557900577,3.6321624137756747,-5.148256422976223,-5.003895569944325,0.8014212549630856,3.3857179040658747,3.5819516061737398,-0.6138608881380108,-5.366677417712064,7.0,5.0,0.2666086944593275
09-01,8.667741000228252,6.145748391920124,-7.776558857392516,1.2010828064969412,2.1458550901106057,-4.518220106117156,-1.3243002433323277,0.8141450002280762,3.0737273329888617,1.8091186549054592,-0.8258223409917017,-6.10903665923304,7.0,5.0,0.2752900058176317
09-02,9.047111918886632,5.1580382308680655,-5.125958541888232,1.3730402186099688,2.9269950190699734,-6.326194570548363,-0.7883630680391619,-0.6996604089650481,4.398256488884021,1.2622987166485728,-1.0130895808811693,-8.00353836770043,6.0,6.0,0.18407800457873572
09-03,8.618846809683758,3.753298611997841,-2.345599578125851,1.4302312610375725,4.4524491961192005,-8.285521408170494,-2.152817144716407,-2.9141303285580364,3.545357021376802,1.289783272659942,-1.6826747580048345,-5.273852810643397,6.0,6.0,0.03628084538800791
09-04,8.190581700480902,4.5763004635103774,-6.469673881372234,1.6772680736455146,2.7538153301725594,-9.247383897149167,-1.9860484790426816,-2.648230623152279,5.268545059311426,1.6366197387777313,-5.713050762426857,-4.876328994058899,6.0,6.0,-0.5697988559419673
09-05,4.036236902557857,3.7544103225980527,-11.147465192114014,2.7291912401703677,2.9694710303226786,-10.023622671198385,-1.1600220167721662,-2.7145791850473335,5.857740910663094,-0.16666694923683448,-5.07152020069906,-2.075638235439766,5.0,7.0,-1.0843720036829592
09-06,3.2391976842294863,3.9876571556124207,-6.517356658376587,2.364019932911782,2.9362980982202416,-9.067920255148138,-0.058830956395804546,-4.4152439917514315,6.001816374131522,-0.8796268039279644,-4.794103903293525,-2.844483055273405,5.0,7.0,-0.8373813649217837
09-07,4.794329516280599,6.158477347605741,-6.241783801238064,1.037857223715627,0.9710330165787132,-7.652634216291999,0.5701023215395797,-5.492051335770542,5.139549365402989,0.09259117974175347,-3.574224442738715,-1.3181968281167975,7.0,5.0,-0.4595792211075929
09-08,5.10453699334341,5.472960404823123,-6.986418391085005,2.2940178387228434,1.629801305218979,-7.438153040487283,-0.5023586530105406,-4.073050123848599,4.90129308456925,-1.3726783742386055,-1.5085626996026578,-1.309357569803367,5.0,7.0,-0.3156641021165377
09-09,5.1254425182641565,5.2359412048377365,-5.300048164103832,2.777247656359413,1.8420126561099814,-8.363019917508051,1.3104273760625875,-1.773746502818295,3.4263633582701027,-1.2970042114372569,-2.1791360404331614,-2.5308714104671863,6.0,6.0,-0.14386595640531716
09-10,4.8556764280520515,5.171302593772221,-3.012051505307609,2.480441215121923,1.0149697356763827,-6.04139328638726,2.577164582413381,-2.4399827263498226,3.906072491477007,-0.8265992428568179,-3.7724358573836296,-1.9220725517045945,6.0,6.0,0.16592432304360252
09-11,4.2891830743928745,3.2062381870204923,-4.200218222264749,0.9481456570690655,0.43500440729325174,-6.45861626308883,1.8637139976838752,-3.794292397859009,3.7757137378004937,-2.6485011256459945,-1.8458051463958687,-2.939639202240592,6.0,6.0,-0.6140894413529158
09-12,3.856450511045816,3.7898328457765507,-1.3547827411279678,-0.1758158917803647,1.0373078921471541,-4.639523830017288,4.179227556370488,-3.3706455442425542,3.696172970884637,-6.805312776129783,-1.3478705782770297,-2.1970522328714948,5.0,7.0,-0.27766765151848644
09-13,5.476561457154109,4.407362642950143,-1.719798006660679,-1.855832757228843,1.2715444711557637,-7.172125768012331,5.038429843289047,-3.29026406120183,4.368493191136709,-8.201524776462907,-1.6483500288558521,-1.9433304682009371,5.0,7.0,-0.43906952174480063
09-14,5.40184241330108,3.7052893405884064,-1.0675435588941184,-2.480954271995314,1.0011498560582563,-9.147823167883832,5.455573885178119,-2.260109703548727,3.949748573633068,-9.324353859101572,-0.14616610945605543,-0.8810580374966253,5.0,7.0,-0.4828670533014428
09-15,3.259730937494923,2.868065610524173,-1.929793592843422,-2.2040200078525927,1.8388951246307208,-11.712349556094994,2.494298615530297,-2.9606103031307742,4.130830127508284,-9.579603609499074,-0.12894483238876975,-0.6549883365531213,5.0,7.0,-1.2148741518895292
09-16,4.577009018340759,3.0167796434072667,-1.0675435588941184,-2.283821967786606,2.583976940302204,-10.994858716167307,0.9042590354176061,-2.5640955830184167,3.446712053331443,-9.493360925746877,-0.5438108684595557,-1.1422141650412938,5.0,7.0,-1.1300807578595748
09-17,5.0141444935545625,3.824090182134574,-0.5804286267715034,-1.8464543223559136,2.8249564165866072,-8.562857240610686,1.794172574784385,-3.9952433109817664,3.827098195223882,-8.95741692530549,-1.5888190885622595,0.4122323487369575,6.0,6.0,-0.6528771086305543
09-18,5.631264235226263,3.6177925137603895,0.24670833345097407,0.019194273869346,2.31954626079854,-8.757060624861428,3.617047092430789,-3.3933998059687296,3.935237130565409,-5.6723465438661655,-2.450854595251593,1.2023372522543416,8.0,4.0,0.026288793534011572
09-19,1.98938988016488,3.1437071402308376,-2.147369384765625,1.1132078350714918,2.497973848193481,-7.980226882893911,2.955955109515581,-3.1627345913758202,3.8435667220879535,-5.817940207251892,-2.0611390216139087,2.4840978860398875,7.0,5.0,-0.26179263888308707
09-20,1.440386479997159,3.288492110427621,0.9059061755684532,0.6037730091022996,2.2871043187569504,-6.15784760294754,3.1643745709557565,-3.0501398738987615,2.7990922914783534,-5.208533037088275,-2.234348145648147,2.492480931595301,8.0,4.0,0.027561769024930904
09-21,1.5454250871901978,3.6438171679303237,1.7469965179544904,0.6226449642541274,3.7450174886392045,-4.258943726587458,3.3719112478687787,-2.5366039838645498,2.765233623517273,-5.046660846668126,-1.3298973674629333,1.4763391707421247,8.0,4.0,0.4787732786261211
09-22,-0.08092468180155794,6.203837654725057,3.5992404649225684,0.1706487480538778,4.41525108634962,-1.9320450195264973,5.3199036936379684,-3.896437757241415,3.250561290087582,-5.859787865216012,-0.27169273063404686,2.248629680236652,7.0,5.0,1.097265380299483
09-23,-2.0207583289208553,6.857987005397407,2.8625486080851017,-0.5922838601208542,4.95672344452942,0.5061246910873841,4.5656251839238715,-3.020394164750423,2.1209355441822337,-5.809046756443194,-0.16963269351467175,4.756241358693186,7.0,5.0,1.2511725026790503
09-24,-0.5188488447519017,5.401978458672314,1.9603804514071617,-0.13312988281957147,5.9620145450183575,-0.6766790664789224,6.111355523983871,-2.7510810903094542,2.7354202864239023,-6.16523608488564,-1.5858035453859487,4.65431954048414,6.0,6.0,1.249557524279859
09-25,0.6553737596113938,0.8888922797309028,3.0521825236207953,-0.5414863642459802,4.877664131042049,-0.412609340436389,6.211541143094417,-1.1663994994421327,2.549698611918069,-4.8996931096663054,-1.4910112967948805,4.790215298096197,7.0,5.0,1.2095306780440114
09-26,-0.48426234609332697,0.9988918325424928,5.1835486377730415,-0.7584660020101858,4.388317042237221,-1.3038470267995115,10.015428949297883,-1.376620205965909,2.6593387270434374,-8.51318593843457,-1.3206061055565619,5.029158203891796,6.0,6.0,1.209807980660484
09-27,-1.055193179948646,1.4364674605058703,1.5098232994299818,-0.3889552120992666,5.8405635948889065,0.04855742941020421,10.154061407648927,-0.961036186713677,2.2036354337404442,-8.253391642397904,-1.1076044917287218,5.061257237852292,7.0,5.0,1.207348762549034
09-28,-1.1646812743817234,-0.6424477612949351,6.741571370023383,-0.5639846866087355,5.396476134465817,0.2745448546065551,10.028052201749023,-3.0680530618561166,1.5933959393755828,-7.6538727943327665,-0.9459695287148591,4.3419023615463965,6.0,6.0,1.1947444795481352
09-29,-3.0603821239102227,-0.8634120437353485,5.066393265746288,-0.6223327905809765,6.4561259956312895,-2.285905404226157,8.470746674196773,-1.232466871350917,2.4635556083207217,-6.397468327543184,-0.48354233806000524,2.619972969579979,5.0,7.0,0.8442737178390202
09-30,-5.447361807936078,-1.1069294227772484,8.743621097621258,-0.6223327905809765,6.295772504455545,0.8979579380580357,8.197633284251072,-1.4946991860745087,1.191820506960986,-7.3834156911618685,-0.21150592762660628,-0.7655337710399329,5.0,7.0,0.6912522278458065
10-01,-2.7942361141467664,-0.2435258242432159,13.15201843318686,-0.8577045769006172,4.561790167461688,2.900213818067638,6.41614573173859,-1.4158388153354433,0.05686688454937853,-7.597836164852197,0.7088042799286789,-1.2106112290239308,6.0,6.0,1.1396738825358885
10-02,-1.947498224007052,-0.35374717893308744,12.9045390082486,-0.4259388180185151,5.160482257907019,2.785510375626752,5.3862146129082795,-5.943582808555579,-1.6423758778414443,-6.688367954617093,3.270441531135351,-0.45398090871973135,5.0,7.0,1.0043080012611247
10-03,-2.714038501543437,-1.1363598694197359,10.798416037855297,-1.4625585371558067,6.025805142074974,1.5074523797260984,5.432669166065141,-8.28667128588186,-1.5619623465238237,-5.923892673364262,3.5723288354134026,-1.4255361922688445,5.0,7.0,0.40213767958142843
10-04,-3.964875833283368,-1.2943494723995466,3.3549766481907066,-2.008585449518342,5.396476134465817,2.3983139915630343,7.001079482611681,-7.759835052972002,-0.8351397974549017,-5.0313822082009105,1.610061357606132,-0.4031963613223465,5.0,7.0,-0.1280380467261705
10-05,-5.095902558675679,-3.4068109207197703,3.3446269579090484,-2.5156024692577503,6.07856159285008,3.2294377924573068,9.653984998345535,-7.31810853835987,-0.8351397974549017,-5.1098461467778495,1.3457502723238446,3.0797862039583257,6.0,6.0,0.20422811554985998
10-06,-4.630684752232709,-2.9960018485957884,1.6088105614460577,1.3551688428916866,5.6816420453799115,2.4299368396620253,9.470307154557386,-8.0654277614009,-1.3385174693139672,-4.351616447460216,-5.208048195130711,4.182000754516249,6.0,6.0,-0.15520252297341472
10-07,-5.853795574711586,-2.4411860643508603,2.730738504853524,-5.9001779549662245,5.961303683468717,5.392393735031793,6.2133044424160975,-6.655388243890191,-2.14780674725692,-3.728318885749761,-7.260513041862902,3.4187312813883293,5.0,7.0,-0.8558929054691656
10-08,-6.6247848786360946,-3.0625770336437173,3.3155933517150835,-5.516411877341081,5.769834392612632,5.845382238184329,4.9160261347642935,-7.168045724261184,-1.7483282728118363,-5.683157706733359,-5.632242693657843,2.1251628255662074,5.0,7.0,-1.121962437020214
10-09,-8.452310239237724,-1.1250550498270933,3.1173024925949413,-3.0303039521282873,7.146189362346444,7.982397965239009,4.055716351980636,-6.357643261880637,-3.0401871365650983,-1.556198626635675,-6.384149812352025,1.8815669346855677,5.0,7.0,-0.48022291431499503
10-10,-6.421763671694272,-0.6893656228870011,2.6180100742297174,-4.640230054637806,5.344107961202331,9.648019246598482,3.9210311410188465,-2.179463308597249,-3.2081194130172492,2.559225978295095,-6.228879192517548,3.96225091650807,6.0,6.0,0.3904020045417848
10-11,-7.082399078703213,-0.86318844316311,1.5079519614486268,-4.803766101344938,4.536277550178645,11.943572136374591,3.671856897306749,0.8846028358099655,-3.067767584783679,3.3679011463907393,-6.247149603378102,4.498379957308722,7.0,5.0,0.6955226394537498
10-12,-5.3288982755831205,-0.8641125583721037,-3.242896925392834,-4.72199807799138,2.349789752487449,13.262307832480284,2.594889347974751,-0.7322634100498353,-3.219403241295589,3.291788663667751,-5.895792375026997,4.164973069481938,5.0,7.0,0.1381986501983595
10-13,-5.81363034279113,-0.49103232597581603,-2.2467176058384433,-6.587943391378848,3.626461993859436,14.294435256064816,3.9430410970952012,-0.6390570145633977,-3.6276599313879583,2.8345817610512336,-6.284402269835867,7.875560695626668,5.0,7.0,0.5736364934938248
10-14,-8.147943214050137,-0.3202423684676669,-3.0945296206632076,-7.142857710283994,4.32633343471278,13.59179046311686,4.640021219450049,-1.224867742603266,-4.931571731743798,2.0519698637089774,-6.695520832996646,8.753231028539961,5.0,7.0,0.1504843990599928
10-15,-4.838714468205092,0.17079810160988532,0.0,-7.433705196622993,4.90683194493755,13.08884305502647,4.612640610184501,-6.677861714527775,-4.746200218449926,-0.37339578986651145,-6.431342640884361,8.831599575704985,5.0,7.0,0.0924577715755613
10-16,-4.254734796850392,-0.4504566794965919,2.2633714169905366,-10.519615957489,5.284982340687581,11.539046884076527,4.407338253906612,-6.05427775435218,-3.914015944445811,-3.1451468129392235,-5.336615879900151,8.823761525252333,5.0,7.0,-0.11303028371331347
10-17,-5.4213494042107175,-1.7822289490015335,1.411374638581585,-15.117287024478193,3.595016852886865,9.927877225396227,1.1440750749631083,-3.6593589087734713,-3.9364592016771303,-2.880088909948781,-6.321839200457263,9.764124304425335,5.0,7.0,-1.106345291857831
10-18,-4.249996609158005,-1.7380036345289376,0.04116167462618675,-14.552564356443847,2.9190318298967157,7.559655524891797,2.1392601385772054,-4.101938196911374,-3.6499707471460057,-2.1453710547891864,-7.443893293433856,9.764124304425335,5.0,7.0,-1.2882087016661645
10-19,-2.2337230053788364,-2.40671258678245,1.7982693827499692,-13.68375132880552,2.110288001425282,7.388555884989735,2.9264918932126007,-3.9554216041597985,-3.696766388180687,-2.1943552347077655,-6.7258081135816346,9.764124304425335,5.0,7.0,-0.9090673995661475
10-20,-0.4334864483163295,-4.4983483664094654,0.8887976347300357,-14.803499360122006,2.140442180611047,8.307883571344119,2.056417023524867,-3.262201353587542,-4.3518875119543985,0.7825171177212145,-7.220809846775862,8.34574208521318,6.0,6.0,-1.0040361061684282
10-21,-0.05464606174183527,0.7717717439854377,-0.22736793700499805,-13.834170587419642,1.898733506351098,5.754728399298035,4.848151360204775,-4.879711814838732,-3.3910093464733873,2.1735016796441036,-6.851554684520308,7.734505680882665,6.0,6.0,-0.5047556718027323
10-22,-1.5573762802947948,0.661519839370537,-3.919519560818077,-12.015345908290108,0.23295779981482811,6.540184418806792,2.9143393446201546,-4.647999570315165,-3.9462897760681437,1.1504079491936583,-5.574663947610294,7.287832463973356,6.0,6.0,-1.0728294356347714
10-23,-0.9836082660115671,0.48383816757621384,-3.227156133982513,-10.161910092280097,0.8452041331758654,4.704616636763384,2.76453598101618,-4.548538227720175,-4.1652012492675885,1.4261266359077838,-6.025298990259598,7.256486240843501,6.0,6.0,-0.9692420970198844
10-24,-1.4007094854999071,0.7240057433035243,-4.488937900668822,-9.47412568148016,0.5165096564563149,4.488668178188194,3.230180840879803,-3.717675398233544,-4.270505994791981,4.055216016243287,-5.998192929267158,7.953923264110972,6.0,6.0,-0.6984703075632895
10-25,-1.596031959059082,1.6731865495533065,-1.8967285494430983,-9.218645739461609,-0.6104232170514624,6.764480414077571,4.024764876728642,-3.717675398233544,-2.253289724535133,2.895213032068193,-6.485998647798303,7.953923264110972,5.0,7.0,-0.20560209158696238
10-26,-0.6543016951274835,1.912214383663215,-2.3416242713952427,-9.963807075893682,-0.10920389468100423,7.265744474812283,3.45293903189025,-1.0332478492110615,-2.7732857643733726,3.786786540785202,-6.199455262616392,7.953923264110972,5.0,7.0,0.10805682349697372
10-27,1.1177749291192232,0.616067303176942,-3.0106597775081694,-9.222572834919664,0.046727072777059335,7.6063631535953125,3.926880955718828,-1.0464974670591356,-1.6061929453932307,3.227049601826691,-7.337444606003651,9.372305483323128,7.0,5.0,0.3074834057211111
10-28,2.9580883758092384,0.4840510825304913,-2.717957740525292,-7.685846135039484,0.10896590465750561,6.259560096606289,3.271405957337017,3.271958260166505,-0.7105423659797072,3.5996129055281973,-6.534475168469001,11.96615014452265,8.0,4.0,1.189247609762034
10-29,2.109002132197499,1.2541247200352335,-2.237858253909267,-7.302778399059647,0.35802573970628493,6.496090212714793,2.6117426942486195,6.0618020057331305,-0.24347719938858695,3.40437717830281,-6.813884989573274,11.495962776255418,8.0,4.0,1.432760718105251
10-30,3.286762540151754,3.57219669422466,-3.139116215564292,-8.3914548526036,1.2583522428605436,5.454263431422917,0.9693069904893454,6.0864956908012084,0.32280238205289125,0.9090911802859157,-5.943499099601274,10.59478427066492,9.0,3.0,1.2483321045987492
10-31,5.133078232790194,3.3225397012470563,0.394515422157309,-7.776369915621288,0.32623749497011284,4.642247771467399,-1.1352991090412348,6.577741204396734,-0.18409392011635375,1.9898103615436855,-4.966243859747094,7.381865154682233,8.0,4.0,1.3088357115607292
11-01,2.72904357115154,2.353449620226059,4.977371908904539,-11.664562890870144,0.7456941687936799,5.4525981365767935,-0.946539213774693,6.686043258707142,0.17130413506921524,0.8170705412814567,1.5724917212662857,7.381865154682233,10.0,2.0,1.6896525093345087
11-02,3.294569938811724,1.664108500118108,6.9895632468383235,-4.014291244027409,1.3394844619943367,5.394636716879191,-1.6648735336745868,3.088278391371674,1.0963900311100858,0.22108596581551476,3.686965873082525,7.381865154682233,10.0,2.0,2.3731486252501437
11-03,3.057010653731506,3.8001681757008354,3.799961154530612,-3.9773868389671523,1.2938945803797632,5.176649786289072,0.2801108190654058,3.156596814649605,0.708080327175214,1.8969679823289103,3.0770642999666764,6.3082854112178355,11.0,1.0,2.3814502638390236
11-04,3.9758725374440904,1.3236527110696517,3.996854808824261,-4.195510964594294,1.3698620485246646,4.651870194050483,0.9468374751152021,2.4186890348252983,2.895605793403495,2.0855413115753714,2.9818801031919815,6.707936304091976,11.0,1.0,2.429924279793515
11-05,2.221007255769448,0.8966737452484256,4.092533480792722,-5.793391611939914,0.6696781051344967,4.19991103825114,0.6492673541893508,-0.33747299381841916,1.9977169297748187,2.0855413115753714,3.593288488386851,3.683094526888459,10.0,2.0,1.4964873025210625
11-06,2.824246118778412,2.4626356772886435,4.789013552245292,-6.542051606985725,-0.8776075242734731,3.9590562336792914,0.9062602004323357,0.02689528376166202,2.5096515395678467,0.3446301105750961,2.0486678659290667,3.1423886192703163,10.0,2.0,1.2994821725223973
11-07,0.08320186592215688,3.8987992959819087,5.3463447384717995,-3.534387659143518,0.6268633713685237,2.4988764932762657,1.3749008287749276,-1.294636976280983,3.685391886850421,-2.1080222629492322,2.129179888539036,3.479353044565445,9.0,3.0,1.3488220429480628
11-08,1.3687380692806688,2.4831656014493926,4.535593134658139,-2.158731127542163,-0.6895449259356193,1.5322166858079622,2.5554829386314477,-2.628719148766364,2.767375368814648,-2.127447794901958,2.4870270259939984,3.479353044565445,8.0,4.0,1.1337090726713
11-09,1.6648488551118625,2.093904165249348,6.8693240282630965,-1.6296305984416337,-0.9987505795267696,1.0715349556024751,2.384807657436696,-2.2182868521387484,3.867524218590595,-1.3114420459524772,3.010268163513718,3.479353044565445,8.0,4.0,1.5236212510228004
11-10,1.9901841225811563,-0.29978455537743653,6.237662567962944,-0.4404343186421086,-0.04637313056840977,0.500901966329447,0.7608662638636519,2.789878821588777,3.6973965912864815,-0.1377540031801421,3.1227693993757892,0.0,7.0,5.0,1.5146094771016791
11-11,2.043040094537158,0.1713101279393744,4.066327239430988,-0.39831996576529183,-0.20127711748488655,1.509206108904134,0.027373114340066784,2.2182972350921815,3.1568239445939157,-2.004610671838678,3.595840824936505,0.0,8.0,4.0,1.182000911223789
11-12,3.023701002545279,1.4775212636695019,3.369434987184882,-0.23022313344892498,-0.18668753712026043,0.3364447511188573,3.119866888574721,0.929912183814537,2.627992204651084,-2.683882571217561,3.323209879908931,0.0,8.0,4.0,1.2589408266400872
11-13,1.9340754622164151,1.5401095630013217,5.026610013937594,1.2358611894519858,-2.974208638898351,0.6728895022377146,2.1346540078018594,1.6588600184207776,1.9362997995448237,-3.760007249742,2.6205889279910957,0.0,9.0,2.0,1.0021443829969363
11-14,-1.10161855150981,2.1887007308476627,3.524225810835148,3.2163102567001784,-2.705266744565912,0.8563963355570858,1.8112512944670942,1.4743311421022525,0.948744292408748,-2.1515075746152568,1.8655045569993443,0.0,8.0,3.0,0.8272559624355446
11-15,-0.3553779303193125,1.8340810866835102,2.154651023181545,3.7208334435962884,-2.73691406737983,0.3045020513290298,1.043099272390744,1.3311892652976434,1.3957769643512172,-4.863404978994925,2.3185578905811846,0.0,8.0,3.0,0.5122495017264245
11-16,-0.4652385459384959,3.1437071402308376,1.2451532750603904,2.900990281623631,-2.176651766884732,-1.2995111002734479,0.6202681718919867,-0.7118365795248156,0.6690527335568026,-6.35444656732599,3.3631143431614516,0.0,6.0,5.0,0.07788344879813484
11-17,-0.6819421741422836,2.8075468872160143,2.6127833234117985,0.5508519746351881,-1.6954442753881047,-2.536803525052655,1.4919194830474138,-0.7255287572286029,1.1996780323432106,-4.844498230797247,3.1850529472075624,0.0,6.0,5.0,0.11363464043769116
11-18,0.408167417357568,2.5503614029158164,1.9595894392301627,-0.04262672323994753,-0.6369364847302702,-1.833278242776612,0.027224838525857574,-0.8213531130121642,1.0420302156520684,-4.823603890702418,3.481458509060673,0.0,6.0,5.0,0.10925278069006121
11-19,0.9251704832323555,2.3146121300669518,4.966952788060067,0.9286670145357032,0.12409156125311577,0.6589032961999514,-0.31314277262076623,-1.754384313814067,1.7360336605575666,-6.6301712854771875,2.5143348147214803,0.0,8.0,3.0,0.45592228139293095
11-20,1.1156458432982568,2.931869635355654,7.288002188345273,1.2405385524635957,1.8285224461048004,0.7814926747410115,-1.1436405747941414,-1.7962396175950388,1.2706462723793444,-6.503976882171769,2.1047089178228817,0.0,8.0,3.0,0.7597974546624889
11-21,-1.2979873863202276,2.313734108397322,5.118971494729028,2.329933303505633,1.5058440832218052,0.24517875708209852,-2.200382356608617,-0.5961989076113442,0.046201102658092276,-8.274928303322838,1.5741057220323245,0.0,7.0,4.0,0.06370596814693981
11-22,-2.087392133675994,2.8088660173544158,8.35408490205056,0.9361363964974154,1.352189394672976,1.9066270242063112,-3.8531821688251635,-2.041084669259368,0.5560099000958513,-8.693383728789101,2.6176149951739296,0.0,7.0,4.0,0.15470716079181943
11-23,-1.3539698730609304,4.1745720630329854,10.1493736650021,0.9361363964974154,0.8335920433822814,2.6664695199823187,-3.056090845791696,-3.6668517162289573,0.09266978959556697,-8.693383728789101,2.039559548312368,0.0,7.0,4.0,0.34350640516119596
11-24,-0.5785098867392188,2.024033477326142,10.93451314762923,0.8300430018272246,1.7135904775445303,2.6084365710594732,-2.7243829169082834,-3.6941099535517976,0.09266978959556697,-9.135880549428784,3.4881716842080897,0.0,7.0,4.0,0.4632145702135145
11-25,-1.4325081782171953,2.2770436940875007,10.93451314762923,0.8300430018272246,1.7135904775445303,2.712773579026613,-3.5403198373971385,-3.6941099535517976,-0.47491720609156723,-9.135880549428784,3.4881716842080897,0.0,6.0,5.0,0.3065333216363922
11-26,1.0743785064608677,2.2770436940875007,7.774801375687053,-0.06281950387048814,2.2475258342195885,3.1880211269963805,-3.7339298420648808,-4.239368299449989,-1.1427188702518118,-10.839122457364695,2.4356462868087525,0.0,6.0,5.0,-0.08504517906181004
11-27,1.0743785064608677,4.3160961933679305,7.721783646942766,1.4169624534122314,2.1690050529368974,3.247334463412846,-3.7339298420648808,-4.724739436103922,-0.9778769766814975,-14.046830024738957,1.6560633402649345,0.0,7.0,4.0,-0.1568127185658984
11-28,0.13823400495349736,4.136201350356656,8.406241593228788,-0.08414159603913426,2.2141907429092824,3.247334463412846,-1.388516587494128,-3.8853424624878605,-1.7800729398356252,-13.359488487195845,2.2749067671789756,0.0,6.0,5.0,-0.006704429251045456
11-29,0.6873797287379916,4.535053711287013,7.425745414863927,-0.48380214094864793,2.2141907429092824,3.641206591724819,-1.609822995972554,-2.0358664871353613,-2.265819609646256,-13.163345617238159,2.2749067671789756,0.0,6.0,5.0,0.10165217548008591
11-30,0.7419633478764761,5.1899524497215435,2.1198660378873178,-0.27344815085081225,2.724958331900725,4.067200282060469,-1.0446401872539737,0.7325025862529324,-3.258585407647305,-13.381286758082492,2.4473067114286042,0.0,7.0,4.0,0.005482436941123788
12-01,0.13751165077349387,2.4166663487752276,2.524566533055466,1.716557854231611,2.6229016306687023,4.796722595850807,-1.256078192431175,-0.48833505750195494,-2.3125387339678687,-13.088660797228325,2.616931485554317,0.0,7.0,4.0,-0.02614622351830831
12-02,-0.3025319265815766,1.0208368301391602,1.8115217532581145,1.716557854231611,2.6229016306687023,4.431118603394514,0.14856916395376984,-0.854581176052726,-2.849795297523655,-13.088660797228325,2.616931485554317,0.0,7.0,4.0,-0.22726098968217454
12-03,0.8250803961074141,-0.45833587646485857,1.2333771385168126,0.8238263379623538,4.916333118374151,2.4522734307842136,0.7833628091339637,0.46120993170801977,-1.5100836410302594,-12.686086864486622,2.6347641633320587,0.0,8.0,3.0,-0.04368992133856279
12-04,-0.46754171092318886,0.6688956810275186,2.362357856382939,1.3411554343606837,5.89882956690329,2.246694293067141,-0.4186892960028836,0.42068825853924796,-2.063049147520376,-9.429151456742325,3.3212280540260486,0.0,7.0,4.0,0.32345146109317463
12-05,-0.881056435883782,0.10510665835885419,1.763462145361834,3.096797320574073,5.500657516343399,2.701903640408835,-0.8149938219731321,0.09530251563324808,-2.2870909262291668,-12.696825138051162,3.174196255974692,0.0,7.0,4.0,-0.02021168912352574
12-06,-2.5181803830856717,1.2468796497074237,3.0030599301504823,2.2149262787822477,4.601084249400764,1.436264418118217,-2.161045646041678,-1.0682093187489508,-1.1239771763943267,-12.696825138051162,3.0617547409044734,0.0,6.0,5.0,-0.3336890329381817
12-07,-1.1037463925375934,1.1292365515965979,3.3021560648808728,2.1739081113250123,3.783704780947287,1.155295206050289,-2.9689224962345215,1.0103731187962353,-1.3648294284788254,-10.634282884716532,0.9236480022335298,0.0,7.0,4.0,-0.21612161384480397
12-08,-1.3259655583425793,2.5052207196509637,4.829163597579215,2.3901980907187066,3.3807063392909225,-1.9814223057754883,-2.692898499350112,0.04042355831121412,-0.8143124952310817,-11.24705879934957,1.2364114791211014,0.0,6.0,5.0,-0.3066278227813924
12-09,0.10884602864583333,2.400838182139908,3.16854336085391,3.708182571937834,2.872185958059232,-3.6770494358145696,-2.669291258405276,-0.7005208400247701,-1.4765685519398895,-8.82837481329681,1.2450730033697777,0.0,6.0,5.0,-0.32067798287290167
12-10,1.1972751747183248,1.7536537073679426,3.8691089638335265,2.886182848826714,3.7868565660072053,-1.7268211441053325,-3.16100026742539,-1.5516528796888012,-0.42572212817522725,-7.786844915437746,0.8590923649297999,0.0,6.0,5.0,-0.024989309095748535
12-11,0.46258005155187076,1.2218281359591328,3.6837028035119777,7.695281222544076,7.330303572952548,-2.177973790394346,-2.3602139617490585,-1.5102049120429422,-0.09174522231024024,-5.506845285222461,0.5741048568016166,0.0,6.0,5.0,0.7767347893001811
12-12,0.5714260801977041,1.0341951612925153,3.572122525805383,7.053537688209992,7.051748457930571,-0.5600507423585954,-3.9994277954276782,-1.2622153926761748,-0.04630271537209526,-6.899868117905644,-0.8479059124909399,0.0,5.0,6.0,0.4722716031004197
12-13,0.6525227616500926,1.1593576158977525,4.4080863944106135,7.776474244830816,6.611931362068968,3.4034185134278956,-3.8208441661168617,-2.1285403161955534,-1.1906201637234082,-7.317068990438039,-0.6624271258732833,0.0,6.0,5.0,0.741024177494916
12-14,0.7334975487384295,2.216648640852552,5.424705791469055,8.323568016469236,4.988925835303275,2.4591424779787987,-3.9100592507392546,-0.013694052717820308,-0.8170941900293688,-7.338460349390019,0.2965323185294073,0.0,7.0,4.0,1.0303093988720244
12-15,0.46158559649930336,3.1950225957494935,3.610036601210732,6.878930673201836,5.407788596830522,2.3099312724281957,-4.610540363038618,0.10953153073917905,-1.5291294688776447,-4.29265963204991,1.2695407281113502,0.0,8.0,3.0,1.0675031775670367
12-16,0.37950499312754715,1.639006022868714,1.1969091525414244,7.170845967400198,4.111417577475636,2.0715030106666363,-6.588293491310816,0.15060324339094827,-1.050544584002512,-4.127515986653513,1.617897850940023,0.0,8.0,3.0,0.5476111463703571
12-17,1.8433188301070929,2.2614110691591147,3.4556002739217795,7.515124943436684,5.538459749885552,-1.0216775196577745,-4.861410965158747,-1.0405286510188176,-0.37101413892663043,-4.980843285203027,2.3938679454459724,0.0,6.0,5.0,0.8943590209992666
12-18,2.602328816362187,1.763490197850616,2.8366094123632193,7.740054166481962,4.294114954331342,-3.1114584887113668,-3.1925654205876293,-0.640939873131277,-0.011555148466470502,-3.30134475626169,3.1102709981092884,0.0,6.0,5.0,1.0074170715283486
12-19,1.8975353063732627,1.7227103067608818,2.855480252087172,6.786891643808318,4.735295912798692,-3.9164068716044684,-3.990712311501575,-0.408167417357568,-0.3942532185845473,-0.9291492576545077,2.956042305976822,0.0,6.0,5.0,0.9429388875918736
12-20,1.6041331489113873,2.3107132625852884,-0.9868388516284885,6.554200287215578,3.882352043600643,-3.8544859482728953,-4.232732599431818,-0.872657555223129,0.5872806636835534,-0.31675963959227943,1.4994430757671249,0.0,6.0,5.0,0.5145539906345804
12-21,0.13797750949755222,3.3421630320927447,-0.24957010507665142,7.38801899522486,3.1617669498219003,-5.189710915560821,-5.273988516791673,0.1633134745504986,1.2436598885356305,1.2247872916567633,1.1481418459447892,0.0,8.0,3.0,0.5913799541579662
12-22,1.5993498572771685,1.458802365284827,-0.19197249727041632,6.942016749161868,3.1617669498219003,-4.063898041847945,-6.150902294586232,0.6260297943001947,1.0824445551036646,5.289834425784341,2.4107582851403127,0.0,8.0,3.0,1.0136858456808067
12-23,0.6864360586738595,1.6437215269323604,-0.9406828125003432,7.782473416237269,2.067221049686242,-5.030374401165001,-8.300157896856168,-0.17691514354796523,2.120585189616782,6.4943222528036015,1.6621180986315678,0.0,7.0,4.0,0.6673956115426837
12-24,0.13728511689814754,1.2327891857286581,-0.2864264444114257,8.29352188176757,1.161230907487938,-5.004664911376193,-8.06427992487358,-1.9799185281825498,3.633902718117078,8.178938779284396,0.7783394602283946,0.0,7.0,4.0,0.6733931867223695
12-26,-0.8871630095137938,-0.12497682855386419,-1.8224090603716128,8.241652855784212,0.29854747666793496,-5.470942606174782,-10.509748811038305,-2.3740528545941593,2.5228300490502145,5.760937326535653,0.7348478322612254,0.0,5.0,6.0,-0.3025398024956068
12-27,-0.9151358951468187,1.1718743872877722,-2.099537052658337,7.797724007801403,0.4030402323873544,-5.671454521509858,-7.9999986585679945,-0.8566728930852517,2.9251635951576698,5.144788096263848,0.561944787903884,0.0,6.0,5.0,0.03847800715280592
12-28,-0.9151358951468187,0.7827004615587333,-0.2511612680272273,8.627680181856736,-1.8551970903815302,-7.2459207238160905,-10.245286287150506,-0.39493519586285875,1.6439875265450172,4.8059154212098605,1.3717309130747615,0.0,5.0,6.0,-0.3063018296783269
12-29,-1.000001695421007,1.7199020269523513,-1.4103620181724341,8.406904763334259,-4.730141537803304,-7.229099517895728,-5.036179825992652,-0.3540816221570168,2.176868747594189,3.150414542491976,1.1612026796944828,0.0,5.0,6.0,-0.2620477881145737
12-30,-0.3037851784943355,2.047502041105159,-0.7921171961119272,8.283677992913445,-6.5141910946677015,-8.284304555630548,-4.797156934636344,-0.02723225246261747,2.706025003563882,3.4089739353434076,0.6266595767241196,0.0,5.0,6.0,-0.30382905519612174
12-31,1.297976851392412,2.600328529475605,-0.2492756464320968,6.504701479764677,-6.502276596055721,-7.6501790523908415,-3.4163722788311834,0.4091694667300854,2.389496598611508,3.8925190697843948,0.3018008712917021,0.0,7.0,4.0,-0.035175892221621534
