,2009,2010,2011,2012,2013,2014,2015,2016,2017,2018,2019,2020,ups,downs,avg
01-02,-0.6146373796497349,-9.692924172357449,9.928801742296864,3.665369575385185,2.089929857525647,-0.22472541129226423,-4.699204836949601,-1.5299476814499207,-2.3122569543968616,5.096809247645115,8.888885479294013,-11.97764183271989,5.0,7.0,-0.1151285305557413
01-03,-3.062561591756293,-11.015261320690223,13.196729952132525,4.418694618782572,1.6941097172406983,0.05465918082402469,2.508157985695765,1.8867873855657906,-1.9295127477281182,3.5391301694123642,9.532424352383691,-13.108861530651097,8.0,4.0,0.6428746809343083
01-04,-4.279182041505416,-5.054938825113204,14.19258544755124,4.069882082990377,0.4116502884125059,1.2700900188620046,2.6395580212762675,-0.853964392181619,-2.5940621253287577,3.521741784137216,5.560582150821909,-16.644688469239767,7.0,5.0,0.18660449505689622
01-05,-5.888523270854352,-2.1848941288808637,13.903390833386167,3.541076436229898,-0.8081248837475885,0.7383207335669062,6.312144995444381,-4.4222653802268965,-3.1485151536393876,2.460871157438859,4.727817496263365,-21.30023042005094,6.0,6.0,-0.5057442987558708
01-06,-4.757701260822357,-2.34568567929635,13.446473756241136,3.2766772150188848,2.0295553000558746,-1.4096690378764942,12.563595453067707,4.088905323771536,-4.168315925220452,3.269822921695446,4.390487005446763,-23.917611094167594,7.0,5.0,0.5388778314928423
01-07,-0.13122825238810723,-1.388895211832643,12.103688909084092,4.047713234512806,1.021292357928814,1.0262164602850148,12.09160819521502,6.738856236516222,-3.319624500035924,0.10635712544055137,4.90037759285607,-21.284973627188332,8.0,4.0,1.3259490433661318
01-08,-1.501893776314346,-1.9032985201642716,11.303134758123601,6.343384729349161,3.6329821987911632,0.4239098994454124,8.729913830082578,6.653377455341053,-2.060624283090906,-2.8751383680838805,2.8774802999100686,-13.354955066284138,7.0,5.0,1.522356096425458
01-09,2.9746294270344884,-5.640471235417406,11.07885555936938,7.168816613363973,3.8867903036142626,0.29255804949153313,8.120604221742454,6.969614410146605,-3.3299897657446604,-3.177244433420371,-3.12955097388212,-14.536011037817437,7.0,5.0,0.8898834282067253
01-10,7.989574374950566,-5.685977541021346,10.076711581275346,5.048142489879352,2.7531423962641797,0.4059991117488299,12.14263437854739,5.055173744506062,-6.389545147111757,-5.889585393106411,-3.0567710876250147,-11.966246886603141,7.0,5.0,0.8736043351420042
01-11,7.074994457230133,-7.163133246814657,7.665138044627574,7.404415845969218,3.1156018913979584,5.650789775545635,11.77575808694706,6.9560165351488985,-6.908496863116969,-8.848554280928475,-0.7174074019722506,-12.71911631361989,7.0,5.0,1.1071672108678532
01-12,10.13570594496376,-0.9308200178718605,5.252524525990351,6.767188152430689,3.937736335141647,7.388098179112075,11.922871470420942,4.070739926848982,-7.367030162928868,-9.377952621877753,-5.936126894580405,-15.023535169046761,7.0,5.0,0.9032833057168994
01-13,-1.024096821610419,-10.788763035963,5.858582507629028,7.521089024531702,6.46758343047531,6.16532171212726,10.707541831722613,2.462384441462575,-7.387405792835894,-12.222880405994935,-6.497299606735657,-16.03799210890759,6.0,6.0,-1.2313279020082504
01-14,1.5071491788443387,-11.06074611572244,3.241938639849558,7.7634468336688816,6.509669202169234,3.5082640496266517,5.858368308214466,0.8055916885871147,-5.680799455997617,-13.310682257864691,-4.564274592447733,-15.429871338765414,7.0,5.0,-1.7376621549864708
01-15,0.5282845930092871,-9.780150829260041,1.3046821164836988,7.252079475598696,6.711414779837645,2.7125806541281032,7.156650630202758,4.286365185562192,-3.9826506489497997,-9.937948478433608,-3.0952621243193392,-15.070311785977763,7.0,5.0,-0.9928555360098473
01-16,0.9788705129594203,-10.324116988778876,0.4065883697306404,8.520017875043315,6.160181871965506,2.8610556161118383,3.1008578157501154,7.3111434965123845,-5.112112566833231,-10.656775679572284,-1.9844942314680234,-15.44176149345859,7.0,5.0,-1.1817121168364821
01-17,5.6401507670765785,-6.907534685008029,1.9256475148502408,8.817581344436814,5.666172888011229,3.5120746245493537,4.1523554119177515,6.985964287542999,-4.198360030686398,-6.341323068191379,-2.377264136183771,-13.173256390276034,7.0,5.0,0.3085173773366128
01-18,5.257408755236303,-7.001533174489646,0.6470360005735125,8.246250342472385,5.0973090395757685,3.357892103430731,5.770043296007769,9.926141372123567,-4.615386129904621,-7.006365284626193,-4.444447598716071,-11.488463753846453,7.0,5.0,0.3121570806530878
01-19,4.692406812910285,-4.880412404859634,1.5049960719618076,8.49877640027031,5.314375583197515,3.556166552546775,7.831197359971245,10.178229355626883,-4.406950314050855,-7.128138308428343,-0.11369572129360464,-11.046512389852381,7.0,5.0,1.1667032498333338
01-20,-7.983637499585396,-3.736809388213925,1.5826752958807404,10.170666186208786,5.122629368676623,4.36822484914744,7.4204541312393335,14.939279951918225,-4.684864735189206,-9.423002395369695,0.10313374078518085,-12.172988480347179,7.0,5.0,0.47548008542924397
01-21,-15.36559683338348,-4.01679485572097,1.2331261961441284,8.045975407890936,2.0822063554231023,5.9415309861043415,5.004718041393263,9.983055246102916,-2.6898253940175247,-8.478036072462329,3.3815455258338525,-12.759965506496398,7.0,5.0,-0.6365050752656801
01-22,-12.539742887243463,-1.281501651501799,1.2234144411796326,10.219353844395524,3.7290670655164124,3.9919486555314307,5.1935757790772055,6.777750737703869,-3.284417465974667,-8.528428425519488,2.8582875341384995,-7.5181129016143755,7.0,5.0,0.07009956047406507
01-23,-17.573297334232624,-0.6678025304941266,2.3891746637927476,7.651945882605533,2.072375698482781,5.417646432035983,4.74241607265561,11.330260632905844,-4.473392264750702,-9.151535140054442,2.237294099800947,-5.887685201383242,7.0,5.0,-0.15938324905297396
01-24,-21.820136817924677,-0.34869170877317496,6.575439501192158,9.597923326993879,1.8839795410768432,7.452757344049349,1.5671654295064155,11.648255685737672,-4.232430916665567,-11.964846379567023,1.5590209906442356,-3.325569015812039,7.0,5.0,-0.11726108496182736
01-25,-23.389583100870535,-3.104983814352671,7.800957322792472,7.65174288716965,1.6641830259356294,9.959447201775557,-1.3724198230898579,14.707102986473226,-6.531326593161221,-11.000850258221229,-0.32395191210640806,-0.8553777393758997,5.0,7.0,-0.39958831808594053
01-26,-33.385642625717956,-3.592476472003831,10.586590326922792,9.432823203068539,-0.12898744883418928,8.932580840721558,-0.4351153318296961,2.9256071184654386,-7.033733924138801,-11.293833147495572,-2.884111215530199,-3.2744917600790306,4.0,8.0,-2.5125658697042454
01-27,-24.995314782255427,0.3129056048472504,9.738613033559066,9.977520793826391,0.9095256286550668,10.144117745075713,-1.5173009282693675,4.962596540323999,-5.506001039468838,-8.861710540376874,-2.690254085276075,-9.626656236590424,6.0,6.0,-1.4293298554957934
01-28,-34.46088934430314,1.2624063067466211,10.368039753154171,9.605152310219944,-1.9955657158295121,9.119564553965693,5.2993661935561756,1.2802063185041708,-3.720403059108078,-7.121198079212504,-3.535618442344162,-15.01717496460628,6.0,6.0,-2.4096761807714087
01-29,-31.789354802192932,2.4385003547569664,3.4310600364177732,10.412594789788908,-2.785427078061752,11.687410566179308,4.428673730246651,-2.1576525782954237,-5.088259336659452,-6.475480962294611,-5.281651465288912,-18.892402662296504,5.0,7.0,-3.339332450641665
01-30,-30.251774424474082,-2.4994655659124856,4.796421127831376,8.917146638186761,0.47273753764353654,10.893583615445783,4.299688329019058,-0.8613085224680449,-3.360221798670033,-7.695900074481851,-4.640147296120624,-19.968352499269503,5.0,7.0,-3.324799411105842
01-31,-29.819097572180077,-1.5948962799868456,5.27112305016014,8.97864777111895,1.5285178380079705,11.370948654060896,-2.651724689315706,-2.355550130208312,-4.732450838623804,-13.389865979324053,-4.377100160607438,-15.363928452456408,4.0,8.0,-3.927948065779557
02-01,-33.373294649681384,-0.9508732291280698,0.5095923748750804,6.991040788514605,-1.323674723296187,13.724860276310483,-3.1208151853180923,-6.719182294807381,-0.9495221581859922,-14.888580897987728,-4.0088357764012645,-18.95000457763672,3.0,9.0,-5.254940837728554
02-02,-46.39174740160883,-2.3199376840270585,1.3340735532860093,6.481641677373237,-1.2568624950772471,14.613025521778978,-3.8850204124430574,-3.2913059512918377,0.33983403989428307,-11.250250313653726,-5.7234013334233556,-12.82011482805912,4.0,8.0,-5.347505468937644
02-03,-41.31972959164794,-1.4401975138938663,1.5088778662348212,4.189359078597505,-3.4878056223799545,14.554381515204499,-6.572971817505429,-4.761197673740672,-0.8895545852087816,-8.282266483635611,-3.069901618631217,-13.538024265989382,3.0,9.0,-5.259085892716335
02-04,-34.20744399001518,3.047378603887679,1.7572947089950188,5.859212974890791,-4.515970078540979,11.996239309049905,-5.193949263555582,-2.149257375233209,-1.2491070501586148,-7.994086598631565,-2.65468418514184,-17.924078786971492,4.0,8.0,-4.435704310952088
02-05,-35.20547632282279,3.0891244979126657,4.95094084193795,3.371381840071938,-3.3039378322411967,12.07412427778286,-6.299043775222469,-0.08954859491604478,-1.1463906431130055,-7.612219021555043,-2.984291595938318,-20.240325920867182,4.0,8.0,-4.449638520747553
02-06,-33.87476654574599,3.8025160012931507,3.464985381876025,2.773851125706397,-3.2404456562655217,9.05034647278792,-5.857004284315325,1.1841150827786553,0.3697439269615129,-7.187401597165093,-4.611700838785287,-18.398877307481023,6.0,6.0,-4.377053186529548
02-07,-36.45832881086161,5.956043937102999,2.753734981342484,1.410578380115504,-3.320068351114702,7.344220216144692,-7.099007557009708,4.173089489021835,2.3510462841253235,-4.867647366928622,-1.1420441532318295,-16.02683575157035,6.0,6.0,-3.7437682252386657
02-08,-35.85557572185108,5.9463908310617795,1.3559273572423278,1.5202414972440716,-6.114649998788165,8.824453483613691,-8.332389385623143,9.328210946942601,-3.490453964654254,-0.1685319364691488,-0.6090902150569912,-19.12073415320654,5.0,7.0,-3.8930167716287376
02-09,-40.30146852988132,3.579808288611296,1.7485879491048597,0.6098660466047171,-4.531200133209363,8.277170057004337,-9.382119941873285,7.043652767385655,-5.251498082232706,0.7931030335824341,-3.1308162650509335,-33.2730523780016,6.0,6.0,-6.151497265662992
02-10,-25.496128741959545,10.724401929239587,1.4744850122783946,1.1578553700377747,-3.6213894368572337,7.855067899390625,-10.523261907307877,8.953779448422033,-6.970368536033206,-2.5350463710050537,-8.98888989311787,-96.0106381359765,5.0,7.0,-10.33167778024074
02-11,-19.185186315465856,7.871306219701238,2.3629488921441615,0.900276528032785,-3.6374883744539463,5.856686432388343,-7.683412665517323,9.272079130312399,-4.858935918664418,-0.3307357274293637,-9.216318979086916,-79.78366264136618,5.0,7.0,-8.202703618283756
02-12,-18.703700878002053,7.952239247447117,-2.013030883948772,1.3915516235886025,-3.0904091450444775,5.412415064107833,-9.532062055580056,6.310552246305483,-5.865595004634058,-2.473917363160008,-9.94480749901561,-93.97837382776102,4.0,8.0,-10.377928206308084
02-13,-18.000002260561327,5.072611113105112,0.7098911397708668,0.30775177454024133,-2.864183154335103,5.217956791079945,-11.98150751189013,6.060602541674791,-5.687205581293978,-2.418788700779364,-9.235633209168677,-94.75038372751871,5.0,7.0,-10.630740898781362
02-14,4.3700044802097375,4.878050878162215,1.5300828612557384,2.6529726269595577,-2.6562956718049353,4.413114002841897,-12.57729424156508,9.696729031571262,-7.019777223929473,-6.877568113484223,-9.472732774705795,-92.79463971235259,6.0,6.0,-8.65477948807014
02-15,4.661806953302454,4.200639612408802,1.7924879987543167,-0.1395152008101475,0.531261484035861,1.6346866947132732,-12.999178537840224,9.213692835143453,-3.801774710718113,-7.808592551224011,-13.187309862730334,-129.3230731670673,6.0,6.0,-12.102072371002663
02-16,8.582572724331893,3.7935360020345055,1.4355441005517564,-2.563657510971924,0.3261836672970577,3.2532145034391147,-9.772464378583207,7.770684924975721,-3.2042042948477145,-7.758534435233093,-11.171809979169517,-114.16666785419214,6.0,6.0,-10.289633544197295
02-17,10.87162751432991,3.0790074349371475,0.25839472541518543,0.2877588334291221,-0.7514152287209679,3.9042876277321406,-11.16358810060603,5.623668935523584,-2.029673676340089,-9.437402346264996,-12.222848392636385,-139.6462953862341,6.0,6.0,-12.602206504952955
02-18,8.692145678992436,1.5342879220972134,-4.210930821929447,-0.017300244690925472,-1.9157693019609776,4.884756457115108,-5.12904666738704,7.43603646451991,-3.7983922780943313,-7.476358750015745,-8.474761826267262,-141.27549450283462,4.0,8.0,-12.479235655871307
02-19,9.982258981225426,1.2211650127950375,0.33124826034290855,0.9676291019265691,-3.2450674647228164,4.623259332043718,-3.4634891493620805,7.102880818264754,-3.152546827653774,-9.637450742484887,-7.353576693611885,-159.67741325585496,6.0,6.0,-13.525091885590998
02-20,11.127234152473104,1.2542862181136616,-0.3613447498802009,1.4822368794755834,-0.9109644687414389,3.9993601284169538,-0.4632673196337487,5.607844334022671,-3.3776761159515716,-6.542975558682038,-3.0138694421145447,-155.34273279346905,5.0,7.0,-12.21182239466422
02-21,19.386467126557648,-0.44711415022270007,2.7648130959308688,-0.8194598979240079,1.7427099061078115,5.081852952237622,-2.6806674395195995,4.522012816535904,-5.225856876333913,-0.9830108716325001,0.5631462289754047,-149.36155414559593,6.0,6.0,-10.454721771240283
02-22,17.707830646655538,-0.6666673337175547,4.446013486583478,-1.6255216089985032,0.7129289774308669,5.217258361287989,-1.378473749220591,4.9368089062636065,-3.0427862725712993,-2.20461689779116,0.37543081931693645,-110.44551804092227,6.0,6.0,-7.1639427254735795
02-23,22.85109241888977,4.493303330108359,-0.2805292326469063,-2.3635906327309417,1.7191322490561933,5.86516673396064,-3.2921351743548106,10.382087910928096,-3.0850482006035,-3.8652444158627333,2.188502824892144,-100.372613600134,6.0,6.0,-5.479989649041474
02-24,16.77590463923847,-0.11882965400691567,3.418954621121003,-3.286183616020671,2.568416248717522,4.852326957209209,-3.117969818375059,8.4058033656787,-1.7432662432950452,-4.986093491795113,-1.1421858361854655,-102.40301623930061,5.0,7.0,-6.731344922251165
02-25,17.985498257259344,-0.7021729804707445,2.0338386087761915,-4.7757175761963016,1.7349915733114514,3.9515618493489146,-3.4126275300886584,9.74967243361095,-3.2697038111405585,-3.429054631105862,-2.1233037795024368,-68.31658077367622,5.0,7.0,-4.214466529989495
02-26,18.96279798189041,-1.5987937364294165,2.803985640496048,-3.481606795644163,4.1892894896651,2.9564817927028626,-0.18897084334746336,11.067195463777214,-3.2152677968937122,-1.7848825642765898,0.9074527924655681,-59.23407142778196,6.0,6.0,-2.384699166948008
02-27,21.122317152037386,-5.848807273572415,4.449551911006224,-3.084877827657873,1.5360712345177738,2.42035915816469,0.2667828659537587,12.91363861586315,-4.851152861353945,-0.5736862596135043,-0.47574225082875604,-51.171584973609995,6.0,6.0,-1.9414275424244585
02-28,26.455881725803703,-5.647957802012137,5.17562036174821,-4.789721324157949,2.474782748689271,1.4053700899769945,2.51751645839767,12.866762847006516,-1.784024485159976,4.6177029789868405,0.623740734467378,-59.38523686156804,8.0,4.0,-1.289130210651793
02-29,0.0,0.0,0.0,-3.8584360694232602,0.0,0.0,0.0,13.135651517341543,0.0,0.0,0.0,-59.01847344167728,1.0,2.0,-4.145104832813249
03-01,23.132694154483087,-1.8179888748391084,9.810310055487317,-6.640524118470186,4.577187103067265,2.155491203875508,1.6563604686820916,13.823725284350447,-3.1443330430492766,4.843413370820426,-1.9346674087158517,-74.61111280653212,7.0,5.0,-2.3457870509033665
03-02,19.537592171966487,-1.5963204967035194,8.80946370075107,-3.8949232686657074,4.99999702441706,3.991687071310923,3.342741319141699,9.04154674314152,-1.515465175982603,4.589490076908128,-1.648466747206317,-79.70269134638423,7.0,5.0,-2.8371124106087904
03-03,12.27172682977122,-2.6569567754813126,6.795877118550776,-3.8341592679196124,4.9035730846747985,3.5071646770814104,1.4396331766571013,5.986971820336572,-1.6185563864167203,1.9360452149285259,-1.7125417610755624,-73.80290503229962,7.0,5.0,-3.898677275099369
03-04,10.5548791900155,-1.9927155381690436,8.230560438834543,-1.8901876714339052,5.229160282121973,3.2329808740227297,1.308762728415862,3.054574922804949,-2.9844618509066945,3.2867855940038493,0.13410860278351122,-85.20232559831769,8.0,4.0,-4.753156502152034
03-05,9.259584835680554,-4.328263417648457,8.379039849953731,0.13233482831775517,3.370791166716168,3.899705216393508,2.2903326945133444,-3.9818122302828303,-2.583287098135064,1.0881208037125578,0.5726215869680108,-78.8150337005366,8.0,4.0,-5.059655455362276
03-06,8.856995061593025,-4.766516234996509,8.28617079919632,0.7396938675145927,0.39651071058705256,3.6121499435050692,3.4027731088521125,-4.761244116581468,-3.2075089105994055,3.8640882938859784,2.118596675507401,-59.82659443878858,8.0,4.0,-3.440407103360368
03-07,16.426327467817565,-1.8727776535214218,8.27067727326723,0.3698469337573026,-1.1578105488814094,4.187268187187821,3.8368778263134318,-7.338933069666542,-1.3027977397423665,3.1678942885371453,2.746728225989927,1.827678268625409,8.0,4.0,2.430081621640341
03-08,20.14571007865502,0.40911722432050146,9.16866352085731,-0.7485083848095643,-2.0459906684214655,6.085444517777929,5.382372897256635,-0.028347948407815467,2.818200398029524,3.436691844084088,7.974020908585916,5.7407895476719535,9.0,3.0,4.861513661300002
03-09,16.935753648739045,-0.6880322625151102,7.847743836278437,-1.2504454287321962,-4.720822906514892,5.2570865928279105,7.536630461557059,-1.4602652312578495,1.9266292760143986,1.315153250713919,7.910746426353088,4.641140798607785,8.0,4.0,3.770943205172632
03-10,8.728654936587981,4.723348396742363,10.43462763025061,-2.904457845971687,-3.134271472632766,3.4769720909690576,8.571119645048213,-1.4742985177849948,2.8591933420515985,3.573477510718088,12.541818373374042,-0.653270338990247,8.0,4.0,3.895242812530188
03-11,6.848371808012471,5.745131296705142,7.978395808291882,-4.167432715735315,-1.3949123500471328,5.987231372231383,7.964693524936818,-5.560234508001544,3.1616583447521074,1.2557625580933893,13.289104115999924,5.976291099138559,9.0,3.0,3.92367169619814
03-12,-1.4490255906496539,5.937918025412061,7.090532551150744,-5.854431098842965,-1.4269020125182748,6.45274856367683,8.857934655420962,-4.660604581224705,2.4753529652845168,2.6407388276930805,11.758137743505745,21.364629663335673,8.0,4.0,4.432252476020335
03-13,-1.7595315443936907,9.414734275447536,7.090532551150744,-12.355767763577976,-0.9796375473945457,7.574527891201374,9.19821505919474,-1.7830373442604563,3.6725197907980704,7.068549462654248,10.290695144999061,15.799666839326381,8.0,4.0,4.43595556792879
03-14,-4.18289797225421,7.521234614776005,5.449542459778592,-11.393884123018303,-2.4957291523316454,6.028293604709004,8.160064395884831,-1.0403953801393908,3.361259713779204,8.692872032529952,9.156285433158029,31.33142028529453,8.0,4.0,5.04900549268055
03-15,-0.27710185472015786,9.600672593980608,3.4697434761973316,-12.316659233657482,-1.3994737366595327,4.58159486150057,8.996785527988244,5.031610654615026,0.8377602348119764,9.826325274279867,10.00709464892229,30.61133290221522,9.0,3.0,5.7474737791228305
03-16,0.7261590351382814,10.150860658675803,5.532956073421511,-13.433707859173305,-0.5223750176518016,5.084659362569988,7.170768550490801,3.5227538014552544,2.09439668970943,8.180991273130424,6.897604534022362,28.158928797077664,10.0,2.0,5.296999658238867
03-17,-4.263050226111577,12.334159798710747,1.7448696270915307,-11.566240284884866,-3.8669101172731217,6.347540294934579,10.014509770267903,1.6456657230465004,1.4814027267369376,10.465540811883264,12.714841610549223,26.852948793537607,9.0,3.0,5.325439877374061
03-18,-4.67588886661574,14.649100560082301,2.4229276651183476,-13.606887941008605,-10.964790400791703,6.458311482423568,7.45201662983721,2.764208742120968,1.3026942977689453,11.304265719546006,9.988253332649002,25.394834083139546,9.0,3.0,4.374087108689154
03-19,-6.752194271888354,16.094797163448522,-0.6141621185681766,-14.225944559830245,-6.814934967016235,7.2643667059291355,8.60555367901386,2.3775845420480546,-0.6064427381389798,11.304265719546006,9.252566059488123,16.72097836801721,7.0,5.0,3.55053613183741
03-20,-4.57461007374975,17.194570135746606,-0.32420803979048024,-9.456102809291512,-9.946000870317116,5.879734604823624,7.431603559958388,-0.33020737422155433,-0.501361361650138,8.834907386427558,6.311674822453514,12.534469983716034,6.0,6.0,2.7545391636754313
03-21,-12.803004038187085,14.85996188639351,-1.3925536916803778,-9.254103445422048,-7.9080315756733,5.2319264994503,9.183673469387756,1.9111612994245641,0.31635879570295256,7.1510853380071975,5.354172749621144,5.421685425569063,8.0,4.0,1.5060277260494728
03-22,-9.986684116408709,15.269930725039776,-3.55348437587553,-5.9326105537152,-8.848635855350347,6.147905111512981,8.46446886021495,4.081885302225945,-1.4578203419496394,7.585288147395712,8.470931410064942,17.447416850951008,7.0,5.0,3.1407159303421572
03-23,-18.06324886520087,15.577080453609254,-4.202063051819109,-7.257372872107851,-7.466829236533851,7.467051365896267,8.942089272348223,6.337414935906647,-1.629324287865271,6.19406110614391,8.896305856624313,16.103953238499294,7.0,5.0,2.5749264929584132
03-24,-12.598843793475481,17.252169999028176,-5.554034679141681,-7.887653568536305,-9.238359927709054,8.432334425261129,8.02360523225303,6.3878033506084915,-1.6829238711722483,5.673448937882453,10.676811085046495,1.7283969455295138,7.0,5.0,1.7677295112978764
03-25,-12.56209712506114,20.0679395963657,-7.3718823466113275,-8.861501495666433,-6.460478131002864,6.405113260058143,7.922208910477148,6.0980267100892664,-0.08573869136507938,5.615514132956172,13.346409784493654,8.018546412089503,7.0,5.0,2.6776717514018955
03-26,-9.989355938866296,19.915979138001887,-5.920231411777104,-8.262553391954478,-10.170934954260149,8.583939965059278,6.489249269116488,5.8489194904227775,0.21372576803087975,6.330544126521992,11.097562852148272,8.389345581855782,8.0,4.0,2.710515874524944
03-27,-5.234209955628775,17.74179512676061,-5.872887756789611,-6.539015826337591,-6.895686335381031,7.946325017719393,7.308085581037369,7.89668751142005,0.3840416242325333,7.2083033168792126,8.995580030687858,16.57010723763415,8.0,4.0,4.125760464352847
03-28,5.755154933373847,18.255365734599586,-7.340951941589023,-3.006668175389035,-6.787298422688074,6.185763120227726,6.237913364018091,6.5571755477146585,-0.020997452677451497,10.034663499079613,8.370217792270251,20.895525606952663,8.0,4.0,5.4279886338244046
03-29,10.305522416072442,17.354199582051905,-7.116001487089989,-2.4335209343832647,-7.154168414764752,5.213571798844989,4.735320278381395,8.854798186935836,-2.8522982833659465,8.77816702674896,8.42794105298266,19.326570457000024,8.0,4.0,5.286675139951188
03-30,9.227809180550214,14.075302680766882,-6.648174805973045,-4.387858832617336,-5.457076861297408,0.9642587058023379,5.361546002443349,12.838715181465565,-3.032552947077176,10.80589346258083,5.035265769445515,21.463855358741696,8.0,4.0,5.020581907902619
03-31,13.614136537638949,15.061228297677184,-6.039727873100835,-4.450794305625596,-7.882800154253121,-0.025496151847192207,6.875885340256989,14.116672587399268,-3.435484653841767,12.489374339717184,0.9603543506218216,20.14228871830835,7.0,5.0,5.11880308607927
04-01,13.097044532152985,12.648507192004852,-5.932352475563048,-3.9717501049199235,-5.396534228812631,0.6424406464598397,8.5422065626104,14.755651290366117,-4.258063531691028,11.867454834918888,0.061853153189447646,27.493718380061534,8.0,4.0,5.795848020898119
04-02,8.229382732755457,10.647049644335778,-5.70637542247653,-3.2237510192443204,-6.512049480992105,-1.1326536840322068,7.048324573757088,14.140923088733706,-4.821620631862332,12.896672674887585,0.0,19.740154532007338,6.0,6.0,4.275504750655788
04-03,3.9549719479896916,12.124757535638402,-4.7058819559594225,-2.0947533321412317,-6.117980754895929,-2.704083189672353,4.882690216054731,14.899545846962035,-5.356949223696868,10.624360431399579,-2.2200467178990464,16.408218002428885,6.0,6.0,3.307904067184039
04-04,4.3793301817010875,12.798792144119082,-6.697313991046635,-1.1346979114392606,-3.3913983987196126,-1.8061190235371491,4.123288860528495,15.064026823617022,-6.944592426993607,10.698673976583613,-1.9370973894003476,17.006942331747638,6.0,6.0,3.5133195980966945
04-05,8.141647879898914,13.904544958606715,-8.10910450238677,0.09150665742873204,-4.981905308191451,-0.8340172319674303,4.074821756440865,12.513948507499054,-6.342632475295288,10.518649045828637,-7.334854618062811,11.532419620468005,7.0,5.0,2.7645853575222645
04-06,15.74125487017267,11.66545796403543,-8.025968081737046,1.683744837522087,-6.033259238886439,-0.8963556238055833,4.547737871841816,10.234428399273332,-6.8548395478336355,12.618946445052106,-11.562190646740287,15.639711405185391,7.0,5.0,3.2298890545066534
04-07,18.363611495899573,1.3597036513004512,-7.88483720273142,0.25066998919445205,-2.347149503083234,1.329974503601228,0.28559791606326473,9.944542165148032,-6.102875265638184,10.886996509129549,-9.438945750305617,10.249723092736245,8.0,4.0,2.241417633442861
04-08,23.835934261837124,-1.7020071757079263,-7.88483720273142,-2.0419807267395087,-0.6743878673015617,4.747658302946665,1.0938166759559973,7.398532125195158,-11.252823241995012,9.83778654144507,-9.031132930830656,1.1998238115832485,6.0,6.0,1.2938652144714318
04-09,20.869341622505456,0.3803380553799601,-7.97316704981801,-2.5484450547766215,5.4830881476466695,5.573054600880145,-0.6625970143936212,8.921978598825959,-8.461710688615858,9.228204576832887,-7.398127049287984,2.2251318812573957,7.0,5.0,2.136424218869698
04-10,20.069647624899485,-4.698639669377496,-4.867829122017464,-0.009618363723362779,6.729513553323993,6.374654305576942,-1.58813049827135,5.935432321850294,-7.503541356992099,6.618091068460001,-4.99840969759913,5.5628255422607955,6.0,6.0,2.301999642365884
04-11,15.71000537233098,-6.28719178652221,-1.2127187188483808,2.04567227125917,6.990572745699157,5.878426957048175,-1.2727298838569368,5.88758556631859,-6.809251315287962,7.122845168891113,-4.99840969759913,10.391224001370178,7.0,5.0,2.7871692234002285
04-12,19.383375820864572,-0.6479504697604949,1.4614299860055497,-0.11417958927143056,9.985494744403663,1.7399038769817359,-1.2727298838569368,2.7843987548384646,-3.120369070948108,6.630441886314833,-11.996170292177512,15.860057777277884,7.0,5.0,3.391141961722685
04-13,15.950090330661244,-2.5205264879632074,-3.6741944692504305,1.6841072014879568,14.61640147120379,2.268282873008622,-3.362080352073096,3.1623517494746958,-1.1635270398441775,5.747520349639882,-8.361635251948567,13.142053003626335,7.0,5.0,3.1240702815019206
04-14,17.378838965510333,-0.8396417098826701,-3.7772974853104166,3.5114124665779607,13.018415295159544,3.550752920540194,-3.2651700061976068,3.1250026715229335,-1.2693007580086502,6.666667094263412,-7.494739733244258,15.064363424327528,7.0,5.0,3.805775262104858
04-15,15.756538771960413,-1.9560830414352013,-4.077231581759577,1.4007547412882866,13.070477885715931,3.8604142143957834,-6.9432322230315275,5.739542614376565,-1.5485777507172032,5.4424723786165385,-9.219254274419301,17.240666476670473,7.0,5.0,3.2305406843050988
04-16,16.695105111943896,0.8396346703968303,-4.122447158740952,-1.7121889468166118,12.819197247232692,2.7815200646831526,-6.9869013455137114,3.8012392032220497,-1.0982058596007374,6.454334043151593,-8.490568631719714,24.232365394808102,7.0,5.0,3.7677569827538826
04-17,14.561999300638831,0.08327531991147796,-4.201441770297343,-5.634516700807059,14.752396158895303,1.3955770513396426,-6.146293642573688,1.5384603445614933,-1.0661822770451728,7.552192944799622,-7.927083169940638,13.195021804318538,7.0,5.0,2.3419504469834176
04-18,21.566702996098286,-1.7909337274624115,-4.937923542534217,-5.2753930082823075,14.38859939975373,0.35611428406944995,-7.726214314418649,4.027760443259393,-1.065757199707346,7.119342819653421,-10.078425259343637,13.43566656819787,6.0,6.0,2.501628288273632
04-19,17.992672204097996,-4.611057204345466,-3.6549574737652426,-5.063165528798401,15.776969051020902,-0.7689321899489214,-8.03580915770202,2.991298823752568,-0.36579233829826596,6.139916941952803,-13.469689489466083,13.653527882892636,5.0,7.0,1.715415126782709
04-20,21.22449146141396,-8.430577700385848,-4.877130758101459,-4.1232965708819735,12.625731527324366,-1.0048768578506098,-6.47058236878564,1.2933725508800227,-0.3765531092061167,6.197529859503601,-12.492119512004113,21.491229505913026,5.0,7.0,2.0881015023182683
04-21,20.980279783321805,-9.429716397436305,-4.924029135957137,-6.431068801873066,13.937152291401917,-1.2023418287844734,-7.013066753650424,1.5545329474832772,-0.6777890301204575,8.965521245489722,-15.104282475595083,20.0552701895263,5.0,7.0,1.725871836150506
04-22,22.197682618883334,-10.544848308043926,-3.489020348414719,-7.569308587192297,14.165621265402672,-0.44164977027952085,-8.003535194609881,-0.6342426111295602,-2.235789472983507,8.704988073726188,-14.293338328382399,18.043684187417327,4.0,8.0,1.325020293699476
04-23,17.007182626045097,-11.23935976374028,-4.104159412959131,-3.393215199033549,12.86863191568712,-0.8832547394388996,-8.633647620646865,0.39960000937478024,0.07461858719325233,9.894076824083827,-11.471297224481573,16.01139612699193,6.0,6.0,1.3775476774229756
04-24,12.796802816177536,-16.813794046600236,-3.2662591610750495,-3.0790437785537597,8.40143052466554,0.6528420519085938,-6.920188149001419,1.4335097120158065,-0.6766160984730079,7.409506819695956,-11.871702017589223,17.644825539009815,6.0,6.0,0.47594285101504613
04-25,13.832142372670017,-11.820267871472419,-5.841723105890288,-4.650937560343111,6.927360095321674,4.915517056999252,-7.627682506867593,1.8579975011783927,-2.96119950277422,6.163605158681538,-9.869764080834956,15.40360944978372,6.0,6.0,0.5273880838710006
04-26,10.508963198644713,-15.529994506773281,-5.336605499149142,-6.705997934587055,9.020079882264998,5.856380461836168,-6.416004900691549,-0.351558883546432,-1.769719889989199,4.358432642740168,-5.349255618784833,14.870028334626529,5.0,7.0,0.2628956072159235
04-27,9.784656790833523,-10.049638598878014,-4.253736303919773,-7.197640033902419,6.873896642530107,5.420527324498341,-7.866162537205537,-1.7212328763349372,-0.35610428140191175,5.033340602081923,-4.40210545332118,14.80489296957408,5.0,7.0,0.5058911870461834
04-28,8.488519616532297,-9.7052341212171,-4.458961329074727,-7.97443545104428,7.206996979595723,5.684335474387323,-10.44307055439724,1.432357264298273,0.18344466634756088,3.9112091857957276,-9.172764958744166,12.55831892872262,7.0,5.0,-0.19077369156649868
04-29,3.7058721308049125,-11.550034609180134,-5.457095401168792,-8.949297113933087,6.802722159533244,4.879213641324918,-12.067413330078109,0.5536820827328293,0.6906219944902383,1.5085890459626177,-11.289577701300988,9.501229594208938,7.0,5.0,-1.8059572922169504
04-30,7.016255070105593,-12.41227706834504,-3.488811193688568,-7.921373521959474,7.596088945989098,6.835252661403128,-11.17977185195753,0.36110140243843086,-1.1096486195128938,-0.34816238559551504,-10.262888736960777,9.899490358466519,5.0,7.0,-1.2512287449680857
05-01,3.2078437376547373,-13.856025657530438,-3.459851691063832,-6.074768939065978,10.539787553271644,7.671831455008669,-11.123597220088659,-0.5832268648121398,-0.887960477696107,-1.1616887400023113,-6.317249872953766,15.475061479710448,4.0,8.0,-0.5474871031306444
05-02,0.7850154111456616,-6.619092367819213,-2.579751156877928,-8.208734618164986,9.907403057064975,7.728876028252886,-11.48625652103552,-1.4833873838416027,-2.5106002354879706,2.5968608507654007,-3.170193051133715,9.488764076484237,5.0,7.0,-0.4625913258873145
05-03,1.571254935808449,-8.317437547974817,0.9070898564284116,-6.654125520200581,6.662650268858182,6.956031026824829,-12.064490532978873,0.8972509236199714,-1.6055858895311623,3.1312624691959057,-5.1718167359944385,8.29899831455798,7.0,5.0,-0.4490765359488453
05-04,6.100104576005753,-9.332535814570091,1.765416044928747,-4.257850423522424,5.01168242032056,6.1909289818767865,-11.976111984655944,1.7461345660797216,1.8934770575796007,4.258515683992483,-8.670794257599278,9.785754797215468,8.0,4.0,0.2095601373042819
05-05,6.823247619355577,2.3944332538790603,3.5493149834845847,-5.508553296274827,2.3702595223230993,5.817040627431911,-5.313584104750393,-0.6315815928550697,-0.6311590191931635,3.3273900773961764,-11.431364099075893,15.98248844507279,7.0,5.0,1.3956610347328209
05-06,-6.83477897937267,4.993036894123392,0.6932248665085171,-14.290388061291495,4.333965149504863,2.8408084611456097,-6.819457981288483,2.5634671143333976,-1.4269921391074751,3.768482587220226,-9.99397374384473,17.21148449184643,7.0,5.0,-0.24676011168520132
05-07,-1.3090766876631839,6.412996438152552,-0.3696655118359827,-15.896012029461954,-2.6710038449468554,1.485382899555741,-5.044374515234317,2.2984203295075774,-2.2413047829956905,4.027975775723699,-8.898908529460435,12.750582797154896,5.0,7.0,-0.7879156384586626
05-08,-5.925317720601416,2.9527070026826165,-0.6874114987454429,-13.192548987529465,-7.298466629473468,4.362131493690826,-5.044374515234317,1.3423657095896924,-2.7914860743872674,1.1065370520381241,-14.628794561226567,7.07964284732538,5.0,7.0,-2.727084656822609
05-09,-0.710291324906227,-3.398388263518211,-2.072255810400364,-10.724821430207676,-5.88235084599487,3.845072728849387,-4.840928690654236,3.2361232460347944,-0.8917731391224223,-1.4207004774842207,-14.88479734995956,9.628288715095163,3.0,9.0,-2.3430685535223703
05-10,-0.2992806615559986,-5.2896959723223755,-2.591388563887453,-12.210286758177592,-3.937128377203142,3.948102016670262,-2.152096675521971,6.661197534514035,-7.249006555913075,-2.419491625074194,-15.811290276376983,15.966954984708098,3.0,9.0,-2.1152842441783655
05-11,-0.0407142604259252,0.5884612215170224,2.0653570310044467,-9.808265241869977,-2.3116995457520146,5.195755873611389,-2.80552124663501,5.9044059038070635,-6.954052350887749,-1.0935115198339953,-10.952893941633999,19.75527344580108,5.0,7.0,-0.03811705260813891
05-12,1.8754206259373858,-4.40227319362447,3.1393480096343116,-5.856473699330068,-0.7386275553413111,5.360243477376395,-4.849037492194193,5.693533945174542,-7.430510843996253,-0.6359704893234733,-10.520096556031726,16.394820581583843,5.0,7.0,-0.1641352658445848
05-13,6.551495422160507,-4.113288096409782,3.2127776037846942,-7.626761686817912,-1.5499229756888828,3.238572263680392,-1.3162202895811217,7.86082361351218,-7.5133386683966075,-0.8583344539364681,-9.741787968372757,13.356103114357726,5.0,7.0,0.12500982319099738
05-14,5.169434404848422,-2.1963190761178417,5.488357012142294,-9.909714543793664,-5.855470159441404,6.142724128115951,-0.3539427959987241,4.5991952062362955,-5.162079741738903,-0.5677469340029787,-9.063579581376445,14.506560380868999,5.0,7.0,0.233118191645167
05-15,9.30232558139535,5.093310156395929,2.7584297122796335,-5.352024013513678,-3.9034153884110676,7.190604610580417,-0.06636163716791756,1.0666934075892833,-5.396090622745528,-1.4856099587199978,-10.9726002175674,14.290851357714699,6.0,6.0,1.0438427489858098
05-16,7.834989717289799,6.034951043676999,0.00955222645203132,-6.74217929423407,-2.7694177294338886,7.407404854831307,-1.2686172162397458,0.8600527749005198,-3.61087053955051,-2.748414376321353,-11.936965390560763,-2.5219883916863917,5.0,7.0,-0.7876251934063389
05-17,8.464312628632992,5.250108996355397,-0.5522249241128386,-5.0053932496234275,-4.33541225449159,8.35796329948802,-2.5354677799748213,1.6992089721234733,-4.520405520376968,-6.680762389749603,-9.396681146036824,0.2472913617460811,5.0,7.0,-0.7506218338350091
05-18,6.8196681288422125,6.814066900028247,-3.6453775637957757,-3.894283418765561,-1.7100418120341065,10.278893120824613,-2.8917303247648856,2.4623953410720536,-3.1035669928698075,-6.376322127295851,-8.313102808409393,-0.4405277653121493,4.0,8.0,-0.3333274435400337
05-19,2.491204917519697,7.391970357669943,-3.0329493864927155,-6.076643996827089,-2.9376005433583443,10.286763003691936,-0.19982271482785557,2.8626886711083244,-5.4874589414950945,-8.44039672592318,-9.991783866602672,7.216114902597362,5.0,7.0,-0.49315952691164083
05-20,1.1057987148037347,12.772894784020886,-3.8689565677797044,-3.6837723314131954,-1.7100418120341065,9.342468241855949,-1.6176168228584278,1.8437702904500415,-6.973804723089533,-11.62199737922482,-9.6057083973505,-0.32393670946157693,4.0,8.0,-1.1950752260067712
05-21,4.778156996587031,8.87761853967071,-2.5981688552214086,-5.774298952252942,0.5480710041089786,8.261403186350682,-2.774658856264397,-1.3594366846370085,-5.185273544228814,-9.28656658085833,-8.301238899576937,0.30487776068545924,5.0,7.0,-1.0424595738030815
05-22,5.54265878306314,11.53915794108661,-1.9559902200488997,-5.607092291742967,3.436834418445342,8.684164638757847,-1.3929516287626802,-0.4697703749353685,-5.722721622563533,-5.705500683895591,-4.805416878630148,0.38109901807160607,5.0,7.0,0.3270392582371133
05-23,3.9251066448641834,11.66757436756044,-3.320117367155722,-9.425429606975355,3.0902002762539746,8.428747241198462,-0.38284424798101524,2.307976610160787,-5.327262818967969,-2.9724550302994217,-0.22560287061450748,2.8150418852748498,6.0,6.0,0.8817445902765586
05-24,0.9296360739431714,11.979025338473766,-3.7870584447891362,-8.446307583292874,3.510579419866654,9.559584976760643,-0.996946772719317,2.850083257527591,-6.370517960734366,-0.4605233612596556,1.6807646228122937,1.6443606556348869,7.0,5.0,1.0077233518519717
05-25,-2.6526277372344875,7.271017459524072,-5.782515119512128,-9.479231038484178,-0.09923629175679456,11.230716751137733,-1.2148043512494173,0.6220055652601172,-4.476576875036179,1.3983070959373722,4.7457588657405205,1.8695146441590438,6.0,6.0,0.2860274140404728
05-26,-2.9424813502746723,6.645449941487014,-5.812124760103941,-21.25346500919665,-0.5521482012297367,10.799761442531901,-0.40545174753862023,1.555018476185383,-4.706150533589082,0.3344763248303098,5.69449169625051,1.9443394501804008,6.0,6.0,-0.724857022538932
05-27,-1.4111660020034316,0.3088676647053933,-6.7199579969217424,-19.675870033503333,-2.911852561371085,7.334979235854888,-0.7471176018447349,2.4282282492209304,-2.200935399067176,1.940767032569884,3.8096257080947895,-7.722162860840548,5.0,7.0,-2.1305495470921803
05-28,-7.857993077106411,1.8719581323035888,-8.965650358633328,-23.510010277665923,-0.7452948645350084,9.334592755573393,-0.9169178419366261,3.7159756090514056,-2.0845219409617486,0.5306879541768763,3.2541095906080835,-5.495400581782238,5.0,7.0,-2.5723720750756613
05-29,-8.719552544848497,3.5949848345809485,-11.061364727693803,-24.892808186969237,-0.7432655913338877,8.058954270517873,-0.3962034390140687,-0.37010000097885154,-2.5517832389386,2.8993994083011865,7.154362761537687,-4.126660727844241,4.0,8.0,-2.596169765223624
05-30,-11.787854132373948,8.152666285081107,-8.781020031703848,-17.80006288265445,-0.6370847925718822,8.80882079556531,-1.266401130664934,-3.5246270537430147,-1.8409122120250354,3.364801225431082,9.807710401318134,-2.1289214287406337,4.0,8.0,-1.4694070797568426
05-31,-13.558324442159792,4.354009123140687,-6.57161945794275,-15.82876375068601,2.0857033543411223,8.698666673717469,-0.7949177799726223,0.4770634735760703,-1.4491136420727257,4.938273809014445,12.04210927647209,-6.255133627457261,6.0,6.0,-0.9885039158357731
06-01,-14.575869578369982,-0.5885913605933858,-4.936958334255263,-6.928723410030416,-0.564846595062982,9.029695627719269,-2.910147404325181,3.223876273607782,-1.550218978715257,4.502543223847346,9.944635328859123,-4.350452731177207,4.0,8.0,-0.8087548282080128
06-02,-12.205537601615742,-9.535424409392803,-7.575174882227233,-6.153120759083512,-0.053164738846203076,9.823723512728357,-2.5356864807830766,3.5354799752172696,-0.7414105672860429,3.910932656724443,10.959646106175354,-8.191870387640575,4.0,8.0,-1.5634672980024797
06-03,-6.846292183801913,-11.548236548917105,-7.235692720543724,-0.321829889649373,2.6309937349989085,8.485627739757714,-1.6676173998640913,4.470281936476331,0.8888922797309028,4.629110441295142,10.892684271726768,-9.297274178166557,6.0,6.0,-0.4099460430797497
06-04,-7.788576351796873,-4.696548732533228,-5.780794541882246,-0.321829889649373,2.3279831153055413,8.734448767586041,0.19418137340251115,2.6006780139582073,0.8888922797309028,4.629110441295142,9.46395735865745,-8.863011630459281,7.0,5.0,0.11570751696789931
06-05,-8.230276969944072,-2.8158956650660842,-4.313720110178552,-3.294355998141632,6.788511951611004,7.421708536582002,-2.4328922663300845,2.5773214733529994,1.4582409895894834,4.754901652181517,6.315668037332103,-17.074618144359878,6.0,6.0,-0.7371172094475993
06-06,-9.934361488310035,-2.0791254748928396,-5.801315115748762,-0.03161426861611675,5.250946646917742,6.203348921168937,-3.89414025651027,4.14012996788059,1.6672089095335036,5.137630400921784,3.7574246314085693,-24.56879231858001,6.0,6.0,-1.6793882870689087
06-07,-14.743878400072195,-2.847267801533327,-4.659052002631093,-0.5901544548379881,3.771404136118861,5.781640735281141,-4.015410896382187,-3.2141082214283285,2.380953990274577,3.6755697041436344,3.380538107589453,-22.941409436996143,5.0,7.0,-2.8350978783727996
06-08,-17.675228630584627,-5.518279639892572,-6.521957580206945,1.0643926048340393,4.747429372055171,6.201282966826139,-4.724414673256752,-3.1416123815961976,2.425251791133361,3.8879376985750427,2.2935780619202384,-23.209682202647524,6.0,6.0,-3.3476085510700524
06-09,-23.225485753636306,-0.00962861901938708,-8.321113147124974,0.07608662480893343,6.253560655971457,5.374579659796113,-2.7329279103166093,-2.1991295889871223,0.24363368025249274,4.228208921326703,3.804903193173393,-23.612555531556783,6.0,6.0,-3.343322317942674
06-10,-21.822890468413558,-4.788047635056832,-5.280142469081629,-1.4232137292739973,5.824269969651647,6.2855670844327,-7.006753400426375,1.4499813275275204,-1.4103577104102805,5.098509381333084,5.490853570552349,-17.263917956345036,5.0,7.0,-2.9038451696258676
06-11,-24.801676811710987,-5.838147765344542,-1.1202279078012702,-0.4809295569789042,9.218113133051446,5.027454300868347,-7.29080816411154,0.2695763007692217,-1.6282166126869477,6.437798536436129,2.9725198884148654,-7.820411059373787,5.0,7.0,-2.087912976538997
06-12,-25.65970887381824,-2.570133398762346,-2.737442077758443,-5.39451569909121,8.884514662304786,4.229581681912388,-5.9652042170172255,1.3932657052619066,-0.29010767559461303,6.694494698180746,6.210020577316076,-10.813661923731638,5.0,7.0,-2.168241378399818
06-13,-21.76621095593012,-3.2016645478721926,-5.756991036521166,-0.8924681316245129,6.283828054355908,2.1791360404331854,-4.595542823798916,1.821474195943279,0.07723678356566474,5.141988989093626,4.599609121880793,-17.74920817501494,6.0,6.0,-2.821567707124116
06-14,-22.0,-3.2309986764583734,-6.208918422029193,-2.808012525227546,7.401418755235925,0.8089773073957809,-5.535841323034824,2.536993244302821,1.8107534450418665,5.719560944453652,6.055598137438159,-14.999994118308397,6.0,6.0,-2.5375386025991773
06-15,-19.457931713394863,-3.323661766596652,-3.972104516070925,-5.180672919592855,7.119471266760087,-0.3343574556234746,-5.949414785297456,1.6698401212258427,3.897536481385903,8.406869123267168,5.911487597614093,-16.151275190898225,5.0,7.0,-2.280351146435113
06-16,-14.210611878166576,-3.516504146158138,-2.698603298020445,-4.041735509974538,7.864006879160751,1.4348721817601364,-5.690482556723422,4.365453473977248,2.263446018179642,6.057674142129451,5.973597595188026,-15.482233256802699,6.0,6.0,-1.4734266962875473
06-17,-10.18350827498914,-3.2070500642531945,-3.345459345984922,-1.9369450617095936,7.112994240375582,0.925602106100221,-6.9309268985782655,3.5186033839423807,4.073628105024895,7.415049544123069,3.695773272447183,-10.577329445010566,6.0,6.0,-0.7866307032093629
06-18,-8.453662505119809,-3.3570910085753423,-4.332543150730914,-1.5980325260636055,6.599331382989279,3.0401345900790115,-6.678675746058558,1.7015182071904906,4.136282723578348,6.412003711286214,-1.494256381330819,-11.525497948213676,5.0,7.0,-1.2958740542474485
06-19,-5.17448050286978,-4.162348683798339,0.2865904817971341,-0.7454841457348818,7.021878464369216,1.1101583597805018,-6.030025997677365,1.0820404865939017,4.167575372646936,5.823679119644457,-4.061508375765626,-10.198062043729324,6.0,6.0,-0.9066656220619306
06-20,2.555951831142804,-8.144311625413135,0.6107123105680721,3.8883088164402184,10.176229960610499,-0.7514986287612802,-6.893204126206108,0.07206913945195195,4.1984717581769875,3.358149752702175,-7.348273655868928,-9.619402976740238,7.0,5.0,-0.6580664536580816
06-21,3.0320349073048396,-8.430544352539213,1.7687170618873358,10.568763096009977,10.58081858385088,-1.6096932593921567,-9.416151342925078,-3.4982968241762156,7.623788567637983,5.648165765910819,-8.42821939125334,-11.153516409143593,6.0,6.0,-0.2761777997356467
06-22,6.666665963172483,-2.2083489089453203,2.3793481155887606,9.389859863718653,13.32652812101403,-1.1806297274845254,-13.024511081908447,-1.8146362838800028,7.019399097189654,4.102605291878344,-6.004913069287654,-9.895172600653424,6.0,6.0,0.7296828983668794
06-23,7.301275230395324,-4.315561655892996,3.516033120436414,13.587784706484573,14.300124281078249,-1.084805957535638,-14.819602758460656,-2.910728744224527,6.913367417930022,4.542852836278391,-4.044113747749831,-4.046015449448828,6.0,6.0,1.578384106607542
06-24,5.714288156668865,-2.118725061257886,5.336673774990121,14.441198575303074,14.770219425849424,3.0287484481006652,-16.099356800599363,1.2787760856811383,6.69443094950198,4.511644227142324,-3.8413008935778787,2.4706074869459154,9.0,3.0,3.0156003645623652
06-25,3.8795577216576818,-7.1860971899364685,4.954524297555079,12.65431667545512,12.439454769300639,-0.060370587896997556,-15.19254270515943,3.558720826974334,5.9412378160438175,4.908024376803412,-2.797128302398238,-1.0759133897245923,7.0,5.0,1.835315359056196
06-26,5.378156701990193,-2.1511640371622494,5.855304383633763,12.08377059217523,8.481988338629655,0.4570925340631706,-15.731373106588533,2.9513545566410917,6.344441457334601,4.728548249906709,-6.170159687368853,2.849173828059818,9.0,3.0,2.0897611509428824
06-27,9.280583526213052,-3.0196387008691383,5.536199325961197,10.408609917814,9.065046264620666,0.0948690066811117,-13.01100674119788,0.20317925347222224,7.241491037934597,3.466275438841711,-5.052463834120536,-1.6376726238417738,8.0,4.0,1.8812893226257685
06-28,10.349448526257229,-1.6390251911247162,3.903533869407416,11.00428311279928,8.599995848236983,-0.567989397111034,-14.755183338929848,-1.6159143580753328,6.047496946631761,3.801218801375692,-6.250003806865985,-1.243883766238702,6.0,6.0,1.4694981038635617
06-29,9.87887438197286,0.3182176835652398,0.9320661319761364,5.831332102297204,8.183482362881062,-1.7766947578378207,-17.84396382422476,-4.58762060430008,5.013192612137203,3.0768066890497097,-8.915403075180643,-2.24464604975773,7.0,5.0,-0.17786302895180128
06-30,7.516345437032166,2.1777991897182223,-0.4612312466043486,8.704573893373595,7.156585385925146,-3.0602356816133,-13.92323329874873,-4.562546309029309,4.464383490167381,5.013191877909795,-10.440141566948547,-7.1715662297855145,6.0,6.0,-0.382172921550287
07-01,5.444288472889017,1.4717539413987364,0.9512807405329199,11.949311394475162,6.495756146193746,-2.0220634026472477,-10.329301517821664,-6.267234991858027,3.761200754418146,5.2264751758452945,-10.927071459754488,-2.804124969797036,7.0,5.0,0.24585585698954657
07-02,9.40761357601764,2.2076384990061286,0.18370148007891654,10.666929869034341,4.31644757616105,-2.2881335618772374,-10.20066956918651,-3.579475038464466,3.196390149749443,5.773666453427331,-1.7429700703613529,-4.16494939745087,7.0,5.0,1.1480158305112014
07-03,11.664316332553366,0.7257937399521908,-1.215684180166221,3.1833513708583774,5.024408922526508,-2.745756245706674,-9.45459052751857,-1.2974360190733003,2.911495334072682,5.04886149601925,-1.5725084427672318,-3.9381440152827,6.0,6.0,0.6945089804556396
07-05,15.399159663865555,2.5948723116543833,-4.062089322131265,8.412142563424993,3.4985300738880274,-5.7474422288093425,-10.234478101592417,-3.592443069856758,2.1880379654936983,1.8714649039040785,-3.1683183098984573,-7.598722495706125,6.0,6.0,-0.03660717048030223
07-06,18.290933044574288,1.8190742670942328,-4.378437578231853,9.766050628800361,8.094964308864286,-7.117736371937641,-11.316056541357225,-0.4734725951731507,3.9969697287738666,0.9715706169213374,-11.200199661076828,-8.712531827878403,6.0,6.0,-0.021572665052227435
07-07,21.781789260058044,-0.7767019919978625,-5.684833133280395,4.816900489505177,8.671505180888893,-3.505952852101226,-13.004956521695904,0.9226685818727925,4.202770002430464,-0.1588159674084852,-9.325736753317877,0.7222420155456395,6.0,6.0,0.721739859208272
07-08,20.827988829126483,-3.126214777381675,-4.02122338948961,14.295083968365766,9.352703887636402,-6.766092506077438,-11.03956095434315,-0.20638359023530156,-0.8099001218729245,-3.038962078276664,-14.113925982125197,6.522170193676892,4.0,8.0,0.6563069565836318
07-09,19.7385264980657,-2.4951453347807946,-7.467714195071526,13.476451946177484,7.179219365855009,-9.302323917593966,-12.104096671221509,1.5906889504646333,0.917627672375837,-1.799835109019971,-13.886053801851716,12.630541571255389,6.0,6.0,0.706490581221214
07-10,19.892331851882563,-3.026160093947889,-3.2214387263046778,17.831524526918255,8.929712481908147,-7.801950246102347,-11.10527662547522,8.052353417640283,0.055754905078826876,-2.041309096920166,-16.90522255892342,10.541868914524336,6.0,6.0,1.7668490625232243
07-11,18.39682838797977,-6.326817090612025,-11.74944000157064,14.847084379900299,8.110355953105842,-6.573520420435158,-8.40628057884004,8.559454911508789,0.5704928839889425,-1.5394697977697709,-17.137321422492928,11.672231672137222,6.0,6.0,0.8686332397416922
07-12,14.585843752498082,-5.603360353532408,-8.837770994227826,15.61630976444405,7.367811046534911,-9.079770982921524,-14.167565951179945,5.797740676044724,-0.243498864879494,-1.115910062753434,-17.21469754838197,7.908216557567592,5.0,7.0,-0.4155544133989369
07-13,16.23359004277868,-6.067528098826057,-13.737216773301904,13.873958303061466,9.484177305625806,-7.3390274185350695,-10.41038782073693,6.240216892548055,-1.615937032794591,-2.5983567065499384,-10.44051683166324,10.919537101673704,5.0,7.0,0.37854241360666524
07-14,12.323757733217565,-9.768397030072693,-11.173699803884457,14.779275438357187,9.632336567932834,-6.823637286618241,-10.25873220194582,5.356744591380302,-1.6823511877494117,-1.880470196768633,-11.81806341038826,4.330229601249094,5.0,7.0,-0.5819172654408779
07-15,10.392234574411633,-9.305198943429017,-16.32372103270378,15.228657446421693,9.58679878264154,-6.326740880624758,-4.153634032463823,5.9494518046991,-3.1193881212077215,-1.498740749040391,-13.898873313078361,3.320434025358839,5.0,7.0,-0.845726703251254
07-16,6.658582394990183,-5.280491171223951,-8.997205613412662,14.693508453410761,8.645100770779033,-10.108133666420196,-3.0902054438540802,7.78688399906027,-3.8066223800402006,-2.559671284239969,-10.799800967238589,2.587085870474826,5.0,7.0,-0.35591408647621475
07-17,6.200304558755937,-6.9735753809936725,-7.827928834564828,13.692796392647974,6.758307210948865,-8.650686139760884,-0.713123598959012,8.71710220862615,-4.443691052434205,-1.0156821346385114,-13.556393299678703,3.9315548974876853,5.0,7.0,-0.3234179310469338
07-18,4.327109509423973,-8.325373388263015,-5.431504494560342,11.946824606666222,6.010226511073842,-9.111426967969527,2.1962851321504386,8.061847383467413,-5.378074564139493,-7.05128137343904,-13.87630515586207,-0.5904736499494645,5.0,7.0,-1.4351788709500888
07-19,3.1998919688393213,-8.41747912275175,-9.9915381320487,10.53542135036949,4.942452704093629,-11.757915120581945,2.502189406185317,9.10702528933757,-10.979046638151171,-6.020440749531173,-16.02240044031229,0.562852722311691,6.0,6.0,-2.694915563520001
07-20,-0.6403211822333652,-9.447244133880957,-10.436167615525282,9.643048959496335,4.534127984399571,-9.482520063388195,2.5996772597420192,8.989138218378265,-10.214167995167033,-5.985789922537603,-16.373093465882945,-2.492479210556039,4.0,8.0,-3.2754825972629362
07-21,-0.3594559660640152,-9.716121952951767,-12.297869743184856,12.424543815608837,3.858768916349278,-10.167885032413167,3.830371459746668,9.676350297953983,-9.331607427535793,-5.996028581365769,-14.870918319048986,-8.781013654394506,4.0,8.0,-3.477572182275008
07-22,3.2782419113380015,-10.55168573661172,-13.372340100876828,12.582071396694486,2.095747525755764,-8.89470651316349,1.2715756595486372,10.241629060906279,-11.909331533071907,-7.048884032335552,-12.080711760465439,-10.041653047726438,5.0,7.0,-3.7025039308340175
07-23,0.013549358265786913,-9.619714519248836,-21.20278718864162,11.289589103801335,3.8675436013348627,-8.08165386614311,0.9731413039701461,14.15022662369986,-10.964444788004638,-7.048884032335552,-14.21305717757975,-7.103700549028686,5.0,7.0,-3.99501601082585
07-24,-1.1785461259532413,-13.330425071165031,-21.28582785726576,12.200052452527412,5.117221549703718,-8.314688917266027,2.478261373138572,14.17829319240351,-11.494796076655328,-8.771326582551113,-13.545712145972189,-7.520281208672719,4.0,8.0,-4.288981284810683
07-25,-1.0059890126758113,-13.454389956371745,-22.999422074458476,12.138463663740055,2.9438891784191035,-7.028337995267045,4.613581077352393,13.62290053568945,-12.618714568349167,-9.42721208383724,-10.683760514870503,-10.113385608816206,4.0,8.0,-4.501031446620433
07-26,1.9659557273659705,-13.070966341421423,-19.781946985098628,10.550000098073198,4.017380790205111,-5.784118674343099,2.230828420156848,11.796954549100771,-11.326517824599764,-9.836345845163219,-9.155658615722363,-11.915192570562686,5.0,7.0,-4.192468939334107
07-27,2.0176694479127577,-13.486058984234091,-15.736211981781087,7.253696869195306,6.275898682427231,-6.699918106233023,-5.674271129021474,12.0687800865158,-12.771710337950532,-10.083527303471394,-11.137592100106222,-9.542069405630107,4.0,8.0,-4.79294285519807
07-28,1.3035898037417368,-14.978274195347934,-15.024468873817515,6.96197031017004,7.604385630588817,-5.049098411129515,-12.419540356885127,11.936516510915634,-12.11373221085348,-11.597931437830825,-16.961669921875,-6.511940784347484,4.0,8.0,-5.570849494722554
07-29,4.163289661118975,-15.001146677248606,-13.434166010944857,8.585075556992704,7.892555437790108,-4.424128217901071,-9.508381748303913,9.952613330308372,-12.432044790368822,-10.59083510043735,-16.152246600616348,-12.112810637485671,4.0,8.0,-5.255185483091373
07-30,1.4598564234229208,-11.479534667991793,-15.137095271910663,8.802785354525385,7.799595435582357,-4.622039052440571,-10.635305365477455,12.797787314967104,-12.57838952161233,-9.481662221598638,-20.09488300389029,-7.674534531521032,4.0,8.0,-5.070284925662084
07-31,-0.06757964327477359,-18.344491902334223,-13.099615439449327,9.933833476299778,8.760818156599417,-0.7642038729309851,-8.733631165244695,12.730099044227561,-14.076735790138596,-9.298975254039345,-18.364814447820326,-8.29865994423981,3.0,9.0,-4.968663065195444
08-01,-5.057569199163486,-14.664429962628752,-10.999453150352352,7.033786107229519,4.634390491973921,0.5248132691474199,-0.8576349360430452,13.649333470172447,-13.601921047558516,-5.716451410429571,-11.774439623960149,-3.1590615013205627,4.0,8.0,-3.332386457744427
08-02,-4.641640308367108,-17.074012099683287,-7.603039444964012,11.041184607335069,4.032364018464033,-2.946318875112143,1.1253332617532747,11.302320794568367,-10.33823558644395,-6.019533254217492,-13.690887180891863,-0.3462450780828497,4.0,8.0,-2.929892428803497
08-03,-6.458335452609592,-17.071478914214325,-5.821370809188827,1.2031494817589912,3.3111838804574494,-3.1552709550729516,2.387939184633886,6.916030359283362,-6.2507511310962895,-3.0560741876730875,-8.920448544871528,-2.271722046384008,4.0,8.0,-3.265595761248077
08-04,-9.671472580041387,-14.520788530222697,0.49681294164219003,2.137903861864512,1.8524436501036905,-1.7564619161070962,-0.9471208267526207,4.802802692506424,-8.10326153659859,-4.310492338104349,-6.06873850609947,-7.188675217461374,4.0,8.0,-3.6064206921058974
08-05,-11.584666313276129,-13.898153947842559,-3.596502821862571,0.14165787774436028,1.8274500606222301,-0.8541436976745125,2.084677346117388,-1.8872254928865746,-7.1710291996001745,-4.196449171718924,-6.483350047592447,-16.132721084617057,3.0,9.0,-5.145871374382248
08-06,-11.870714057661726,-10.362463244200983,4.309318524226686,2.3638089712377917,3.2885133471792187,1.0209750287093553,0.03860349974301968,-2.452261103769683,-5.5065306775008445,-4.795735437668661,-5.598275569459243,-16.45308581506156,5.0,7.0,-3.834820544518886
08-07,-6.8792982178947275,-11.11852315827405,3.084663915233102,0.5305541828336957,2.6848549127065704,1.559309762842216,5.082997033558636,-2.3828351638997223,-4.693516137126717,-5.735893934819376,-2.6200917889764184,-11.69336503692969,5.0,7.0,-2.681761969228873
08-08,-8.981691853198747,-11.677287771919206,-0.2829654830987104,0.5896438034366015,1.2147243275838568,-0.03712726593696114,1.8530465298821228,-1.968282451826953,-6.148828007935565,-4.1394497232022776,-6.338495348512501,-15.46910344053389,3.0,9.0,-4.282151390438519
08-09,-9.23164365654033,-10.638769418299447,-4.484822409083121,-0.8015503401912831,1.0527642523250333,-3.5273897522959152,1.5235640434748432,4.692612561122462,-2.8457598672997717,-3.7492562489006453,-5.028454501923299,-16.99512597920218,3.0,9.0,-4.169485943067804
08-10,-8.131113421714641,-13.51594858247293,4.058674731986677,-1.3359102045435585,1.653966604773242,-2.966346014004038,0.8063503075869461,5.195082211336979,-1.4456508759474325,-4.1394497232022776,-3.0687827270504324,-16.96801065922285,4.0,8.0,-3.3214281960395264
08-11,-0.1629586468992907,-7.6215853978775465,-2.7241659541017906,2.766658223497488,1.8303281545413768,-6.794200908034075,0.46355986785409875,4.283291909031927,-0.7740470312883343,-5.194805194805195,-1.936153427877671,-21.038442205890874,4.0,8.0,-3.07521005098749
08-12,0.33584093471353893,-5.638644241243712,-3.838097967587147,3.171504508122014,2.988084064788644,-5.310438271110298,-3.8996490161175297,3.3078909633978997,0.6884882853917156,-6.141345945950269,2.6000022888183594,-17.271857230810504,6.0,6.0,-2.4173518022989406
08-13,-1.5179973352464702,-4.320374067698012,-7.887956207873774,2.7580057224530963,3.2171220225296255,-4.25448117537995,-3.5746782647744024,5.113693008291135,-1.3943294555119607,-6.280616098970173,1.9725366556219828,-13.282363778128609,4.0,8.0,-2.4542865812239594
08-14,-0.33584093471353893,-5.281407011581535,-12.857479207619594,1.8500416485002298,6.431349322487832,-1.8821665804704266,-3.8996490161175297,2.266593027021741,-0.06823332012455184,-5.893992774198021,7.417008795224148,-14.596274537178644,4.0,8.0,-2.2375042157308243
08-15,6.482691195934908,-2.049890945993649,-11.822088297549042,2.796958371585537,6.317677501761403,-3.9996021137333817,-2.4980843436140225,2.6134654952070275,1.638978814999043,1.2827090548006337,7.515730506769569,-22.4736866198088,7.0,5.0,-1.1829284483033977
08-16,5.411455925603807,-1.9503688422441448,-9.025938710149497,1.7613785041916636,6.975763583061402,-2.2996340022563797,-3.707064878530449,0.15486657885547217,6.717887178588719,0.8807925070917886,6.306307154551217,-19.180542445077396,7.0,5.0,-0.6629247871928164
08-17,6.810222142168612,-3.2104195356197573,-7.122507122507122,1.5843519758733278,9.107686500064082,-4.056455411301699,-4.684026974696025,-2.001135481662799,8.474205653138576,1.8556573910002518,2.3468909882277718,-18.81542785576412,6.0,6.0,-0.8092464775899085
08-18,9.428999150697258,-1.932732701110519,0.13675526676016578,4.870637780419826,8.261235158801783,-3.4540246458406885,-4.090619627326052,-3.7083171530359125,7.694843308061976,1.5863540215615886,1.990177406728513,-20.108832057138017,7.0,5.0,0.05620632571499377
08-19,11.306023408114473,0.06552215198573358,0.20512855290687323,6.84407657182422,7.9071172310286455,-1.7202029439224282,3.590195970641434,-3.742233241596598,8.814552675408743,2.588697215801977,9.142926070596308,-11.62506101088169,9.0,3.0,2.7813952209923074
08-20,11.618413322500793,0.17471463082578573,4.480091795793182,5.8676990906535265,7.838116957973984,-1.9868773546752463,4.015510365821536,-0.24189249926892137,10.223126640745386,2.356648163080806,5.577442392529995,-7.92951007188361,9.0,3.0,3.4994569528414345
08-21,8.939087037518965,-0.8022014911358174,4.225826345645407,6.1356582489406595,11.61301456890655,-1.9013213742570791,6.354768171014485,-0.2198493410558203,10.059108332479232,3.3151939603552742,5.041808275341209,-6.191871614059447,8.0,4.0,3.880768426641135
08-22,8.162768425191139,-2.940189348711188,1.606658646065895,4.103192784394465,10.122824418930918,-1.0267080298450961,13.05548713001844,-1.2437480058093537,9.545795825009703,2.371638942786968,7.144610895717378,-7.623217550460481,8.0,4.0,3.606592844440732
08-23,7.366233489295082,-4.559443573398504,-2.123505986911455,5.77617115102689,8.830548205260254,-2.819583720538282,9.179123792175139,-0.8960149833204053,9.63049444195613,3.1372195227682544,11.768322344734736,-8.892171034125003,7.0,5.0,3.033116137410236
08-24,6.705212881511972,1.1269829338060233,-7.7789737984298055,4.103192784394465,7.977505686184803,-3.420522756421123,9.487708867396789,2.983312004149503,10.150772486319868,2.2551378262174113,11.469183360310284,-14.223139042614227,9.0,3.0,2.5696977694021634
08-25,11.44828663208032,3.2093863504762803,-5.789286603604426,3.857335768468464,6.9639337045489205,-6.093969636148964,9.119915579665605,3.496574808002674,10.267570755586295,0.4697572040051217,10.802469135802468,-15.422627275709925,9.0,3.0,2.6941122019310697
08-26,10.010942487765453,4.138997165235832,-7.695071491623898,4.194821331560037,6.958427074220734,-8.488700415364711,2.8066854135567363,3.5714247837692294,11.172646641774369,0.6780491920320406,9.83401662737714,-18.911481724633205,9.0,3.0,1.5225630904724798
08-27,11.25167267122265,1.0624159782959095,-19.283391598381495,3.5685901847882366,9.181244341905412,-6.3344441544600585,-3.765060193770324,1.5873028949519457,11.792703507132886,4.306796056047827,8.783088226725102,-23.55689786478673,8.0,4.0,-0.11716499586071993
08-28,10.898916414371994,2.3530731052053127,-24.186111687213852,3.2022758697353817,6.955302736218299,-6.119052317747926,-5.8461070503062675,-1.5487458380483983,13.38664375022334,6.104742284468085,5.522988210463173,-27.020334600739748,7.0,5.0,-1.358034093614217
08-29,10.056218294648826,4.939749236356489,-19.39228310824396,2.3056016795153575,8.33820057053517,-7.577832298826056,-6.89325044377227,-2.106203460032051,14.163312513364449,5.2110756575855195,2.982927427729198,-23.710772891981723,7.0,5.0,-0.9736047352600874
08-30,8.791490026311472,4.0438382919520395,-17.287872067642574,4.258588742724741,8.361536598655931,-7.323633349363474,-7.583454559194679,-1.7050611764430204,14.0258955699574,5.107329040918553,3.3606803627406077,-21.06808872873612,7.0,5.0,-0.5848959373432604
08-31,10.146009649427723,5.349745149291076,-24.633187773374225,2.0795618933950197,7.937709310707753,-5.722420483142594,-12.789856278822448,5.821627579823028,12.669545694327036,5.649983512568206,1.2784646841009872,-21.100432199917883,8.0,4.0,-1.1094374384680268
09-01,13.498281143377483,4.135575853803806,-23.05828111766469,3.427559503550162,7.204359725625999,-5.732792952228084,-8.398687609190478,5.757765097306042,11.991366836765371,7.338582436869463,1.1336437256067724,-24.924014368728738,8.0,4.0,-0.6355534770755741
09-02,16.27350451400501,4.615222601939048,-18.92582768249108,2.436415245497624,6.409502706614263,-8.776007610594828,-6.744499762210227,5.37462268153408,11.309643650853626,7.752605952267393,0.12126645891249366,-21.59154822689277,8.0,4.0,-0.14542495588044702
09-03,16.46509357953256,3.719886884589347,-17.8639204706441,4.264824102338525,7.969794776149169,-11.244191596511275,-6.38735398565632,0.23145840467076367,11.236298694666862,9.120399016904626,-3.5624411248016705,-20.005572387704426,7.0,5.0,-0.504643675538828
09-04,15.614897116461671,4.582125503169108,-22.461620149852436,5.054715759662806,6.863542462962954,-8.012392626215671,-5.618126602251384,1.9439533359687653,11.638194611110103,9.476922842172476,-8.266470473916545,-20.03339186993941,7.0,5.0,-0.7681375075556304
09-05,9.142508800866315,7.757096003441122,-27.115910582296387,2.2866410457847457,6.3413830911264695,-8.600931298187387,-5.5306529783357945,1.3318060255625597,11.015541195251782,9.579693990953801,-8.309448665872539,-17.12564864078161,7.0,5.0,-1.60232683437391
09-06,8.81624883388636,7.323445514869349,-18.05592555136511,-1.1973368825448276,6.173125639342462,-4.481770258534751,-0.7786220121008973,0.32583304664965007,8.803076088180688,11.41279669086289,-9.512892692461305,-17.293881701431623,6.0,6.0,-0.7054919403872592
09-07,10.750215145961274,8.856470342561611,-18.059888757869054,-1.6204495793049594,4.743893486904131,-5.0119125842190115,3.7073748384370497,3.1423266018692892,8.02450244991235,12.202794191033759,-12.930553551158086,-11.985745628949013,7.0,5.0,0.15158557959827798
09-08,12.934502488257788,8.373934511883293,-16.210932882192417,-0.8795578648705612,6.266110699855706,-6.6463430093754345,6.253009300788616,2.0024614943945584,9.913840828641094,12.216844471070223,-12.803161400856705,-13.448179846803715,7.0,5.0,0.6643773992327038
09-09,12.123712376416353,9.287448445247515,-11.09374518816689,-2.2654879272176194,5.311582385761924,-8.225613607560133,8.165210232769859,4.857255967290581,8.928019134252198,12.766122065885114,-14.678895570806324,-14.028879472397533,7.0,5.0,0.9288940701229206
09-10,9.314129943243826,6.414941037524898,-9.638400313957256,-2.349300526519927,4.64248594551315,-7.8786006450775865,6.816281859007654,4.282474839255709,8.58717322651281,11.946392911873609,-16.54298641328447,-3.5140314565493393,7.0,5.0,1.0067133672952566
09-11,10.341166604777094,6.361603894459228,-14.966620635647729,-1.2426809684775952,2.547813821783006,-8.989001924130767,7.902584914016984,3.58772189639338,8.880828699299709,12.187385069099772,-18.136759156719965,-6.374285510613505,7.0,5.0,0.17497972535330106
09-12,14.048395317802695,7.208926437708632,-8.43722029878095,-3.1780852574736014,2.0580682668882417,-7.148902612906312,12.189798367130773,4.4300519252085655,8.586482396579056,7.535382847562453,-16.168544335026898,-3.981948693686377,7.0,5.0,1.4285336967505236
09-13,13.962056193386763,7.302126176517662,-8.248066709126237,-5.187214890571489,2.961754725113616,-10.819926790665624,12.451320007557733,5.882354342908573,6.014651617352138,7.788407036489089,-15.745740819921389,-4.286466285379767,7.0,5.0,1.006271216971756
09-14,14.892918106057174,6.783951537186798,-8.400251152703067,-7.415527622449357,5.181286473161207,-13.447625052678747,11.158896443494235,8.15161563317554,5.313114112931568,6.8395678361572605,-24.27803633500334,-2.512428964864251,7.0,5.0,0.1889567512054184
09-15,10.900364768999056,7.260757639438291,-11.673878855954575,-5.98197176116821,7.369127904691862,-21.6690557103366,9.416039979173041,5.555561717521608,3.827503428032645,3.354712825945372,-23.667869154726986,0.12939761348428372,8.0,4.0,-1.264942467075018
09-16,8.97856393839616,7.848101265822785,-11.377402175513215,-7.0049667513255,8.428142445930153,-25.500961136313915,6.808109607131536,5.534788849580813,3.7247784969327458,3.7976750516114364,-25.590257110250846,-8.61244489754818,7.0,5.0,-2.7471560346288357
09-17,9.700352700959128,9.762024698378164,-9.399153329333796,-5.578232676534156,6.778905854026711,-19.303623257253967,7.134524602796531,5.7068030871645945,3.6948867660330684,4.103776447597786,-17.285200318704874,-9.489632632069155,7.0,5.0,-1.181214004744997
09-18,10.476817120814777,11.39278712849275,-4.501070050248783,-1.8814835852305563,5.76005287548538,-19.06544804024845,11.098154323317699,4.688823187738253,4.279391083112698,2.2983847038193086,-19.272512952234372,-8.213716747261676,7.0,5.0,-0.2449850793702475
09-19,12.733520171860427,12.305075415771112,-7.8000223418200845,1.449148038790757,6.3415425883792285,-18.373602034782163,12.187288066292558,3.977389396557026,4.433042411605916,-0.024969851381121087,-19.69785896899778,-1.9170155124336286,7.0,5.0,0.46779478165352045
09-20,12.423229266887601,13.421492379716005,-1.2787795238821256,1.4665002111589478,7.3618951468611415,-11.471460069894167,12.548575265066964,2.93138173311699,2.5656975615300466,0.774097144914679,-18.803167552715614,-3.7145998726939022,8.0,4.0,1.5187384741722134
09-21,13.852676106199556,9.911540287120765,5.052921705500865,1.1194038002780309,6.907767143424963,-11.53255481504948,9.774792069531573,1.6200304597926392,2.865719188407993,0.5660065828453565,-20.008987991672935,-7.239576805754343,9.0,3.0,1.0741448108854155
09-22,10.994602775318421,9.748303903800757,12.65506133947922,1.3420487281284041,8.123398020118291,-9.680892109457597,11.37033252454742,2.577316443472508,2.1829097148883045,-4.588776610690317,-24.348221939125864,-5.9812625596913715,8.0,4.0,1.1995683525656815
09-23,11.54508615781273,10.43747931578386,16.103335704549426,-0.12381656498301555,8.38759011476874,-5.008848921937858,12.819286250005918,5.585943293676975,-0.5534657137359623,-5.37095248845864,-18.430376760815875,-3.587705508403426,6.0,6.0,2.650296239855239
09-24,13.869161879756685,8.000401434771168,12.205171146876072,-0.9811778326041027,7.053739124558383,-10.937329996961335,12.556692284968179,5.953009490963216,0.567942423752534,-6.658062678511413,-12.922233582298489,-4.356499545918475,7.0,5.0,2.0292345124460347
09-25,15.063481420528536,7.641703257643242,15.382919906093301,-2.051556310553469,3.9565105704994696,-9.004019705664637,13.117686827282817,4.921170912176696,0.7012481144845041,-13.066951299650697,-6.713919985746585,-6.634401770836377,7.0,5.0,1.9428226613547335
09-26,12.378348903861633,6.227517943307754,15.810278037312328,0.0903328607749177,3.5586225154871065,-10.654933845020107,19.079256601782433,4.657125061354215,-0.4042282090368773,-18.061049820219736,-4.378640241289935,-1.380986507768101,7.0,5.0,2.243470275045469
09-27,10.127866798786295,6.37184397989804,10.18052602201593,-2.258355979150456,4.320783797567419,-9.068523642749946,18.728783732698453,4.435093009129751,-1.2168467502628233,-19.65328879810224,-4.2257448045034,0.18661609692486025,7.0,5.0,1.4940627885209905
09-28,7.7481042017533195,4.14621537410248,15.019443523715617,-1.2195177423056358,6.696794569240069,-10.608039559529631,16.740615405503377,-1.975254728543756,-0.6968259576834032,-20.190315082351315,-3.126302573068121,-7.185795303761491,5.0,7.0,0.44576017725595946
09-29,5.912178692965174,2.0259005828407797,15.60283650805869,-3.152669909102012,7.719147118215021,-15.19846476877104,15.199516515933073,-3.1582414601538282,-0.6136207264976615,-20.88312376121162,-2.400659193130514,-4.655860932339278,5.0,7.0,-0.3002551110994348
09-30,0.9018565766116982,2.913534725655298,18.771444036181936,-3.152669909102012,7.203157286230779,-8.218575566192794,14.1408158206233,-4.959843417730302,-0.2682646937087722,-21.51840133250928,-4.461643958883524,-10.55060129887459,5.0,7.0,-0.7665993109748553
10-01,3.821043929724102,-0.4281495651301133,26.31408190373944,-1.574456770405725,6.986172361492153,-3.994417835727587,13.209110103436378,-4.76346506250342,1.3100445816345978,-26.90121945447736,0.32028371446663295,-7.228552476614006,6.0,6.0,0.5892062858029243
10-02,4.165176986659757,-0.8215702119643925,28.125653033445797,-0.9203287627848701,4.419675672254448,-4.219908108105925,9.116644974016058,-5.848014735822157,2.3610956525098583,-23.211067546135546,-0.2585468228592081,-7.074755984328669,5.0,7.0,0.486171178907096
10-03,3.879303755503864,0.0,23.504413028443047,4.644172145184203,4.730216099752694,-3.693764139223158,5.694568882542558,-6.292858390435666,3.374389360069764,-23.770656365511023,-1.7523607342409777,-7.32999050424524,6.0,6.0,0.24895276148667214
10-04,-1.0408993828094606,0.36431609787956515,14.229149955896434,4.352304736715162,3.1830563050410694,-3.1121178477529607,6.057072848766202,-4.365945115898834,5.826570565186049,-23.628251618512298,-1.8672728685393567,-6.483636966063545,6.0,6.0,-0.5404711075076646
10-05,-0.6587787086563344,0.4194762038836059,20.03331703494277,5.648548649949512,3.122192968606067,-0.04207604928855086,6.297197848452231,-7.081586363669922,5.611494586366975,-24.40669034333288,-0.6492635889307179,-3.7268776720515215,6.0,6.0,0.3805795471892696
10-06,-1.9036166639213103,-11.146206364450602,18.221574170321226,6.040381352239703,3.436134787848861,-1.8966959374782073,6.342567330595089,-6.81767844930171,5.963435741054084,-21.46131777752434,1.9536182148117909,-2.769849251923933,6.0,6.0,-0.3364710706441125
10-07,0.6916810623408269,-11.191333751412238,22.01166096222997,4.670136628419469,5.7941810170058226,-3.688526668232884,3.1224754707072546,-6.047943536777138,6.265174491928269,-26.84905106655362,5.333152632612104,-1.8590403771511919,7.0,5.0,-0.1456194279069463
10-08,-5.146540718157671,-12.20667844012621,20.6138112254533,5.984075002024762,4.6013404608370045,1.6024983766696297,-0.6591877955099951,-5.658122264193466,7.655502392344498,-22.07804766696558,7.1341692026679695,-4.522744761406781,6.0,6.0,-0.22332708219687833
10-09,-5.041026106123533,-12.764748585572155,21.90204226615527,8.960485329052512,2.898547970379774,4.308011920274176,-0.959872579319409,-5.980389631004944,9.779355996639243,-23.31128654208379,3.9624781624332734,-4.217537234048184,6.0,6.0,-0.03866158610148063
10-10,-2.896743254706859,-12.357518195257756,21.508347237981155,8.75,1.0076985877759166,6.524450304497,0.5088498151898976,-4.131435938931201,8.77556591569853,-15.868070959868685,3.514414129356998,-7.33146270286743,7.0,5.0,0.6670079115722971
10-11,-0.25456929808302486,-11.289960404073087,21.361989490885602,8.474998474121094,-1.3303929526923115,15.368292307640125,-0.8912890420434503,-2.881322219173137,7.092879704787118,-11.424645942626547,3.038362117865282,-10.497388840963072,5.0,7.0,1.3972461163037158
10-12,1.9696966068928936,-7.52256327757269,17.59137312242766,9.350001017252604,-5.525116928762764,15.86137662629486,-0.7731006342755073,-3.0718214034117115,7.361257711480042,-11.937699127019737,8.763708334996373,5.209630903683866,7.0,5.0,3.106395245998824
10-13,1.6999375373656822,-5.187476447656947,18.334522570246076,4.768071869333517,-5.9078091062728735,14.964464836314246,1.5015049945304169,-2.215562119300931,7.390011453232523,-16.90033522039273,8.714852440150105,8.414314654215614,8.0,4.0,2.9647081218137252
10-14,-1.3185622619459991,-5.4644280282248605,14.50676933016124,3.7286035349573443,-5.605133147510441,15.09873788568038,-2.9524713075886746,-1.123839289658704,7.224660987799085,-16.169080857913848,7.626655752767103,10.236222694217545,6.0,6.0,2.149011274395014
10-15,-3.2022153901921744,-6.561572051904931,18.62254806369797,3.9299425342260585,-7.701971661936838,9.624845863704428,-4.5847332078921195,-1.241500118727993,7.047239068218808,-21.05678982204861,5.512349386083065,9.138625698644375,6.0,6.0,0.7938973634893364
10-16,-2.8365623917936444,-7.6718745870552745,21.72867802129261,1.3358786709181492,-7.571100002332129,6.447315572911565,-5.016803073074711,-2.5927086995292328,6.940455737642896,-24.096636522606744,6.101088373416462,10.713437592016716,6.0,6.0,0.29009739098388826
10-17,-6.178255487351398,-10.081475797539017,21.54764739741471,-1.6584308779955224,-7.040004840743936,6.498561394574541,-3.8193108384656704,-1.1868779353679648,4.898998938868635,-22.504333398085034,8.042974684196045,10.619913246495683,5.0,7.0,-0.07171612616657708
10-18,-6.610167767368467,-9.62890998214195,15.963270681763467,-1.2261815297851264,-8.456264607885783,3.2237833981029125,-3.1124590378039514,1.5226841980047876,4.636934609254721,-20.883046212566107,11.251891062207987,15.186313148127569,6.0,6.0,0.15565399665917123
10-19,-4.219595433925718,-9.258649118752608,12.732147565776925,0.2558229657426996,-8.63441345752005,5.5012238431316804,-0.023583727857637425,0.16803576985732294,5.524860339779013,-19.98572298879645,6.482370298444817,20.198456792979293,7.0,5.0,0.7284127374049406
10-20,-4.9233164479921285,-11.034717511021897,13.258521978171867,3.4865727652166876,-7.550473843348564,3.7259952202851956,-2.2776564391287337,0.3255592886154564,4.4593569901767784,-14.430558313389314,7.920521814014081,19.999999999999986,7.0,5.0,1.0799837917999513
10-21,-4.732932926237405,-9.570816300387452,10.000992601707576,3.9084577270590115,-9.375743324936412,1.6791229859671317,1.6089286224682662,1.4072715292024396,4.397120251457863,-10.503805486985266,5.0519202444575075,22.557882880798893,8.0,4.0,1.3690332337143463
10-22,-3.053864266069665,-7.918375884039309,6.122443844092036,5.480144984867928,-10.280537595796883,6.366319556249035,-0.7633605569359349,-1.3861884984353037,4.594646002547035,-9.970675439231485,1.1789798481035265,18.56670000496289,6.0,6.0,0.7446860000261557
10-23,-0.47329931085259586,-5.808271022332234,6.909234218989832,7.12418590739365,-6.901512340541219,5.0137294959540855,-0.32883003438558644,-0.5045638357532003,4.406546838644915,-5.117778553556004,0.16652112302658492,17.287762770404004,6.0,6.0,1.8144771047493526
10-24,0.06902618483393604,-4.840791786057199,5.134881986754353,5.706988492806631,-8.692783768275557,6.335811289455329,-0.8953392015822617,2.142777737638444,4.8895888851517295,-3.6928475544719834,0.1248908422699387,22.976843483007983,8.0,4.0,2.438253882627612
10-25,-0.4510227641295115,-5.362161172402872,8.842834396688602,4.241910811079362,-9.896959294080803,11.072005094446734,-0.9197654138842798,3.135779301157974,5.420029448891464,-4.6502560647201765,-0.5828556932691078,22.976843483007983,6.0,6.0,2.818865177732114
10-26,1.496937729934143,-3.5135135135135136,7.959575616751541,2.819425166070926,-7.7431934318081455,13.082364692415174,-0.9930964004540491,3.2853966240228316,4.662606061788637,-4.103162293081757,3.096012892136781,22.976843483007983,8.0,4.0,3.5855163856058794
10-27,1.5990061887384843,-7.959419876990401,2.253113227424146,1.3966493434936202,-7.21128693070994,11.17918594450314,-0.1574388444936829,3.7052575875720852,3.1379129711710063,3.7358481928987324,2.657891312221404,23.748615226993405,9.0,3.0,3.1737778619018333
10-28,4.833434512915518,-7.0349557022028035,-0.21056742595660016,2.101016929895423,-7.819608450044716,8.095618477541883,0.41108583113714187,4.691921642503728,2.027756307562165,-1.330689183609288,3.3596214691088893,28.31312146551675,8.0,4.0,3.1198129895306743
10-29,3.0604253195600437,-7.9143230146413845,2.379653193594074,0.13716558938395199,-9.391807530206432,3.7316525636430247,-0.44632047937760483,6.78350704232442,2.09522408625133,0.48761458507485383,2.3258965758316914,25.09371033366616,9.0,3.0,2.3618665220920105
10-30,7.780913780004283,-6.982178652547019,1.5846840518120575,-1.2252311524854063,-6.578017188863862,4.672314185319197,-0.833919532020786,5.79287871798832,0.29052385936080166,-3.491912991224137,3.184537336818389,24.498339954728316,7.0,5.0,2.3910776974075127
10-31,8.627798397903673,-8.04093755410804,6.444184819236259,-0.12032607776921525,-5.437350540293711,1.746945264968468,-3.0408247966560364,3.2630822851452495,-0.03005449698722858,-1.5129611117021475,3.615638953006497,22.49172500868506,6.0,6.0,2.333910012619069
11-01,6.030037755137116,-7.6776489356644175,12.572539632967356,-0.45552108830903393,-5.780141226768786,0.7972786248890201,-4.9378239667365085,1.3846805987572288,-1.7810954383356656,-3.006652064675093,1.0568795682469516,22.49172500868506,6.0,6.0,1.7245215390161022
11-02,5.226033940000635,-9.881957523440999,7.422399370350644,0.9883984022008327,-10.23253907801447,-7.6106992403333145,-3.16432863477367,11.295351717555235,-2.437807908698708,1.368409188476342,-1.8521133317846068,22.49172500868506,6.0,6.0,1.1344059925185814
11-03,5.991619504669191,3.2631211976359467,3.576247504212029,0.7055438926903872,-11.187882856889205,-6.9692824162478475,-5.234971727216795,10.183374125888438,-3.9800995024875623,-0.8343578678609427,-3.9351210937689154,22.77838669002871,6.0,6.0,1.1963814542211197
11-04,2.055337422667949,3.645090514030353,1.9857312521819548,0.6886627861533692,-11.187882856889205,0.02215312490018114,-6.9379180905340965,10.456490384633288,-4.534792223893202,-2.9426008976557654,-4.0966259194422605,20.529212506823978,7.0,5.0,0.8069048335813784
11-05,-1.0793460568757414,3.295860235283092,1.326441652729423,0.36676928779496626,-8.611312767654686,-4.684090718318291,-6.9379180905340965,10.806682286228371,-3.9354730135477167,-2.9426008976557654,-7.60395965361348,21.499449455469822,5.0,7.0,0.12504180994215788
11-06,-3.743256715251606,4.687834537893282,1.355303649314469,-4.096264754443595,-5.690177842993611,-7.810455262079683,-5.453865940424298,9.938305157990014,-5.848585704334674,0.7214862407670636,0.8743995227313591,23.748615226993405,6.0,6.0,0.7236115096801768
11-07,-6.378080677640605,4.5658191559988355,0.9205782350283874,-1.0781660765967553,-2.662596073854253,-8.442265514556105,-5.408081242550413,10.559064595029675,-5.143701420738418,-4.8813316478825115,-3.733511031331026,11.11355517179597,4.0,8.0,-0.8807263772747685
11-08,-6.121513552011099,5.212967060949052,2.8410675420722304,2.484842105209041,-2.2916302992632542,-5.913978494623656,-6.062871179437696,10.204867255728027,-5.533078279316099,-0.7494943610878738,-3.6779927609173404,11.11355517179597,5.0,7.0,0.12556168409144183
11-09,-5.87831451832659,0.7766165762196612,4.658832844058818,3.537739668506924,-3.6703300799457925,-8.539944903581267,-12.048825319615444,9.755625029661271,-5.988264345939558,-1.3836864087911407,-4.575723933278947,11.11355517179597,5.0,7.0,-1.0202266849363415
11-10,-6.956012088182735,-1.8221262047534121,2.9020653199991586,3.0415667924610155,-7.129470220427729,-11.690664784189963,-12.281158274860438,10.52835086873257,-5.785961142411917,0.8616442544636452,0.1892906860214244,6.968026358844015,6.0,6.0,-1.7645373695253637
11-11,-5.321504759801827,-2.071587554586996,-0.9511825376537848,2.2070697669943344,-8.416591381032342,-10.768366023341411,-6.302631557174274,11.706747087889624,-4.7533070655292455,2.277772991457523,0.9260534446699963,7.585443754032349,5.0,7.0,-1.156840319506338
11-12,-3.699379249187095,0.16268319029185052,-3.1203413250036633,2.5227224462898343,-4.88984286253393,-12.409259741279243,-4.223022842532621,11.674449599135048,-4.054188384868036,0.45226535110930016,2.071078966072232,10.71664158583742,6.0,6.0,-0.39968277222240856
11-13,-3.2792595151519297,-0.216845864645794,-0.019273872835090362,2.9057563211424315,-8.4474674715631,-10.438987744005027,-4.937487729260248,12.935647757473987,-3.211145172807936,3.478008290753259,2.7588022085294326,5.909592933514913,5.0,7.0,-0.21355498823792493
11-14,-4.453675656975654,-1.85124000570334,-2.69173034058735,6.112305270822353,-8.581853406837746,-13.100590651736999,-8.45484853485471,12.425589434337683,-2.1838875828331012,5.638411039300007,3.107003819090877,0.0,4.0,8.0,-1.1695430513314984
11-15,-5.206270271535505,-1.9073907553942009,-3.918782345534581,3.793270070145073,-9.676187704790367,-10.92562491029796,-13.21939058160457,12.443294301998721,-1.4208506446433764,2.251519253742004,1.593671944814147,0.0,4.0,8.0,-2.1827284702583847
11-16,-0.1548837156696235,0.6546628086543876,-8.071272319684835,3.3708793828341763,-6.415763843742524,-11.55493274305124,-10.317460632582616,8.626809272383005,-1.4908923627884794,-1.2219730966393287,7.104676069987537,0.0,4.0,8.0,-1.6225125983582949
11-17,1.9825704077570343,-0.05547649893426485,-4.1322298484324165,-0.08437977581517297,-5.974091148760715,-12.901338889959701,-7.347994930055332,11.390464303679922,-1.7010175172237882,-2.800736363060347,5.603385676566823,0.0,3.0,9.0,-1.3350703820198302
11-18,4.89765278576339,-2.2081644508660325,-5.012341162095116,0.3193522650979774,-5.496430748321595,-14.274010499589206,-12.33508983863328,10.61318266554106,-1.806506486133921,-5.62549675300964,8.535491224874704,0.0,4.0,8.0,-1.8660300831143048
11-19,6.848140131646524,-3.151349590919007,-1.662430807112982,1.9508974014523413,-5.16129396065421,-7.888964768001612,-9.036936937118291,7.938799216092914,-2.9325208525164927,-9.87423354162905,10.671229911487016,0.0,4.0,7.0,-1.0248886497727379
11-20,7.330400296705057,-2.198649670535103,1.7096623297787175,5.261456374601799,-3.037035906756366,-9.106871963289151,-9.010546077414396,8.009617145244892,-1.5313769624823956,-8.882032001255617,10.584438723055712,0.0,5.0,6.0,-0.07257814269557095
11-21,4.701176409281856,-0.9054236365588408,-0.46039807765120777,3.519802095557032,-4.51234417197145,-11.630457038740131,-12.646652465376809,7.547356914020605,-0.22676067853847487,-14.003007284356583,9.02096658819217,0.0,4.0,7.0,-1.6329784455118193
11-22,5.131787842577883,-1.1371101311369975,3.051952461482344,2.825642442388245,-5.030860429928627,-7.690644505193517,-15.595687165132546,7.648319832253908,1.883334518441449,-8.302853637973032,9.430448963239172,0.0,6.0,5.0,-0.648805817415143
11-23,6.875068083622494,3.218771989658654,6.691790257081378,2.825642442388245,-2.334724833727378,-4.777942618311639,-17.53736611362878,5.411996964014392,1.815720723193499,-8.302853637973032,9.51385028545673,0.0,7.0,4.0,0.28332946181454705
11-24,9.430289360618946,2.018547128554838,7.445505740346156,6.207285559391291,-0.39757782575299977,-4.73385242538667,-21.95960803205548,6.40663042350986,1.815720723193499,-14.26343142016668,11.057351335725464,0.0,7.0,4.0,0.2522383806648518
11-25,8.243835363949911,2.9787270174378904,7.445505740346156,6.207285559391291,-0.39757782575299977,-1.767305226512574,-19.653347228937363,6.40663042350986,3.592815518456555,-14.26343142016668,11.057351335725464,0.0,7.0,4.0,0.8208741047872924
11-26,10.780396489744874,2.9787270174378904,2.6380158476620195,5.600063272667597,-0.9426094004775905,2.427138137538329,-17.49033019837082,8.854218976933549,6.140102372343584,-17.510885176740786,13.75628924098868,0.0,8.0,3.0,1.435927214977277
11-27,10.780396489744874,3.2320995945497986,2.786540671352567,6.26374116012165,1.0876036436458694,10.050826753795231,-17.49033019837082,9.366814981074457,6.8060880160454476,-23.03885613960007,13.673785250334452,0.0,9.0,2.0,1.959892518557788
11-28,13.414757841381597,2.438486388141893,2.7271806214769754,4.278078524952784,1.9374745116275949,10.050826753795231,-13.217529571279602,8.389687014610333,8.746921674341387,-16.608606735695012,15.403885465679831,0.0,9.0,2.0,3.130096874086084
11-29,14.008752943703733,0.9986701048042905,0.7877979622943954,3.2167861488612415,1.9374745116275949,7.240834627342404,-13.6338904738143,9.849813130430443,7.253599636470195,-18.518938928577157,15.403885465679831,0.0,9.0,2.0,2.378732094068556
11-30,13.449416992256452,1.1447059016052337,-7.569468309375578,3.2332375207776014,1.7974075679486972,7.013431946768262,-18.35721780899238,-0.8558731963875175,5.574013364254583,-16.091695739498753,15.373580843717077,0.0,7.0,4.0,0.39262825692280634
12-01,11.060739497170085,-0.48250334491920543,-6.314803176815233,3.6093064941058732,2.4592123268209565,7.516170708851861,-18.230422536904207,-3.049678728565361,5.029528347678463,-21.759206549851033,14.854460626395872,0.0,6.0,5.0,-0.44226636133599423
12-02,12.269568567600535,-2.927950540039621,-6.345909334568718,3.6093064941058732,2.4592123268209565,4.272234391042025,-13.743149213321274,-2.0560711328258288,6.746029454982713,-21.759206549851033,14.854460626395872,0.0,6.0,5.0,-0.21845624247154172
12-03,12.501255618387924,-2.796354155162754,-5.87930114621285,1.1550482586056505,1.1174247432174298,0.9708672342102697,-13.926012147791115,-2.7643851612519232,6.8234154953605515,-23.526056623673735,16.518995886849737,0.0,6.0,5.0,-0.8170918331217347
12-04,12.289712260299856,-2.866482020074065,-4.140741899263999,2.9886584841374098,0.4230168437615971,-0.3236278982029535,-13.222678309337246,-3.1398107657025567,6.357149826286531,-19.332646241654885,13.980418798732916,0.0,5.0,6.0,-0.5822525767514494
12-05,11.678981075456663,-3.2490903318273032,-3.654449696531967,4.010348538352234,1.4656765423932334,2.1035566477213115,-7.902565901177246,-3.323442790369214,7.685271080826197,-12.713824705294519,15.723502223554917,0.0,6.0,5.0,0.9853302235920256
12-06,10.308331031969265,-2.1981578915409727,-3.3908354311348794,4.301422769807017,4.64728504644094,4.214181890169036,-7.62819812973678,-0.41529872645702903,10.880735293986163,-12.713824705294519,11.700098856037172,0.0,6.0,5.0,1.6421450003537845
12-07,13.060371557148207,-0.6186235061862351,-1.4174648029484807,5.1180480396471895,4.16919446411665,4.39071500017244,-9.342712554131419,0.08685964572428008,10.10547106610764,-14.347202198909201,11.4452071824031,0.0,7.0,4.0,1.8874886577620142
12-08,14.019164207729135,0.14080459247729982,0.944974031970325,5.194070649372799,3.901311536334575,-1.7420421445710408,-9.952949708112822,-1.2642323141001333,9.501488223682596,-13.048791491033152,12.330857737327454,0.0,7.0,4.0,1.6687212767564195
12-09,13.862083283259347,0.10830550431924699,-2.126197204422721,6.414943957913873,3.584931550815571,-5.866289627257731,-16.42899228866764,-2.73112731774513,8.778727473343888,-8.294294151831778,15.750791407321321,0.0,6.0,5.0,1.087740215587354
12-10,12.876964973579733,1.7112550630571555,1.0768462630344964,6.556071630199818,4.519034024034719,-3.7165399127743584,-16.131908288149493,-1.583798733965767,9.77088282373439,-7.618238054702201,16.18322816605985,0.0,7.0,4.0,1.970316496175695
12-11,13.50020089664556,2.283993485835193,1.3472588590319978,4.357979748118126,6.307713364587715,-3.8001915554236576,-11.244800548337235,-0.5893002109849215,10.203176376020645,-6.857206115943957,14.506524731154242,0.0,7.0,4.0,2.501279085891976
12-12,8.280064342386455,3.776793027060539,1.0962074359006282,3.1212384461010863,5.0485659135227925,-3.2146300568785584,-17.415217973296652,-2.727630828531389,10.231850683780479,-4.778705259705552,12.170824020067387,0.0,7.0,4.0,1.2991133125339347
12-13,8.743062488937174,4.4760401649267045,6.652764278236624,4.910531374515985,4.6528328118678575,1.7725609624910044,-17.30769924953166,-4.45841445098798,10.775823109211526,-3.669724064981933,13.567665412163773,0.0,8.0,3.0,2.5096202364040896
12-14,7.896882054410784,5.251733334805631,9.692740309663057,4.525394779701589,4.347302099901759,2.4239684070136347,-20.716197299719102,0.6767052009755038,11.043659057819868,-0.8972672323243407,11.716709731320822,0.0,9.0,2.0,2.9968025369641005
12-15,3.793748885614264,8.498319929669202,8.4617581491504,4.068197712524774,4.238350320067764,-0.9821254060817585,-22.85442673440806,0.9531071458748696,12.016783169151415,2.9358389643605363,9.690498790147954,0.0,9.0,2.0,2.5683375771726134
12-16,4.551968576509974,8.102341253552414,5.321312359412301,3.7093020254667297,2.2757867783615704,-0.4820170160796715,-18.1237419583421,0.8768568290135728,10.802605341802124,0.6813292488862625,8.898495415895244,0.0,9.0,2.0,2.2178532378732014
12-17,5.349839650827206,6.924560709461678,7.366481156349125,2.9600532111389892,5.308429349365619,-3.8750873132661297,-14.227840335564965,1.3724693453511083,13.227371728567425,2.3347913936466362,8.710765797477183,0.0,9.0,2.0,2.9543195577794896
12-18,4.92021796530388,7.137779400727289,7.999612801607301,0.9432456591275522,4.907255564921374,-5.368132207828067,-11.313701641562309,1.7936787893931785,13.647358429228307,4.64549586345804,7.090156418424012,0.0,9.0,2.0,3.033580586900046
12-19,3.1403433180638505,6.539956556266277,7.2496129215168255,2.3291104206500197,2.952570298940958,-8.297240661665214,-9.47483560003757,1.812312405139312,10.547666592160247,5.766691920140874,6.329257550123425,0.0,9.0,2.0,2.4079538101082507
12-20,3.3775485291772815,9.06741159331156,5.543771627773821,0.7976389711192401,1.080063589632801,-8.342830947169285,-7.646334202308013,2.199468734347283,8.799434485320623,9.050370397175445,4.703705674593209,0.0,9.0,2.0,2.3858540377478303
12-21,2.2504389835507674,10.915625998586384,6.82357621143698,1.4357525822156052,1.6083619883466775,-9.85785149616548,-11.561058659950236,2.703983332885765,6.3243198999180406,11.563794714152477,3.8736461760451606,0.0,9.0,2.0,2.173382477585178
12-22,-0.431431099669675,9.10883800352951,6.6812192578743375,2.0738661933119587,1.4579723088421854,-5.259661309278816,-14.480154284424906,2.1537042121423466,5.654891427794195,16.023105150487048,4.182945909063611,0.0,8.0,3.0,2.2637746474726494
12-23,-3.6956270018943203,9.848191298037971,6.7381663836446535,2.586687429823251,0.7930939532625549,-7.925670755548328,-22.327357882108505,3.1973460130876687,4.227936179953259,16.345282122753975,2.2623377803406837,0.0,8.0,3.0,1.0041987934460719
12-24,-4.411917283520587,11.159305424270737,5.776550808005737,3.1706003970606704,0.573185159364319,-3.8767418828560003,-21.87914363088372,2.5192522714837056,4.336800704169696,18.000991481503785,0.2736831918466793,0.0,8.0,3.0,1.3035472200370852
12-26,-3.4579191364716197,11.403852079152479,6.240526925296897,2.5651278142222056,2.1546686011763803,-3.6227068103932005,-10.572545668658089,0.8892307916938562,7.153761827698432,7.84923045977906,-0.6739742600432733,0.0,7.0,4.0,1.6607710519544272
12-27,-6.25199049720614,11.412562889255275,5.298900768835702,2.5010042056769906,1.4907975427414033,-4.393538284514271,-6.770677746122836,1.0995364451127687,8.533806454105783,8.056330955662053,-0.06017938856859734,0.0,7.0,4.0,1.743046112081511
12-28,-5.222700874717261,9.902872852366,9.70882441177731,4.92184319811498,1.0758361914812533,-3.8991088003413776,-14.450394039831286,2.165543760304547,8.457840946413263,9.371443595689332,-0.6843425957021421,0.0,7.0,4.0,1.7789715537962187
12-29,-6.581487324015653,10.842781062034394,8.201474306775838,3.3602664373351763,-1.0995030131338233,-2.1661431391061785,-7.663179845734379,2.521658044373997,8.91364687244415,10.31468428593407,-3.1809655154226997,0.0,6.0,5.0,1.955269347623741
12-30,-6.948802047145199,10.295266821442626,7.770803868626721,3.5762719307033897,-3.2387413956341224,0.3225839266212885,-6.87150134175496,2.694901838919032,6.939118014686657,11.997981405371448,-7.502609663090156,0.0,7.0,4.0,1.5862727798955605
12-31,-5.314431967254118,10.627684050567044,3.150360908599344,2.7455685318059144,-0.3707661240650319,-4.506244369424469,-7.143940127901772,0.8142527819627343,7.184102353094175,11.100916981687043,-8.70862922609524,0.0,6.0,5.0,0.7982394827479684
