,2009,2010,2011,2012,2013,2014,2015,2016,2017,2018,2019,2020,ups,downs,end_day_sum,avg
01-02,-0.12945938110351918,-3.9442596435546875,4.701393127441406,1.8408622741699148,1.2953414916992188,-0.08620452880859375,-3.691986083984375,-0.812705993652358,-2.060646057128892,5.752548217773452,8.690193176269545,-8.489433288574219,5.0,7.0,02-01,0.25547027587890775
01-03,-0.8789882659912145,-4.4374427795410085,6.458503723144531,2.22119140625,1.0650520324707031,0.12674713134765625,2.2399139404296875,1.4355697631835795,-1.7004852294921733,4.0372543334960795,9.303916931152358,-9.31414794921875,8.0,4.0,02-02,0.8797570864359541
01-04,-1.2381572723388672,-2.1163368225097656,7.004596710205078,2.047168731689453,0.3189506530761719,1.0626983642578125,2.3518524169921875,-0.38001251220704546,-2.3259124755859375,4.0182037353515625,5.516159057617202,-11.999557495117188,7.0,5.0,02-03,0.35497109095255536
01-05,-1.7005977630615199,-0.891021728515625,6.85450363159179,1.79095458984375,-0.3865470886230469,0.6501998901367188,5.607414245605469,-2.617717742919936,-2.8557968139648438,2.85577392578125,4.7101058959960795,-14.8323974609375,6.0,6.0,02-04,-0.06792720158895123
01-06,-1.3859004974365199,-0.9632110595703125,6.631816864013672,1.6628494262695312,1.2829818725585938,-0.971923828125,11.442352294921875,2.868877410888672,-3.8304595947265625,3.7916336059570312,4.373741149902344,-16.331573486328125,7.0,5.0,02-05,0.7142653465270999
01-07,0.02163887023925426,-0.5430564880371094,5.977363586425781,2.0475845336914062,0.6787948608398438,0.8880462646484375,10.891036987304688,4.613887786865234,-2.9807510375976562,0.270660400390625,4.883094787597656,-14.965934753417969,9.0,3.0,02-06,0.9818638165791826
01-08,-0.39953804016112926,-0.7689399719238281,5.577278137207031,3.2435684204101562,2.236473083496101,0.41527557373046875,7.911903381347656,4.557609558105469,-1.8149948120117188,-2.84954833984375,2.9246978759765625,-9.734870910644531,7.0,5.0,02-07,0.9415761629740406
01-09,0.9760379791259766,-2.3033790588378906,5.454372406005859,3.6880340576171946,2.402809143066399,0.31340789794921875,7.371917724609375,4.647037506103516,-2.9902267456054688,-3.1276473999023438,-2.6801223754882812,-10.617805480957031,7.0,5.0,02-08,0.26120297114054364
01-10,2.535758972167976,-2.321483612060547,4.912666320800781,2.6456527709960938,1.7257728576660085,0.401397705078125,11.051155090332031,3.3488693237304688,-5.728729248046875,-5.7894515991210795,-2.6129913330078125,-8.696701049804688,7.0,5.0,02-09,0.12265968322754024
01-11,2.230472564697269,-2.900623321533203,3.725872039794922,3.853736877441399,1.9422531127929688,4.621864318847656,10.678009033203125,4.637638092041016,-6.2666397094726705,-8.771720886230469,-0.45540618896485796,-9.117729187011719,7.0,5.0,02-10,0.3481438954671197
01-12,3.2765693664550817,-0.3325347900390625,2.485443115234368,3.455066680908203,2.435108184814446,6.1281585693359375,10.827262878417969,2.669689178466797,-6.852348327636719,-9.305282592773438,-5.093864440917983,-10.597427368164062,7.0,5.0,02-11,-0.07534662882487186
01-13,-0.2446727752685547,-4.307384490966797,2.7722244262695312,3.8399887084960938,4.053901672363274,5.062156677246094,9.671607971191406,1.5239219665527273,-6.871315002441406,-11.784294128417969,-5.564781188964858,-11.230194091796875,6.0,6.0,02-12,-1.0899033546447778
01-14,0.435510635375973,-4.415958404541016,1.5340576171875,4.0003509521484375,4.081573486328118,2.928192138671875,5.093254089355469,0.4985656738281179,-5.373847961425781,-12.709861755371094,-3.921348571777358,-10.955001831054688,7.0,5.0,02-13,-1.5670428276062038
01-15,0.15265274047850852,-3.904705047607422,0.6190834045410156,3.7162513732910156,4.150764465332031,2.2014923095703125,6.2219696044921875,2.652759552001953,-3.8289794921875,-9.780479431152344,-2.6333160400390625,-10.778450012207031,7.0,5.0,02-14,-0.9342463811238613
01-16,0.2828559875488246,-4.1218719482421875,0.19118499755858664,4.4265098571777415,3.795642852783203,2.321990966796875,2.6958999633789062,4.5247344970703125,-4.862060546875,-10.419784545898452,-1.8452606201171875,-11.331390380859375,7.0,5.0,02-15,-1.1951290766398126
01-17,1.6297798156738246,-2.845958709716797,0.9195213317871094,4.5960540771484375,3.4912567138671875,2.8503570556640625,3.6100692749023438,4.308376312255859,-4.028007507324219,-6.4598846435546875,-2.2104721069335938,-9.666732788085938,7.0,5.0,02-16,-0.31713676452636747
01-18,1.5130443572998047,-2.882129669189453,0.30498123168946023,4.339435577392571,3.1407432556152344,2.7252273559570312,5.102592468261719,6.321453094482422,-4.4071273803710795,-7.1373672485351705,-4.1326141357421875,-8.430404663085938,7.0,5.0,02-17,-0.2951804796854655
01-19,1.3424301147460902,-2.0496139526367188,0.7055625915527273,4.472328186035149,3.2744903564453125,2.892059326171875,7.0802001953125,6.5001983642578125,-4.208076477050753,-7.261421203613281,-0.10572052001954546,-8.138359069824219,7.0,5.0,02-18,0.37533982594807913
01-20,-2.0158767700195312,-1.5700111389160156,0.741992950439446,5.352130889892571,3.1499595642089844,3.5826492309570312,6.6790618896484375,9.952522277832031,-4.473464965820298,-9.59918212890625,0.09610748291015625,-8.878204345703125,7.0,5.0,02-19,0.25147374471028644
01-21,-3.90606689453125,-1.6876678466796875,0.578113555908196,4.234035491943352,1.240631103515625,4.954490661621094,4.4495849609375,6.650691986083984,-2.5684432983398295,-8.71176147460936,3.258026123046861,-9.257865905761719,7.0,5.0,02-20,-0.06385262807210286
01-22,-3.187707901000973,-0.5384254455566335,0.573566436767571,5.50791931152343,2.259868621826172,3.3091888427734375,4.6175079345703125,4.515316009521484,-3.1181564331054688,-8.75949096679689,2.739044189453111,-5.6559600830078125,7.0,5.0,02-21,0.18855587641397845
01-23,-4.467273712158203,-0.28502655029296875,1.1334609985351491,4.009502410888672,1.2175369262695312,4.491035461425781,4.216377258300781,7.403251647949219,-4.198600769042969,-9.427413940429688,2.1239776611328125,-4.429374694824219,7.0,5.0,02-22,0.1489543914794916
01-24,-5.468477249145504,-0.14931106567382812,3.2592811584472656,5.086353302001953,1.1068611145019531,6.178070068359375,1.3712615966796875,7.638427734375,-3.990104675292983,-12.080093383789034,1.4800567626953125,-2.501861572265625,7.0,5.0,02-23,0.16087198257446436
01-25,-5.787237167358395,-1.2940025329589844,3.8465118408203125,4.055343627929695,0.9777259826660085,8.310035705566406,-1.166046142578125,9.990142822265625,-6.037292480468764,-11.106803894042955,-0.3075408935546875,-0.6327667236328125,5.0,7.0,02-24,0.07067251205444365
01-26,-7.641496658325195,-1.4614181518554688,5.512584686279297,4.999298095703132,-0.07379531860352273,7.369163513183594,-0.37314605712890625,1.8719635009765696,-6.501693725585966,-11.402603149414034,-2.6429519653320312,-2.365570068359375,4.0,8.0,02-25,-1.0591387748718255
01-27,-5.984796524047855,0.13121414184569602,5.071018218994141,5.287986755371101,0.5257644653320312,8.481498718261719,-1.2966461181640625,3.2453880310058594,-5.089523315429702,-9.055305480957045,-2.4699554443359375,-6.551567077636719,6.0,6.0,02-26,-0.6420769691467312
01-28,-8.05005836486816,0.5293807983398438,5.398773193359375,5.127601623535163,-1.1207046508789062,7.777030944824219,4.598854064941406,0.8372039794921875,-3.440399169921861,-7.394989013671889,-3.2196044921875,-9.793281555175781,6.0,6.0,02-27,-0.7291827201843253
01-29,-7.425981521606442,1.0225639343261648,1.7206878662109446,5.608741760253906,-1.5865211486816477,10.09906005859375,3.8432540893554688,-1.41107177734375,-4.6440582275390625,-6.765228271484361,-4.766914367675781,-11.623428344726562,5.0,7.0,02-28,-1.327407995859781
01-30,-7.066812515258789,-1.0542106628417969,2.439922332763672,4.724361419677734,0.27671432495116477,9.413116455078125,3.7313156127929688,-0.5550003051757812,-3.1181488037109517,-7.8530044555664205,-4.238327026367202,-12.285408020019531,5.0,7.0,02-29,-1.2987901369730672
01-31,-6.882732391357425,-0.6786842346191477,2.6948318481445312,4.797676086425774,0.8946990966796804,9.825614929199219,-2.229461669921875,-1.49566650390625,-4.350250244140625,-12.957931518554688,-3.998054504394517,-9.452568054199219,4.0,8.0,03-01,-1.9860439300537118
02-01,-7.497827529907227,-0.40721893310546875,0.2503700256347656,3.6475143432617188,-0.7748298645019602,11.925071716308594,-2.611907958984375,-4.091999053955085,-0.900382995605483,-14.408302307128906,-3.6616897583007812,-11.068553924560554,3.0,9.0,03-02,-2.46664635340373
02-02,-9.495746612548832,-0.9954185485839844,0.660064697265625,3.3817405700683594,-0.7286796569824148,12.828849792480469,-3.2275848388671875,-2.0130767822265625,0.3222351074218608,-10.8873291015625,-5.170555114746094,-7.894985198974609,4.0,8.0,03-03,-1.9350404739379892
02-03,-8.912101745605472,-0.6243858337402273,0.746551513671875,2.1857566833496094,-1.9785270690917969,12.768623352050781,-5.5409698486328125,-3.0007972717285085,-0.8435211181640767,-7.996131896972656,-2.844757080078139,-8.284378051757812,3.0,9.0,03-04,-2.0270531972249364
02-04,-7.848026275634766,1.3211631774902415,0.8694572448730469,3.138885498046868,-2.5365867614746094,10.650550842285156,-4.384284973144531,-1.3545875549316335,-1.1657562255859375,-7.7385101318359375,-2.469940185546875,-10.893329620361328,4.0,8.0,03-05,-1.8675804138183587
02-05,-8.076993942260746,1.3392677307128977,2.5036697387695312,1.7596168518066406,-1.9001274108886719,10.659820556640625,-5.317115783691406,-0.056419372558586645,-1.0709686279296875,-7.394996643066406,-2.7390594482422017,-12.62613296508789,4.0,8.0,03-06,-1.9099532763163252
02-06,-7.771707534790039,1.63787841796875,1.7252540588378906,1.4388427734374858,-1.8770675659179688,7.990242004394531,-4.9439697265625,0.7713699340820312,0.35068511962892046,-6.927452087402344,-4.074943542480469,-11.477413177490234,6.0,6.0,03-07,-1.929856777191162
02-07,-8.485563278198242,2.6242294311523438,1.3610763549804688,0.7286033630371094,-1.9231948852539062,6.48394775390625,-5.93280029296875,2.803253173828125,2.2177658081054688,-4.685073852539077,-1.0091323852539062,-9.99771499633789,6.0,6.0,03-08,-1.3178836504618339
02-08,-8.382305145263672,2.6197242736816406,0.6555099487304688,0.78814697265625,-3.5419883728027344,7.814109802246094,-6.884239196777344,6.622474670410156,-3.1371231079101562,-0.16220855712892046,-0.5382156372070312,-11.516357421875,5.0,7.0,03-09,-1.3052059809366874
02-09,-9.12310409545898,1.588104248046882,0.8421249389648366,0.31618499755859375,-2.6657180786132812,7.285758972167969,-7.677177429199219,4.675235748291001,-4.719886779785156,0.7633590698242045,-2.7486724853515625,-17.91217041015625,6.0,6.0,03-10,-2.447996775309247
02-10,-6.056636810302734,4.7960166931152415,0.7101211547851491,0.6002845764160156,-2.1491775512695312,6.882545471191406,-8.460777282714844,6.086265563964844,-6.2647552490234375,-2.4332122802734375,-7.467529296875,-35.14289474487305,5.0,7.0,03-11,-4.074979146321614
02-11,-4.651353836059563,3.520103454589851,1.1380195617675781,0.471973419189446,-2.1583938598632812,5.037933349609375,-6.203315734863281,6.302623748779297,-4.407127380371094,-0.3244323730468608,-7.640541076660156,-32.31005096435547,5.0,7.0,03-12,-3.4353801409403464
02-12,-4.534618377685543,3.556274414062507,-0.9422760009765625,0.733173370361321,-1.85400390625,4.643951416015625,-7.695838928222656,4.289546966552734,-5.26959228515625,-2.3759613037109375,-8.313285827636719,-35.55175399780273,4.0,8.0,03-13,-4.442865371704101
02-13,-4.364004135131829,2.244159698486328,0.3413963317871094,0.16037750244139914,-1.71563720703125,4.477119445800781,-9.673446655273438,4.120208740234389,-5.117942810058594,-2.3091659545898295,-7.861572265625,-35.843799591064446,5.0,7.0,03-14,-4.6285255750020315
02-14,1.1538619995117188,2.1536865234375,0.7419891357421875,1.4205207824707031,-1.5911064147949219,3.786529541015625,-10.055892944335938,6.857635498046875,-6.293190002441406,-6.555305480957031,-8.063400268554702,-35.10395431518554,6.0,6.0,03-15,-4.295718828837077
02-15,1.234670639038086,1.8414955139160156,0.8603591918945241,-0.07331848144529829,0.3182220458984375,1.38580322265625,-10.354385375976562,6.481353759765611,-3.497276306152358,-7.4427261352539205,-11.225318908691406,-40.91567039489746,6.0,6.0,03-16,-5.1155659357706735
02-16,2.370563507080078,1.6559791564941406,0.6828155517578196,-1.3472023010253764,0.19832229614257812,2.8039932250976562,-8.012985229492188,5.3807373046875,-2.9475631713867188,-7.394996643066392,-9.629936218261719,-38.676651000976555,6.0,6.0,03-17,-4.576410293579098
02-17,3.079944610595703,1.334747314453125,0.12292098999024148,0.1512145996093821,-0.4519767761230469,3.3879928588867188,-9.039085388183594,3.9697341918945312,-1.8671188354492188,-8.883537292480455,-10.437248229980469,-42.2785530090332,6.0,6.0,03-18,-5.075913747151691
02-18,2.4199714660644496,0.6651039123535156,-2.002899169921875,-0.0091705322265625,-1.1391563415527273,4.282470703125,-4.337646484375,5.2490692138671875,-3.4498748779297017,-7.1660003662109375,-7.486747741699219,-42.48298645019531,4.0,8.0,03-19,-4.6214888890584325
02-19,2.7791461944580007,0.529388427734375,0.16387557983397727,0.5178031921386648,-1.9047508239746094,4.0182952880859375,-2.9290847778320312,5.013893127441406,-2.881217956542983,-9.055282592773438,-6.564117431640625,-46.26011276245117,6.0,6.0,03-20,-4.714347044626875
02-20,3.0979061126708913,0.5293655395507812,-0.1775360107421875,0.7973098754882741,-0.5303649902343821,3.4760208129882812,-0.39177703857421875,4.03558349609375,-3.0802459716797017,-6.3262939453125,-2.7775039672851562,-45.00432205200195,5.0,7.0,03-21,-3.8626548449198435
02-21,5.50439453125,-0.18550872802733664,1.4020271301269531,-0.43073272705078125,1.0146293640136719,4.416893005371094,-2.238800048828125,3.2171859741210938,-4.681983947753906,-0.9828338623047017,0.5189743041992188,-43.27151870727539,6.0,6.0,03-22,-2.976439476013184
02-22,4.925222396850586,-0.2760047912597656,2.29425048828125,-0.8477172851562642,0.4150695800781179,4.602264404296875,-1.1660232543945312,3.5276031494140625,-2.7295684814452983,-2.2041778564452983,0.345977783203125,-35.71725463867188,6.0,6.0,03-23,-2.235863208770752
02-23,6.779481887817386,1.91387939453125,-0.14566421508789062,-1.2326316833496236,0.9823532104492188,5.2094268798828125,-2.7332000732421875,7.4126625061035085,-2.767478942871108,-3.8644943237304545,2.0374832153320312,-34.091533660888665,6.0,6.0,03-24,-1.7083096504211435
02-24,4.826450347900398,-0.04976654052734375,1.7753105163574148,-1.7137718200683665,1.4804573059082031,4.263938903808594,-2.58392333984375,6.001609802246094,-1.5638198852539062,-4.9617996215820455,-1.0283432006835938,-34.432254791259766,5.0,7.0,03-25,-2.332159360249839
02-25,5.122760772705082,-0.294097900390625,1.0560760498046875,-2.414875030517578,0.9915618896484375,3.5084609985351562,-2.8637771606445312,6.96112060546875,-2.938087463378892,-3.4637222290039205,-1.893310546875,-26.469127655029297,5.0,7.0,03-26,-1.8914181391398108
02-26,5.401121139526371,-0.6696243286132741,1.4748764038085938,-1.7825202941894531,2.490447998046882,2.632476806640625,-0.15856170654296875,7.901786804199219,-2.8907089233398295,-1.8320465087890767,0.8265304565429688,-22.88669204711914,6.0,6.0,03-27,-0.7910761833190904
02-27,6.016216278076172,-2.3663330078125,2.3807525634765625,-1.585479736328125,0.913158416748054,2.1551437377929688,0.22388458251953125,9.030651092529304,-4.293403625488267,-0.582061767578125,-0.4324798583984375,-19.77153015136718,6.0,6.0,03-28,-0.6926234563191702
02-28,7.363134384155277,-2.289417266845703,2.7904396057128906,-2.4423637390136648,1.4711952209472585,1.2513656616210938,2.1455078125,8.99303054809571,-1.6112213134765625,4.6850738525390625,0.5670318603515625,-22.945098876953125,8.0,4.0,03-29,-0.0017768541971833567
02-29,0.0,0.0,0.0,-1.9383125305175852,0.0,0.0,0.0,9.209392547607415,0.0,0.0,0.0,-22.71146011352539,1.0,2.0,03-30,-1.28669834136963
03-01,6.159891128540039,-0.7646446228027344,5.344158172607429,-3.335906982421882,2.7210426330566406,1.93267822265625,1.3992538452148438,9.811420440673828,-2.890686035156236,4.914085388183594,-1.758766174316392,-26.147872924804688,7.0,5.0,03-31,-0.21794557571410897
03-02,4.970119476318359,-0.6741485595703125,4.779685974121094,-1.9566383361816548,2.956275939941399,3.6474990844726562,2.87310791015625,6.264995574951165,-1.393218994140625,4.656463623046875,-1.5088958740234375,-27.140827178955078,7.0,5.0,04-01,-0.21046511332194248
03-03,3.0170860290527344,-1.1220893859863352,3.6871795654296875,-1.9153900146484304,2.896320343017578,3.18865966796875,1.231353759765625,4.1484375,-1.488006591796875,1.9179229736327983,-1.5665512084960938,-25.807151794433587,7.0,5.0,04-02,-0.9843524297078456
03-04,2.7072944641113317,-0.8415603637695312,4.465595245361328,-0.962268829345696,3.0992431640625,2.9662017822265625,1.1194000244140625,2.1165542602539062,-2.7485427856445455,3.301513671875,0.12493133544921875,-28.698410034179688,8.0,4.0,04-03,-1.1125040054321291
03-05,2.3750534057617223,-1.827911376953125,4.520229339599609,0.0687561035156321,2.0061874389648438,3.582618713378892,1.9589767456054688,-2.7185897827148438,-2.3883819580078267,1.0686950683593608,0.528587341308608,-26.547000885009766,8.0,4.0,04-04,-1.4477316538492853
03-06,2.271795272827152,-2.0043869018554688,4.465602874755859,0.38489532470703125,0.2306060791015696,3.318458557128892,2.9104156494140625,-3.2265853881835938,-2.947570800781264,3.8740310668945455,1.9125442504882812,-20.151187896728516,8.0,4.0,04-05,-0.7467818260192874
03-07,4.449308395385739,-0.809906005859375,4.456489562988281,0.19244766235351562,-0.6733360290527273,3.846809387207017,3.2649078369140625,-4.8539810180664205,-1.213134765625,3.1488494873047017,2.4795684814453125,0.6814384460449219,8.0,4.0,04-06,1.247455120086669
03-08,5.7109165191650355,0.18097305297851562,4.8798370361328125,-0.3894996643066406,-1.1898765563964773,5.677551269531264,4.654823303222656,-0.01879119873045454,2.6063690185546875,3.4160385131835938,7.19842529296875,2.2292861938476562,9.0,3.0,04-07,2.9130043983459495
03-09,4.6154270172119105,-0.3031578063964915,4.1014366149902415,-0.6506996154785156,-2.674945831298828,4.8618011474609375,6.669731140136719,-0.9782943725585938,1.7818222045898438,1.307258605957017,7.121551513671875,1.7814826965332102,8.0,4.0,04-08,2.3027844429016104
03-10,2.271808624267578,2.2170333862304545,5.453395843505859,-1.4709205627441406,-1.8032760620117188,3.15625,7.537261962890625,-0.9877014160156392,2.644287109375,3.5591506958007955,11.88846588134767,-0.26284027099609375,8.0,4.0,04-09,2.8502429326375327
03-11,1.782424926757809,2.696632385253899,4.1697235107421875,-2.0849456787109375,-0.8163185119628906,5.478218078613281,6.986885070800781,-3.725128173828125,2.9381027221679545,1.2213821411132812,12.70538330078125,2.4045143127441335,9.0,3.0,04-10,2.813072840372719
03-12,-0.3771343231201172,2.7871055603027273,3.700836181640632,-2.8822708129882812,-0.843994140625,5.9185333251953125,7.770469665527344,-3.1325073242187216,2.2841339111328125,2.604957580566392,11.138832092285142,8.595891952514652,8.0,4.0,04-11,3.130404472351074
03-13,-0.4579429626464844,4.556209564208984,3.700836181640632,-5.888263702392578,-0.5811195373535085,6.947418212890625,8.068962097167969,-1.2323074340820028,3.4309310913085938,7.261405944824219,9.764495849609375,6.356872558593743,8.0,4.0,04-12,3.4939581553141306
03-14,-1.1089496612548828,3.5653305053710938,2.7949790954589844,-5.375034332275398,-1.480457305908196,5.529228210449219,7.285392761230469,-0.7243347167968608,3.2765350341796875,9.074378967285156,8.688095092773438,13.813785552978512,8.0,4.0,04-13,3.778245766957602
03-15,-0.07631874084472656,4.6557464599609375,1.7252349853515625,-5.8103485107421875,-0.830158233642571,4.166595458984375,8.106285095214858,3.6687088012695312,0.9355545043945312,10.257575988769517,9.495407104492188,13.356243133544918,9.0,3.0,04-14,4.137543837229411
03-16,0.20204734802245738,4.931751251220703,2.8597373962402344,-6.337322235107415,-0.30900955200196023,4.648597717285156,6.3339080810546875,2.7364120483398438,2.1012954711914205,8.5400390625,6.5449066162109375,11.866813659667972,10.0,2.0,04-15,3.6765980720520033
03-17,-1.0946216583251953,6.170574188232422,0.9524116516113352,-5.496883392333977,-2.1297073364257812,5.999031066894531,9.171035766601562,1.363006591796875,1.5326385498047017,10.982757568359375,12.868766784667969,11.039348602294918,9.0,3.0,04-16,4.279863198598228
03-18,-1.1812801361083949,7.315288543701172,1.2938232421875,-6.3643836975097585,-5.796974182128913,6.171875,6.972053527832031,2.1814041137695312,1.3614273071289205,12.153602600097656,10.008407592773438,10.209346771240241,9.0,3.0,04-17,3.6937158902486185
03-19,-1.7335090637207031,8.03016281127929,-0.2355957031249929,-6.621425628662095,-3.6642303466796875,6.92730712890625,8.026176452636719,1.8992843627929688,-0.3949584960937358,12.153602600097656,9.307273864746094,6.841079711914077,7.0,5.0,04-18,3.37793064117432
03-20,-1.154336929321289,8.668903350830078,-0.0897064208984375,-4.461612701416016,-5.189109802246087,5.629600524902344,6.953399658203125,-0.08045196533203125,-0.3000183105468608,9.548881530761719,6.4144439697265625,5.215358734130859,6.0,6.0,04-19,2.5962793032328304
03-21,-3.3056125640869176,7.295986175537109,-0.6230926513671875,-4.33839035034179,-4.10992431640625,5.022438049316406,8.557952880859375,1.5504684448242188,0.43778228759765625,7.881774902343736,5.472587585449219,2.24603271484375,8.0,4.0,04-20,2.1740002632141104
03-22,-2.630571365356449,7.53160476684571,-1.697662353515618,-2.7529067993164062,-4.608028411865234,5.8751068115234375,7.838424682617173,3.20013427734375,-1.13800048828125,8.349319458007798,8.538414001464844,7.471389770507805,7.0,5.0,04-21,2.9981020291646296
03-23,-4.48017501831055,7.9320526123046875,-2.0208549499511648,-3.3852615356445312,-3.8928184509277344,7.211616516113281,8.314987182617173,4.893867492675781,-1.289642333984375,6.851242065429673,8.912216186523423,6.813308715820305,7.0,5.0,04-22,2.988378206888831
03-24,-3.1591968536377024,8.805534362792969,-2.6945648193359304,-3.678699493408203,-4.756507873535149,8.213981628417983,7.3895721435546875,4.931488037109375,-1.3370208740234375,6.3569793701171875,10.86727905273439,1.0346832275390696,7.0,5.0,04-23,2.664460659027103
03-25,-3.11936187744141,10.230777740478516,-3.600440979003899,-4.105564117431641,-3.3893775939941406,6.196479797363281,7.382080078125,4.7151260375976705,0.07515716552734375,6.290061950683594,13.949142456054688,3.74462890625,8.0,4.0,04-24,3.1973924636840834
03-26,-2.46836090087891,10.153861999511719,-2.9388275146484375,-3.843921661376953,-5.40899658203125,8.484611511230469,6.076133728027344,4.517143249511733,0.3409881591796875,7.121612548828111,11.583969116210938,3.9003829956054688,8.0,4.0,04-25,3.12654972076416
03-27,-1.2651176452636719,9.145626068115234,-2.916015625,-3.0505561828613352,-3.732887268066399,7.863525390625,6.8223876953125,6.176383972167983,0.492889404296875,8.065864562988281,9.195152282714844,7.336795806884766,8.0,4.0,04-26,3.677837371826173
03-28,1.6167411804199254,9.467342376708984,-3.6135177612304688,-1.3856773376464773,-3.672931671142578,6.148704528808594,5.8811798095703125,5.0828018188476705,0.135223388671875,11.235092163085952,8.570465087890625,9.38071060180664,9.0,3.0,04-27,4.070511182149255
03-29,2.98931884765625,8.90547943115235,-3.5443153381347727,-1.1061515808105469,-3.8758544921875,5.122589111328125,4.432746887207031,7.064430236816406,-2.3968963623046875,9.85150146484375,8.628120422363281,8.5360107421875,8.0,4.0,04-28,3.717248280843099
03-30,2.651796340942383,6.989082336425781,-3.307575225830078,-2.0592727661132812,-2.9844436645507812,1.0017166137695312,5.0307998657226705,10.379226684570312,-2.558013916015625,12.08432006835939,5.145294189453125,9.695014953613281,8.0,4.0,04-29,3.505662123362226
03-31,3.941375732421875,7.528003692626953,-2.9980316162109375,-2.1310157775878906,-4.249969482421875,0.09215545654296875,6.47845458984375,11.395149230957031,-2.9181747436523438,14.206199645996108,1.100341796875,9.21210861206054,8.0,4.0,04-30,3.471383094787598
04-01,3.934875488281243,6.333522796630859,-2.9434051513671875,-1.9015235900878906,-2.9521026611328054,0.7104415893554688,8.11306762695311,11.903144836425781,-3.6026611328125,13.412887573242202,0.2528228759765625,13.188369750976555,8.0,4.0,05-01,3.8707866668701167
04-02,2.498161315917965,5.342643737792969,-2.8339920043945312,-1.5389289855957102,-3.556800842285149,-0.9136352539062358,6.723152160644517,11.060546875000014,-4.0773773193359375,14.731895446777358,0.19324493408203125,9.586467742919915,7.0,5.0,05-02,3.1012814839681
04-03,1.2365531921386683,6.176368713378906,-2.3462181091308594,-0.9833641052246094,-3.2724380493164134,-2.3411636352539205,4.7082443237304545,11.74874877929689,-4.523590087890625,12.106880187988281,-1.7757110595703125,8.03861999511718,6.0,6.0,05-03,2.39774417877197
04-04,1.314981460571289,6.5660552978515625,-3.3081092834472656,-0.4853820800781179,-1.7781524658203125,-1.5254135131835938,3.9699859619140625,11.899589538574233,-5.898094177246094,12.095863342285156,-1.5258255004882812,8.280158996582031,6.0,6.0,05-04,2.467138131459556
04-05,2.4850578308105504,7.218528747558594,-3.919971466064453,0.12864303588867898,-2.649822235107422,-0.6366043090820312,3.9232864379882812,9.656333923339844,-5.367523193359375,11.895500183105455,-6.292739868164077,5.3924598693847585,7.0,5.0,05-05,1.8194290796915669
04-06,5.167184829711907,5.8906707763671875,-3.811962127685547,0.9259681701660227,-3.2488059997558594,-0.6922836303710938,4.381187438964858,7.800537109375,-5.812988281249986,14.233268737792969,-9.729248046875,7.523860931396477,7.0,5.0,05-06,1.885615825653078
04-07,5.929342269897461,0.7157936096191548,-3.7436676025390696,0.20536422729492188,-1.2581405639648509,1.3402938842773438,0.408599853515625,7.584197998046861,-5.159019470214844,12.237968444824247,-8.063102722167969,4.996509552001953,8.0,4.0,05-07,1.2661782900492362
04-08,8.378625869750977,-0.7411193847656179,-3.7436676025390696,-0.9053878784179688,-0.30669403076171875,4.682441711425781,1.1277923583984375,5.683998107910142,-9.305885314941406,10.947639465332045,-7.7356719970703125,0.9352340698242188,6.0,6.0,05-08,0.7514421145121256
04-09,7.34599494934082,0.24975967407227273,-3.7176551818847656,-1.1440544128417969,3.523174285888672,5.536582946777344,-0.4300384521484375,6.986091613769531,-7.141288757324219,10.211677551269545,-6.341033935546861,1.3927764892578125,7.0,5.0,05-09,1.3726655642191599
04-10,7.067628860473636,-2.1093521118164062,-2.3089981079101562,0.07423019409179688,4.373256683349595,6.315216064453125,-1.2509307861328267,4.5538177490234375,-6.372283935546875,7.465866088867173,-4.327857971191392,2.8822059631347585,7.0,5.0,05-10,1.3635665575663223
04-11,5.263040542602543,-2.802604675292976,-0.5401992797851562,1.0648651123046875,4.539287567138665,5.833213806152344,-0.955047607421875,4.516105651855469,-5.924171447753906,8.195068359375,-4.327857971191392,5.308265686035149,7.0,5.0,05-11,1.6808304786682127
04-12,6.770616531372067,-0.2425384521484304,0.8114471435546875,-0.055080413818359375,6.359985351562486,1.6427688598632812,-0.955047607421875,2.2512588500976562,-2.80072021484375,7.641632080078125,-10.651718139648423,8.392398834228509,7.0,5.0,05-12,1.5970835685729978
04-13,5.357549667358402,-1.1259765625,-1.78704833984375,0.8124198913574219,9.186653137207031,2.153205871582017,-2.7212448120117188,2.3945693969726562,-1.0443344116210938,6.470787048339844,-7.589111328125,6.811042785644531,7.0,5.0,05-13,1.5765426953633617
04-14,5.728811264038093,-0.4123382568359375,-1.8371925354003977,1.7166252136230398,8.031974792480469,3.4154815673828267,-2.8501815795898438,2.36627197265625,-1.1392745971679688,7.5795059204101705,-6.8571624755859375,7.725074768066413,7.0,5.0,05-14,1.9556330045064314
04-15,4.986276626586914,-0.9605827331542969,-1.9830818176269531,0.6701354980468679,8.068916320800781,3.7681503295898295,-5.943351745605469,4.34600830078125,-1.3861007690429688,6.1075820922851705,-8.301780700683594,8.162158966064446,7.0,5.0,05-15,1.4611941973368314
04-16,5.283292770385742,0.4123344421386719,-1.9830551147460938,-0.7940406799316406,8.091999053955078,2.6822738647460938,-5.9807281494140625,2.884765625,-0.9873580932617188,7.3214340209960795,-7.71429443359375,11.472206115722656,7.0,5.0,05-16,1.7240691184997547
04-17,4.608251571655273,0.04078292846678977,-2.019519805908203,-2.565753936767578,9.17739486694336,1.34576416015625,-5.261199951171861,1.140716552734375,-0.9588775634765625,8.678672790527344,-7.203872680664034,6.246849060058601,7.0,5.0,05-17,1.1024339993794794
04-18,6.925870895385749,-0.8609046936035227,-2.3568878173828125,-2.395923614501946,8.951080322265625,0.3433990478515483,-6.550750732421861,3.0639114379882812,-0.9493865966796875,8.267692565917983,-9.158935546875,6.276317596435554,6.0,6.0,05-18,0.9629569053649926
04-19,5.526308059692379,-2.1567955017089915,-1.7596931457519602,-2.2995262145996023,9.81476974487304,-0.7332305908203267,-6.7937240600585795,2.30029296875,-0.322784423828125,7.130279541015625,-12.240798950195298,6.394184112548835,5.0,7.0,05-19,0.4049401283264163
04-20,6.786382675170895,-3.9284439086914062,-2.37054443359375,-1.8726615905761648,7.7686920166015625,-0.9559860229492472,-5.550857543945298,0.9804611206054688,-0.33226776123046875,7.197196960449219,-11.451065063476562,11.069496154785163,5.0,7.0,05-20,0.6117002169291176
04-21,6.799858093261722,-4.367973327636719,-2.3933563232421875,-2.873279571533203,8.706302642822266,-1.141593933105483,-5.9152984619140625,1.1784439086914062,-0.5980987548828125,10.810111999511719,-13.531333923339844,9.979244232177727,5.0,7.0,05-21,0.5544188817342107
04-22,7.236391067504883,-4.884510040283203,-1.6958541870117188,-3.3460311889648438,8.872566223144531,-0.41764068603515625,-6.765693664550781,-0.48079681396484375,-1.9462356567382812,10.46603393554689,-12.895698547363281,9.330982208251953,4.0,8.0,05-22,0.2894593874613456
04-23,5.544303894042965,-5.206226348876953,-1.9830589294433594,-1.5605621337890625,7.9811553955078125,-0.853851318359375,-7.29833984375,0.30167388916015625,0.06646728515625,12.052658081054702,-10.565040588378906,8.280021667480469,6.0,6.0,05-23,0.5632667541503915
04-24,4.171726226806641,-7.33583068847657,-1.59100341796875,-1.4320526123046875,5.0805816650390625,0.631103515625,-5.849906921386719,1.0935821533203125,-0.5981063842773438,8.764709472656264,-10.622817993164062,9.12472152709961,6.0,6.0,05-24,0.11972554524739643
04-25,4.509248733520508,-5.387451171875,-2.7762908935546875,-2.1710166931152273,4.189170837402344,4.751976013183594,-6.447959899902358,1.42352294921875,-2.6013336181640625,7.244972229003892,-8.831474304199219,7.965717315673828,6.0,6.0,05-25,0.1557567914326968
04-26,3.2986850738525426,-6.850990295410163,-2.5802764892578125,-3.130298614501946,5.4546966552734375,5.661537170410156,-5.485435485839858,-0.27339935302734375,-1.5569915771484375,5.123092651367173,-4.786521911621094,7.64159011840821,5.0,7.0,05-26,0.20964066187540542
04-27,3.046678543090824,-4.494842529296875,-2.07879638671875,-3.359790802001946,4.156829833984368,5.2160415649414205,-6.634849548339858,-1.348114013671875,-0.31331634521484375,5.9164047241210795,-3.9390029907226562,7.602302551269531,5.0,7.0,05-27,0.31412871678670157
04-28,2.646160125732422,-4.386096954345703,-2.179096221923828,-3.7223854064941264,4.373931884765618,5.485191345214858,-8.700050354003906,1.1218795776367188,0.16139984130859375,4.597396850585923,-7.8491363525390625,6.345069885253906,7.0,5.0,05-28,-0.17547798156738223
04-29,1.1385593414306676,-5.219821929931641,-2.6668701171875,-4.14006042480468,4.110664367675774,4.742668151855469,-10.03640747070311,0.43367767333984375,0.6076126098632812,1.7299957275390625,-9.47674560546875,4.920867919921882,7.0,5.0,05-29,-1.1546549797058085
04-30,2.155620574951172,-5.609508514404297,-1.7049789428710938,-3.6994247436523366,4.600250244140618,6.673179626464844,-9.298149108886719,0.2828369140625,-0.9588623046875,-0.3918762207031108,-8.609970092773438,5.127132415771477,5.0,7.0,05-30,-0.9528125127156569
05-01,0.9855442047119105,-6.261981964111328,-1.6913070678710938,-2.923748016357429,6.466209411621094,7.489921569824219,-9.251449584960938,-0.4525146484375,-0.7689895629882812,-1.2903366088867188,-5.258445739746094,8.01483154296875,4.0,8.0,05-31,-0.4118555386861174
05-02,0.25653457641602273,-3.1944122314453054,-1.2719039916992188,-3.8050117492675852,6.078235626220703,7.545600891113281,-9.569160461425795,-1.1407089233398438,-2.1361312866210938,2.9725265502929688,-2.63885498046875,4.8128204345703125,5.0,7.0,06-01,-0.17420546213785867
05-03,0.5175514221191548,-3.9510955810546875,0.4513282775878906,-3.0844078063964844,4.087570190429695,6.886627197265625,-9.999031066894545,0.688201904296875,-1.376617431640625,3.5842514038085795,-4.305000305175781,4.154743194580078,7.0,5.0,06-02,-0.19548988342285215
05-04,2.1061134338378977,-4.263736724853516,0.8707275390625,-1.9736557006835938,3.071460723876953,6.079170227050781,-9.933601379394545,1.3292617797851562,1.6234512329101562,4.874580383300781,-7.011238098144531,4.97979736328125,8.0,4.0,06-03,0.14602756500244082
05-05,2.3401412963867116,1.1690292358398366,1.7505722045898438,-2.510669708251953,1.4133529663085938,5.689353942871094,-4.4575042724609375,-0.480804443359375,-0.5411453247070312,3.746734619140611,-9.01446533203125,8.60415267944336,7.0,5.0,06-04,0.6423956553141252
05-06,-2.2321205139160156,2.437725067138672,0.3419151306152344,-6.01275634765625,2.6373023986816406,2.81219482421875,-5.672340393066406,1.9514694213867188,-1.2247085571289062,4.262870788574219,-7.9839630126953125,9.360450744628906,7.0,5.0,06-05,0.0565032958984375
05-07,-0.4275321960449219,3.1309776306152415,-0.18690872192382812,-6.595668792724602,-1.6304168701171875,1.4664535522460938,-4.1958465576171875,1.7440643310546875,-1.9082717895507812,4.568733215332031,-7.2231292724609375,6.934391021728516,5.0,7.0,06-06,-0.36026287078857305
05-08,-1.935108184814446,1.468067169189446,-0.346466064453125,-5.562946319580078,-4.3323707580566335,4.306465148925781,-4.1958465576171875,1.0087127685546875,-2.363983154296875,1.2329711914062642,-11.557022094726577,3.8502578735351562,5.0,7.0,06-07,-1.5356057484944656
05-09,-0.2340087890625,-1.5858993530273509,-1.0302810668945384,-4.672523498535163,-3.491771697998047,3.7960281372070455,-3.9528656005859375,2.4793930053710938,-0.7689971923828125,-1.5770721435546733,-11.759269714355469,5.215530395507805,3.0,9.0,06-08,-1.4651447931925456
05-10,-0.0990142822265625,-2.4241485595703196,-1.2764396667480469,-5.319686889648445,-2.3370933532714844,3.953765869140611,-1.8035507202148438,5.364166259765625,-6.066558837890625,-2.685791015625,-12.491218566894531,9.301521301269524,3.0,9.0,06-09,-1.3236707051595082
05-11,-0.01350784301758523,0.28093719482421875,1.025737762451179,-4.273197174072273,-1.3948440551757812,5.271705627441392,-2.336212158203125,4.751380920410156,-5.819732666015625,-1.2138671875,-8.889274597167969,12.05170822143554,5.0,7.0,06-10,-0.04659716288248935
05-12,0.630043029785142,-2.0707054138183594,1.5590972900390696,-2.5657386779785227,-0.45264434814453125,5.448028564453111,-4.0370025634765625,4.581703186035156,-6.218475341796875,-0.7168426513671733,-8.571464538574219,9.576541900634759,5.0,7.0,06-11,-0.2364549636840838
05-13,2.2186107635497976,-1.9347724914550781,1.595561981201179,-3.2863540649414134,-0.9422111511230398,3.2669754028320455,-1.1120223999023438,6.325752258300781,-6.284934997558594,-0.9653549194335795,-7.993614196777344,7.297817230224609,5.0,7.0,06-12,-0.15121221542358163
05-14,1.7505950927734233,-1.0330848693847656,2.771739959716797,-4.18138504028321,-3.4917526245117188,6.311187744140625,-0.29903411865234375,3.6672286987304688,-4.414649963378906,-0.640380859375,-7.55059814453125,7.926429748535156,5.0,7.0,06-13,0.06802463531493963
05-15,3.1501579284667933,2.510223388671882,1.3539619445800781,-2.3133087158203125,-2.3370704650878906,7.3878173828125,-0.056060791015625,0.8201751708984375,-4.604530334472656,-1.6822052001953125,-8.98556518554689,7.808563232421875,6.0,6.0,06-14,0.25434652964274
05-16,2.718143463134769,3.0041160583496094,0.0045623779296875,-2.868663787841804,-1.6581230163574219,7.6105728149414205,-1.07464599609375,0.6599044799804688,-3.1044921875,-3.1063613891601562,-9.775299072265625,-1.2670478820800781,5.0,7.0,06-15,-0.73811117808024
05-17,2.956668853759769,2.591777801513672,-0.2644004821777344,-2.129688262939453,-2.595733642578125,8.65933227539064,-2.1212844848632812,1.3292465209960938,-3.8165435791015625,-7.550827026367173,-7.695030212402344,0.12768936157226562,5.0,7.0,06-16,-0.8757327397664362
05-18,2.34012603759766,3.4073829650878906,-1.7095375061035156,-1.6569366455078125,-1.0530815124511719,10.877532958984375,-2.4109573364257812,1.9137496948242188,-2.6203079223632812,-7.206748962402344,-6.9245758056640625,-0.2259063720703125,4.0,8.0,06-17,-0.43910503387451144
05-19,0.8280487060546875,3.6973648071289062,-1.422332763671875,-2.6346092224121094,-1.7874298095703125,10.886833190917955,-0.16820526123046875,2.2248611450195312,-4.6330108642578125,-9.481559753417983,-8.195838928222656,3.869903564453125,5.0,7.0,06-18,-0.5679979324340844
05-20,0.3645172119140696,6.388832092285156,-1.8143882751464844,-1.6340065002441406,-1.0530815124511719,9.745231628417969,-1.3456573486328125,1.432952880859375,-5.762779235839844,-12.683486938476562,-7.90692138671875,-0.1669769287109375,4.0,8.0,06-19,-1.2029803593953445
05-21,1.5750808715820348,4.440452575683587,-1.2035064697265625,-2.510662078857422,0.341777801513679,8.705734252929702,-2.3081817626953125,-1.027587890625,-4.357696533203125,-10.351333618164062,-7.059410095214844,0.1571502685546804,5.0,7.0,06-20,-1.133181889851887
05-22,1.8270874023437536,5.754463195800781,-0.9117431640625,-2.4693450927734375,2.1523208618164062,9.151229858398438,-1.1587677001953125,-0.35823822021484375,-4.784919738769531,-6.384765625,-4.102745056152344,0.19643783569335938,5.0,7.0,06-21,-0.09074878692626924
05-23,1.2735576629638672,5.826953887939453,-1.5271835327148438,-4.020736694335945,1.9352188110351562,8.882080078125,-0.3177337646484375,1.81005859375,-4.443138122558594,-3.3930892944335795,-0.1926116943359375,1.4634971618652273,6.0,6.0,06-22,0.6080727577209473
05-24,0.2925071716308558,6.003681182861328,-1.76422119140625,-3.6030616760253906,2.198486328125,10.27426147460939,-0.822357177734375,2.2814102172851562,-5.2690887451171875,-0.5256881713867188,1.43499755859375,0.8447036743164062,7.0,5.0,06-23,0.9454692204793304
05-25,-0.8055534362792969,3.5070571899414062,-2.6714401245117188,-4.043697357177734,-0.060024261474609375,12.297569274902344,-0.999908447265625,0.49019622802734375,-3.7026138305664062,1.5961837768554545,4.179786682128906,0.9625701904296875,6.0,6.0,06-24,0.8958438237508126
05-26,-0.8910598754882777,3.2170753479003906,-2.6851119995117188,-8.43619537353515,-0.3325462341308594,11.768547058105469,-0.33642578125,1.2255477905273438,-3.892486572265625,0.3727722167968608,5.065834045410156,1.0018577575683594,6.0,6.0,06-25,0.5064840316772458
05-27,-0.42751312255859375,0.1495056152343679,-3.1045150756835938,-7.912960052490227,-1.7135429382324219,7.6941070556640625,-0.6167526245117188,1.9137420654296875,-1.8323135375976562,2.1983566284179545,3.3226470947265625,-3.7127532958984375,5.0,7.0,06-26,-0.33683268229166785
05-28,-2.3806304931640625,0.90618896484375,-4.093784332275391,-9.16141510009765,-0.4480247497558594,10.051513671875,-0.7569427490234375,2.9601974487304688,-1.7373886108398438,0.5926055908202983,2.8218460083007812,-2.6421432495117188,5.0,7.0,06-27,-0.32399813334147193
05-29,-2.6416473388671946,1.7036781311035156,-4.955387115478516,-9.592864990234368,-0.452648162841804,8.677909851074219,-0.3270721435546875,-0.2828369140625,-2.1171340942382812,3.3166427612304545,6.414131164550781,-1.9840660095214844,4.0,8.0,06-28,-0.18677457173665543
05-30,-3.6406879425048793,4.055305480957024,-4.016262054443359,-7.00413894653321,-0.3879852294921946,9.485366821289062,-1.0373077392578125,-2.6113967895507812,-1.5380020141601562,3.9857025146484375,8.792938232421875,-1.0607872009277273,4.0,8.0,06-29,0.4185620943705232
05-31,-4.122222900390625,2.0797348022460938,-3.0680580139160156,-6.228458404541023,1.2701225280761648,9.31829833984375,-0.654144287109375,0.367645263671875,-1.2247238159179688,5.849510192871108,10.796165466308594,-2.995738983154297,6.0,6.0,06-30,0.9490108489990234
06-01,-4.3922271728515625,-0.2673492431640625,-2.3204193115234304,-2.726371765136726,-0.34180450439453125,9.708106994628906,-2.3455734252929688,2.5359573364257812,-1.3101654052734375,5.3333740234375,8.821853637695312,-2.121570587158196,4.0,8.0,07-01,0.8811508814493821
06-02,-3.730701446533196,-4.250156402587891,-3.560394287109368,-2.405101776123054,-0.0323333740234375,10.654800415039062,-2.0745391845703125,2.7810745239257812,-0.6266021728515625,4.616508483886719,9.833099365234375,-4.076171875,4.0,8.0,07-02,0.5941235224405931
06-03,-2.092609405517578,-5.147312164306641,-3.400836944580071,-0.13309097290039773,1.6442642211914062,9.179100036621108,-1.3643417358398438,3.5164260864257812,0.7595138549804688,5.5054092407226705,9.765663146972656,-4.6262054443359375,6.0,6.0,07-03,1.1338316599528018
06-04,-2.3806419372558594,-2.0933456420898438,-2.7170219421386577,-0.13309097290039773,1.45489501953125,9.448234558105483,0.15887451171875,2.045745849609375,0.7595138549804688,5.5054092407226705,8.484764099121094,-4.410121917724609,7.0,5.0,07-04,1.3436012268066435
06-05,-2.515636444091797,-1.255096435546875,-2.0560035705566406,-1.344818115234375,4.3231353759765625,8.028221130371108,-1.9904403686523438,2.026885986328125,1.2531814575195312,5.562774658203139,5.32586669921875,-8.496112823486328,6.0,6.0,07-05,0.7384964625040714
06-06,-2.9971771240234304,-0.9333877563476562,-2.7261199951171804,-0.013759613037095164,3.343944549560547,6.710281372070327,-3.1211776733398438,3.3089981079101562,1.4620437622070312,6.011978149414048,3.1685409545898438,-12.032066345214844,6.0,6.0,07-06,0.1818415323893253
06-07,-4.261741638183587,-1.2687034606933594,-2.1927642822265625,-0.25704193115233664,2.401744842529297,6.236946105957031,-3.2146377563476562,-2.5076751708984375,2.0411758422851562,4.3011016845703125,2.8507308959960938,-11.383808135986335,5.0,7.0,07-07,-0.6045560836791987
06-08,-4.981773376464837,-2.49664306640625,-3.0407066345214915,0.463573455810554,3.0298538208007812,6.719573974609361,-3.756622314453125,-2.45111083984375,2.0791549682617188,4.549613952636719,1.9261703491210938,-11.49184799194336,6.0,6.0,07-08,-0.7875636418660488
06-09,-6.331853866577141,-0.0045318603515625,-3.8795166015625,0.03212738037109375,4.05522155761718,5.77288818359375,-2.2146987915039062,-1.7157821655273438,0.20886993408203125,4.979728698730483,3.2455978393554688,-11.15789794921875,6.0,6.0,07-09,-0.5841539700825997
06-10,-6.066329956054677,-2.2519493103027415,-2.4617385864257812,-0.5920944213867188,3.759643554687507,6.7660064697265625,-5.532188415527344,1.1312713623046875,-1.186737060546875,6.059776306152358,4.76727294921875,-8.044296264648438,5.0,7.0,07-10,-0.3042802810668925
06-11,-6.894390106201168,-2.7458419799804688,-0.5288162231445312,-0.20195388793945312,6.0551376342773295,5.438781738281264,-5.7564697265625,0.20740509033203125,-1.3671112060546875,7.761100769042983,2.55218505859375,-3.6439971923828125,5.0,7.0,07-11,0.0730024973551447
06-12,-7.132915496826168,-1.2369880676269531,-1.2718849182128906,-2.2123260498046875,5.838066101074219,4.575630187988281,-4.709831237792969,1.0841598510742188,-0.24683380126953125,8.124290466308594,5.422157287597656,-5.038734436035156,5.0,7.0,07-12,0.26623249053955106
06-13,-6.133846282958981,-1.5314979553222656,-2.598487854003899,-0.3763847351074219,4.129150390625,2.3574295043945455,-3.6632080078125,1.4235153198242188,0.0664520263671875,6.1266860961914205,4.0160675048828125,-7.729984283447266,6.0,6.0,07-13,-0.32617568969726235
06-14,-6.187850952148441,-1.5450859069824219,-2.7990684509277344,-1.1841812133789062,4.863498687744141,0.8631362915039205,-4.373405456542969,2.0363235473632812,1.556976318359375,6.814872741699247,5.287330627441406,-6.6888427734375,6.0,6.0,07-14,-0.11302471160888346
06-15,-5.589311599731445,-1.6085433959960938,-1.7185096740722656,-2.184783935546875,4.720329284667969,-0.35268402099607954,-4.681785583496094,1.4760971069335938,3.351318359375,10.016799926757827,5.1717681884765625,-7.130840301513672,5.0,7.0,07-15,0.1224878629048689
06-16,-4.1357269287109375,-1.6289215087890625,-1.14410400390625,-1.6890792846679688,5.256126403808608,1.5406799316406392,-4.532264709472656,3.6066970825195312,1.9462356567382812,7.1876296997070455,5.229560852050781,-7.189769744873047,6.0,6.0,07-16,0.370588620503747
06-17,-2.9794349670410227,-1.4793930053710938,-1.4358673095703125,-0.7463951110839773,4.801994323730469,1.0884017944335938,-5.238365173339844,2.937347412109375,3.7126922607421875,8.92718505859375,3.1589202880859375,-4.930690765380859,6.0,6.0,07-17,0.6513662338256836
06-18,-2.4619102478027344,-1.5518836975097656,-1.8386726379394531,-0.6038436889648366,4.49311447143554,3.421638488769517,-5.0421142578125,1.5152816772460938,3.7697677612304688,7.812042236328125,-0.9792251586914062,-5.372688293457024,5.0,7.0,07-18,0.263458887736002
06-19,-1.480859756469723,-1.9328193664550781,0.20697402954102273,-0.24409103393554688,4.817195892333984,1.3240890502929545,-4.5374908447265625,1.014617919921875,3.7982940673828125,7.094779968261719,-3.0651702880859375,-4.753894805908203,6.0,6.0,07-19,0.18680206934610974
06-20,0.8665866851806676,-3.707061767578125,0.3576354980468821,1.8088188171386719,6.941780090332031,-0.69921875,-5.155799865722656,0.21172332763671875,3.8169326782226562,4.140312194824219,-5.761802673339844,-4.144084930419915,7.0,5.0,07-20,-0.1103482246398911
06-21,1.0199146270751953,-3.8295631408691406,0.9156684875488352,4.77386474609375,7.214302062988281,-1.6103134155273438,-6.934844970703125,-2.5527191162109375,6.992469787597656,6.845222473144531,-6.647850036621094,-4.797508239746094,6.0,6.0,07-21,0.11572027206420958
06-22,2.242238998413093,-0.9735641479492188,1.2027091979980469,4.250629425048828,9.136405944824219,-1.1550445556640625,-9.341217041015625,-1.2516326904296875,6.451316833496094,5.0196380615234375,-4.672767639160156,-4.262889862060547,6.0,6.0,07-22,0.5538185437520351
06-23,2.4585475921630753,-1.9352760314941406,1.7406501770019531,6.211864471435547,9.908721923828125,-1.0528411865234375,-10.566505432128906,-2.1001129150390625,6.356391906738281,5.4863128662109375,-3.117156982421875,-1.6092910766601562,6.0,6.0,07-23,0.981775442759195
06-24,1.9083061218261719,-0.9157981872558594,2.602252960205078,6.662502288818359,10.287956237792955,3.3932342529296875,-11.307029724121094,1.1429214477539062,6.1179046630859375,5.4480133056640625,-2.9528961181640625,1.6105575561523366,9.0,3.0,07-24,1.99982706705729
06-25,1.3187847137451136,-3.267425537109368,2.462207794189453,5.729015350341797,8.629341125488281,0.05141448974609375,-10.662223815917969,2.885833740234375,5.404533386230469,5.936203002929702,-2.0849380493164062,-0.13777542114259234,8.0,4.0,07-25,1.3554142316182458
06-26,1.8003196716308594,-0.9379234313964844,2.923381805419922,5.37872314453125,5.73066711425782,0.6082992553710938,-11.045387268066406,2.4040908813476562,5.7849884033203125,5.8540496826171875,-4.935356140136719,1.7971763610839773,9.0,3.0,07-26,1.280252456665039
06-27,3.157306671142578,-1.3326873779296875,2.7590065002441406,4.653667449951179,6.118644714355469,0.2184906005859375,-9.13861083984375,0.29763031005859375,6.6896514892578125,4.4337921142578125,-3.991546630859375,-0.403636932373054,8.0,4.0,07-27,1.1218090057373047
06-28,3.554229736328125,-0.7019615173339844,1.9751777648925781,4.915309906005859,5.809173583984375,-0.4958953857422017,-10.224769592285156,-1.0755844116210938,5.6071624755859375,4.844795227050781,-5.0027923583984375,-0.21552658081055398,6.0,6.0,07-28,0.7491099039713524
06-29,3.378314971923828,0.2112121582031321,0.5190887451171804,2.643299102783203,5.658699035644531,-1.7780990600585938,-12.069328308105469,-3.3017120361328125,4.6767578125,3.9558944702148295,-7.070701599121094,-0.6907424926757884,7.0,5.0,07-29,-0.32227643330892103
06-30,2.5584030151367188,1.0585174560546946,-0.14192962646483664,3.9758644104003906,4.9048919677734375,-3.1067352294922017,-9.857185363769531,-3.2828521728515625,4.1830902099609375,6.355628967285142,-8.210845947265625,-2.959911346435547,6.0,6.0,07-30,-0.3769219716389986
07-01,1.8088150024414062,0.7368087768554759,0.5281867980957031,5.626693725585945,4.4285430908203125,-2.029289245605483,-7.360466003417969,-4.564964294433594,3.596626281738267,6.633209228515597,-8.568344116210938,-0.9564056396484375,7.0,5.0,07-31,-0.010048866271976209
07-02,3.0733795166015625,1.072124481201179,0.16302108764648438,4.959934234619141,2.959442138671875,-2.2990341186523438,-7.267005920410156,-2.5472946166992188,3.0639801025390625,7.351135253906236,-1.1747817993164062,-1.604663848876946,7.0,5.0,08-01,0.6458530426025391
07-03,3.7934112548828125,0.3970069885253906,-0.4899482727050781,1.516193389892571,3.463722229003899,-2.7816619873046733,-6.7250213623046875,-0.8470230102539062,2.7976608276367045,6.403533935546861,-1.0309829711914062,-1.4966239929199219,6.0,6.0,08-02,0.4166889190673804
07-05,5.205150604248054,1.2727737426757884,-1.7638969421386648,3.9646949768066477,2.4383544921875,-5.727989196777344,-7.239997863769531,-2.556732177734375,2.0806350708007812,2.42266845703125,-2.3504104614257812,-3.1301803588867116,6.0,6.0,08-04,-0.44874413808186553
07-06,6.386852264404304,0.9052352905273438,-1.8833160400390625,4.58891677856446,5.776992797851548,-7.028770446777344,-7.942237854003906,-0.21413421630859375,3.6661224365234375,1.342620849609375,-8.490615844726562,-3.6053924560546804,6.0,6.0,08-05,-0.5414772033691401
07-07,7.670244216918945,-0.2946510314941406,-2.466838836669922,2.2076339721679688,6.2209701538085795,-3.5259475708007812,-9.1845703125,0.8700027465820312,3.84649658203125,-0.01410675048828125,-7.147575378417969,0.7228546142578125,6.0,6.0,08-06,-0.09129063288370887
07-08,7.391819000244137,-1.3911666870117188,-1.7237701416015625,7.095806121826172,6.7527999877929545,-6.712646484375,-7.709236145019531,-0.00675201416015625,-0.5267181396484375,-3.3834915161132812,-10.490692138671875,3.6481094360351562,4.0,8.0,08-07,-0.5879948933919286
07-09,7.009292602539059,-1.0966567993164062,-3.0683746337890696,6.631359100341804,5.172668457031264,-9.099876403808608,-8.4661865234375,1.4202880859375,0.9475479125976562,-1.9572525024414205,-10.223289489746094,6.692955017089844,6.0,6.0,08-08,-0.5031270980834975
07-10,7.063297271728519,-1.3371772766113281,-1.337799072265632,8.993144989013672,6.536964416503906,-7.6148834228515625,-7.755989074707031,7.0123291015625,0.205657958984375,-2.2527923583984375,-12.382888793945312,5.651813507080078,6.0,6.0,08-09,0.23180643717447888
07-11,6.554960250854492,-2.7801589965820312,-4.680217742919929,7.445629119873047,5.9457855224609375,-6.3990631103515625,-5.958839416503906,7.4846343994140625,0.6545028686523438,-1.633872985839858,-12.556243896484375,6.232414245605462,6.0,6.0,08-10,0.025794188181556876
07-12,4.98083686828614,-2.471607208251953,-3.5935707092285156,7.826580047607422,5.409988403320298,-8.83132934570311,-9.6292724609375,5.108375549316406,-0.0494537353515625,-1.1368560791015767,-12.614036560058594,4.173152923583984,5.0,7.0,08-11,-0.9022660255432134
07-13,5.643865585327141,-2.7021865844726562,-5.45654296875,6.88389587402343,6.9555816650390625,-7.233222961425781,-7.279075622558594,5.270866394042969,-1.3886871337890625,-2.8764114379882812,-7.828315734863281,5.80670166015625,5.0,7.0,08-12,-0.3502942721049003
07-14,4.165313720703125,-4.3062591552734375,-4.438297271728516,7.4357223510742045,7.0758056640625,-6.750091552734375,-7.267822265625,4.524635314941406,-1.4457626342773438,-2.201568603515625,-8.784866333007812,2.4885215759277344,5.0,7.0,08-13,-0.7920557657877616
07-15,3.477497100830078,-4.10205078125,-6.4839439392089915,7.702415466308587,7.0388336181640625,-6.271560668945298,-3.1085968017578125,5.025299072265625,-2.644195556640625,-1.7612686157226562,-10.185897827148438,1.985015869140625,5.0,7.0,08-14,-0.7773710886637369
07-16,2.22811126708984,-2.327808380126953,-3.8264312744140696,7.38514328002929,6.326652526855469,-9.988029479980483,-2.3127365112304688,6.640556335449219,-3.2053756713867188,-2.9769134521484375,-8.193550109863281,1.2573394775390554,5.0,7.0,08-15,-0.7494201660156282
07-17,2.0747833251953125,-3.0175552368164062,-3.365245819091804,6.948272705078125,4.888328552246094,-8.547912597656264,-0.53369140625,7.509590148925781,-3.718994140625,-1.1965026855468892,-9.826454162597656,1.9107627868652344,5.0,7.0,08-16,-0.5728848775227894
07-18,1.4748764038085866,-3.557525634765625,-2.3880882263183665,6.0331878662109375,4.347221374511719,-9.003181457519545,1.6385879516601562,6.895599365234375,-4.451385498046875,-7.791656494140639,-10.058349609375,-0.2772102355957031,5.0,7.0,08-17,-1.4281603495279984
07-19,1.0779762268066335,-3.5938339233398438,-4.315021514892585,5.320407867431641,3.5749053955078125,-11.353858947753906,1.8726806640625,7.764595031738281,-8.874237060546875,-6.652580261230483,-11.613960266113281,0.26731109619140625,6.0,6.0,08-18,-2.210467974344892
07-20,-0.20747756958008523,-4.079353332519531,-4.479389190673828,4.869770050048828,3.2835464477539205,-9.346977233886719,1.94757080078125,7.6607208251953125,-8.256004333496094,-6.614280700683608,-11.855506896972656,-1.1484375,4.0,8.0,08-19,-2.352151552836101
07-21,-0.1172790527343679,-4.115673065185547,-5.278469085693359,6.341274261474609,2.774833679199233,-9.960189819335923,2.8839187622070312,8.246368408203125,-7.542633056640625,-6.6525955200195455,-10.908615112304688,-4.029430389404297,4.0,8.0,08-20,-2.363207499186196
07-22,1.0915107727050781,-4.4696044921875,-5.739643096923828,6.433238983154297,1.4799346923828267,-8.845230102539062,0.9175949096679688,8.728111267089844,-9.444915771484375,-7.7438125610351705,-9.082473754882812,-4.534343719482415,5.0,7.0,08-21,-2.6008027394612623
07-23,0.004528045654296875,-4.074840545654297,-8.483901977539062,5.688304901123054,2.7655715942382812,-8.055465698242173,0.7022476196289062,12.260917663574219,-8.769615173339844,-7.7438125610351705,-10.531791687011719,-3.2076988220214844,5.0,7.0,08-22,-2.4537963867187496
07-24,-0.39239501953125,-5.535961151123047,-8.511302947998047,6.102165222167969,3.5933914184570312,-8.28777313232419,1.7884063720703125,12.289253234863281,-9.150054931640625,-9.69650268554689,-10.106658935546875,-3.3958091735839844,4.0,8.0,08-23,-2.608603477478026
07-25,-0.3337554931640625,-5.581348419189453,-9.068374633789062,6.0791778564453125,2.0672683715820312,-7.005569458007798,3.31463623046875,11.731941223144531,-10.110740661621094,-10.586708068847656,-7.9713134765625,-4.415546417236328,4.0,8.0,08-24,-2.656694412231444
07-26,0.6720619201660227,-5.440666198730462,-8.036430358886719,5.283638000488281,2.821075439453125,-5.760566711425753,1.5636749267578125,10.163894653320312,-9.169097900390625,-11.046173095703125,-6.831169128417969,-5.118465423583984,5.0,7.0,08-25,-2.57485198974609
07-27,0.6901016235351634,-5.42250061035157,-6.461105346679695,3.6328086853027273,4.481346130371094,-6.615364074707017,-3.6797943115234375,10.343368530273438,-10.339004516601548,-11.32375335693358,-8.125907897949219,-4.187835693359375,4.0,8.0,08-26,-3.0839700698852517
07-28,0.437511444091804,-5.94435119628907,-6.168869018554695,3.4258575439453125,5.508056640625,-5.063728332519517,-7.949478149414048,10.230018615722656,-9.806358337402344,-12.92230224609375,-11.758895874023438,-2.8611907958984446,4.0,8.0,08-27,-3.5728108088175445
07-29,1.3891830444335938,-5.95343017578125,-5.515899658203132,4.299568176269531,5.734657287597656,-4.4969406127929545,-6.320259094238281,8.529747009277344,-10.006111145019517,-11.907661437988281,-11.275794982910156,-5.187770843505859,4.0,8.0,08-28,-3.392559369405109
07-30,0.48712158203125,-4.555824279785156,-6.100376129150391,4.419136047363281,5.637535095214844,-4.6641845703125,-7.0693359375,10.910148620605469,-10.110733032226548,-10.768592834472656,-13.91357421875,-3.2869110107421875,4.0,8.0,08-29,-3.251299222310383
07-31,-0.02255630493164773,-7.210353851318374,-5.374366760253906,4.970939636230469,6.46075439453125,-0.7711715698242188,-5.8052825927734375,10.844032287597656,-11.166511535644517,-10.500549316406236,-12.870063781738281,-3.5542144775390696,3.0,9.0,08-30,-2.916611989339193
08-01,-1.6643104553222727,-5.948871612548828,-4.598110198974609,3.494838714599595,3.417694091796875,0.5296096801757812,-0.6086044311523438,11.750816345214844,-10.75750732421875,-6.4994354248046875,-8.251533508300781,-1.4058456420898509,4.0,8.0,08-31,-1.711771647135419
08-02,-1.5335235595703267,-6.7838096618652415,-3.200859069824226,5.485980987548821,2.9737167358398438,-2.9732131958007812,0.8146133422851562,9.616012573242188,-8.227462768554688,-6.844032287597656,-9.594573974609375,-0.15840530395508523,4.0,8.0,09-01,-1.7021296819051142
08-03,-2.097320556640632,-6.729366302490234,-2.4611473083496094,0.5978088378906179,2.4418869018554688,-3.1776275634765625,1.7509307861328125,5.780952453613281,-4.974525451660156,-3.4746475219726562,-6.251457214355469,-1.0197334289550852,4.0,8.0,09-02,-1.6345205307006854
08-04,-3.080575942993164,-5.926200866699219,0.21006011962890625,1.0622558593749858,1.3458328247070312,-1.793235778808608,-0.6741714477539062,4.014556884765625,-6.44879150390625,-4.900886535644517,-4.3673095703125,-3.2176017761230398,4.0,8.0,09-03,-1.9813389778137214
08-05,-3.653392791748047,-5.672092437744141,-1.5205154418945312,0.06898880004882102,1.327301025390625,-0.8547821044921875,1.5168609619140625,-1.577484130859375,-5.706901550292969,-4.7764511108398295,-4.647514343261719,-6.979724884033203,3.0,9.0,09-04,-2.706309000651041
08-06,-3.7435951232910156,-4.2291107177734375,1.8219032287597656,1.1772117614745952,2.40948486328125,1.02203369140625,0.0280914306640625,-2.0497894287109375,-4.451385498046875,-5.4273605346679545,-4.0098114013671875,-7.118328094482415,5.0,7.0,09-05,-2.0475546518961583
08-07,-2.1694717407226634,-4.537662506103516,1.2876548767089844,0.26671600341796875,1.9932785034179688,1.5609359741210795,3.6985244750976562,-1.9931182861328125,-3.8236160278320312,-6.461151123046861,-1.913116455078125,-5.0590667724609375,5.0,7.0,09-06,-1.429174423217774
08-08,-2.8325004577636648,-4.741855621337891,-0.11415863037109375,0.2943115234375,0.9018173217773438,-0.03717041015625,1.34832763671875,-1.6530532836914062,-5.022071838378906,-4.6711578369140625,-4.628196716308594,-6.692615509033203,3.0,9.0,09-07,-2.320693651835123
08-09,-2.904663085937493,-4.3607025146484375,-1.7807998657226562,-0.40006637573241477,0.7815933227539062,-3.4284515380859375,1.1048812866210938,4.2034912109375,-2.3778762817382812,-4.230857849121094,-3.6716461181640625,-7.2569313049316335,3.0,9.0,09-08,-2.0268357594807926
08-10,-2.5844440460205007,-5.440666198730476,1.6803398132324219,-0.6667594909667969,1.2347793579101562,-2.8988723754882812,0.5805435180664062,4.628532409667969,-1.2079696655273438,-4.6711578369140625,-2.2416229248046875,-7.247032165527344,4.0,8.0,09-09,-1.5695274670918782
08-11,-0.054111480712890625,-3.1219100952148366,-1.1278343200683594,1.4301109313964844,1.3689193725585938,-6.4016342163085795,0.33707427978515625,3.8161697387695312,-0.64678955078125,-5.743240356445327,-1.4300003051757812,-8.5043716430664,4.0,8.0,09-10,-1.6731348037719715
08-12,0.11275863647460938,-2.309661865234368,-1.589019775390625,1.6462440490722656,2.2614822387695312,-4.998672485351577,-2.8090286254882812,2.9471359252929688,0.5802078247070312,-6.7291717529296875,2.009735107421875,-7.157928466796875,6.0,6.0,09-11,-1.3363265991210944
08-13,-0.5096588134765625,-1.7696914672851491,-3.2145614624023438,1.4255218505859375,2.4325790405273438,-4.032394409179673,-2.5749359130859375,4.609649658203139,-1.1508941650390625,-6.872734069824219,1.5266265869140625,-5.504573822021484,4.0,8.0,09-12,-1.3029222488403291
08-14,-0.11275863647460938,-2.14178466796875,-5.009052276611328,0.9564781188964915,4.971626281738281,-1.7839202880859375,-2.8090286254882812,1.9836502075195312,-0.05706787109375,-6.5568695068359375,5.806983947753906,-6.049095153808594,4.0,8.0,09-13,-0.9000698725382481
08-15,2.2461509704589773,-0.8576087951660156,-4.648345947265625,1.4531173706054688,4.883750915527344,-3.790802001953125,-1.8258438110351562,2.2953720092773438,1.3791656494140625,1.435791015625,5.884269714355469,-8.454872131347663,7.0,5.0,09-14,1.207987467329493e-05
08-16,1.8537521362304688,-0.8167800903320312,-3.5752906799316406,0.91510009765625,5.392463684082031,-2.202018737792983,-2.6778945922851562,0.13224029541015625,5.821044921875,0.9859161376952983,4.9373779296875,-7.415340423583984,7.0,5.0,09-15,0.2792142232259091
08-17,2.3679428100585866,-1.3431472778320312,-2.8538436889648438,0.8231353759765625,7.075843811035156,-3.818695068359389,-3.3520584106445312,-1.6719512939453125,7.342872619628906,2.0771331787109233,1.8068389892578125,-7.296535491943359,6.0,6.0,09-16,0.09646129608154001
08-18,3.396312713623047,-0.8031692504882812,0.054790496826171875,2.579742431640618,6.358978271484375,-3.270500183105483,-2.9588088989257812,-3.098297119140625,6.667572021484375,1.7708435058593608,1.5266342163085938,-7.682647705078125,7.0,5.0,09-17,0.3784542083740205
08-19,4.244243621826172,0.027225494384765625,0.08219146728515625,3.701759338378899,6.063018798828125,-1.6816940307617188,2.6872787475585938,-3.1266326904296875,7.694793701171875,2.9194793701171875,7.565513610839844,-4.7026519775390625,9.0,3.0,09-18,2.1228771209716792
08-20,4.361518859863281,0.07261276245117188,1.8492889404296946,3.1407394409179616,6.0815582275390625,-1.9418716430664205,3.0056076049804688,-0.20783233642578125,9.064445495605469,2.651458740234361,4.376983642578125,-3.2076988220214844,9.0,3.0,09-19,2.437234242757159
08-21,3.355701446533196,-0.3312339782714915,1.7397041320800852,3.269512176513672,9.226356506347656,-1.858238220214858,4.756568908691406,-0.1889190673828125,8.90277099609375,3.7905349731445455,3.9614944458007812,-2.504779815673828,8.0,4.0,09-20,2.8432893753051753
08-22,3.039978027343743,-1.1888618469238281,0.643829345703125,2.1428909301757812,8.042434692382812,-1.0034408569335938,9.737869262695312,-1.057952880859375,8.455734252929688,2.7280426025390625,5.613731384277344,-3.10870361328125,8.0,4.0,09-21,2.8371292750040684
08-23,2.7197380065917827,-1.8150672912597727,-0.8447265625,3.0166015625,7.015724182128906,-2.7501754760742188,6.554344177246094,-0.7651443481445312,8.626930236816406,3.6086654663085938,9.246719360351562,-3.5839157104492188,7.0,5.0,09-22,2.585807800292967
08-24,2.458137512207024,0.4582939147949219,-2.963428497314446,2.1428909301757812,6.298896789550781,-3.316955566406236,6.79779052734375,2.6354217529296875,9.093002319335938,2.594024658203125,9.043830871582031,-5.464977264404297,9.0,3.0,09-23,2.4814106623331718
08-25,4.338951110839837,1.3159294128417969,-2.205455780029297,2.0141143798828125,5.438690185546875,-5.760551452636719,6.423233032226548,3.088836669921875,9.197624206542969,0.536041259765625,8.454429626464844,-5.870891571044915,9.0,3.0,09-24,2.247579256693521
08-26,3.712024688720703,1.6970863342285227,-2.9314651489257812,2.19805908203125,5.434059143066406,-7.9532546997070455,1.9195098876953125,3.1549530029296875,9.977569580078125,0.7753372192382812,7.6138153076171875,-6.8114166259765625,9.0,3.0,09-25,1.5655231475830071
08-27,4.172077178955078,0.43560409545897727,-6.757904052734375,1.8577613830566406,7.307075500488281,-6.01141357421875,-2.5749282836914062,1.388580322265625,10.605331420898438,5.111480712890625,6.6669158935546875,-8.484573364257812,8.0,4.0,09-26,1.1430006027221673
08-28,4.041290283203132,0.9574508666992188,-8.141468048095703,1.6554450988769602,5.512672424316406,-5.806999206542969,-3.9981460571289062,-1.3129653930664062,12.260337829589844,7.341766357421875,4.096778869628906,-9.732013702392578,7.0,5.0,09-27,0.572845776875815
08-29,3.6308517456054688,2.0646438598632812,-6.789863586425781,1.1726074218750142,6.608726501464844,-7.191390991210923,-4.728462219238281,-1.7758026123046875,13.049797058105469,6.250549316406236,2.2126312255859375,-8.603374481201165,7.0,5.0,09-28,0.4917427698771177
08-30,3.1301956176757812,1.6743927001953125,-6.205410003662109,2.165874481201179,6.62725830078125,-6.829032897949219,-5.1685333251953125,-1.4263381958007812,12.983207702636719,6.126113891601548,2.4928359985351562,-7.811351776123047,7.0,5.0,09-29,0.6466010411580397
08-31,3.6669464111328125,2.2279930114746094,-8.356075286865234,1.0576515197754048,6.3173828125,-5.416786193847656,-8.314643859863281,5.166961669921875,11.727691650390625,6.777023315429673,0.9275741577148438,-7.821254730224609,8.0,4.0,09-30,0.6633720397949219
09-01,4.970426559448242,1.7606163024902344,-7.821826934814453,1.7841949462890625,5.68841552734375,-5.426063537597656,-5.514984130859375,5.11029052734375,11.099922180175781,8.92116546630858,0.8212890625,-8.930088043212898,8.0,4.0,10-01,1.0386131604512514
09-02,6.129566192626953,1.9648094177246094,-6.420013427734375,1.2553787231445312,5.017814636230469,-8.074066162109375,-4.597389221191406,4.770225524902344,10.41510009765625,9.466781616210923,0.08696746826171875,-7.682647705078125,8.0,4.0,10-02,1.0277105967203763
09-03,6.201728820800781,1.5836563110351562,-6.018199920654304,2.2394485473632812,6.345123291015625,-10.118133544921875,-4.35394287109375,0.20780181884765625,10.3389892578125,11.304618835449205,-2.4638519287109375,-7.118331909179695,7.0,5.0,10-03,0.6790755589803036
09-04,5.881509780883789,1.9330635070800852,-7.28302001953125,2.6763038635253906,5.471061706542969,-7.209983825683594,-3.8296051025390625,1.7758407592773438,10.757514953613295,11.792793273925753,-5.575080871582031,-7.128231048583984,7.0,5.0,10-04,0.771847248077392
09-05,3.3421707153320312,3.385112762451179,-8.470207214355469,1.1680030822753906,5.054847717285156,-7.73956298828125,-3.8108901977539062,1.209075927734375,10.110725402832031,11.955513000488281,-5.604072570800781,-5.910491943359382,7.0,5.0,10-05,0.3908519744873047
09-06,3.211364746093757,3.180931091308601,-6.072994232177727,-0.6115951538085938,4.920707702636719,-4.041702270507827,-0.5617828369140625,0.292816162109375,8.065757751464844,14.243240356445327,-6.4156951904296875,-5.959991455078132,6.0,6.0,10-06,0.8542547225952161
09-07,4.000671386718757,3.9114723205566477,-6.3332557678222585,-0.827728271484375,3.769134521484375,-4.4969558715820455,2.7996368408203125,2.890472412109375,7.352378845214844,15.229171752929688,-8.850570678710938,-4.326442718505859,7.0,5.0,10-07,1.2598320643107102
09-08,4.934329986572266,3.7435722351074148,-5.684871673583977,-0.4506416320800781,5.059440612792969,-5.872055053710952,4.850212097167969,1.8419494628906108,9.083480834960938,15.229141235351577,-8.773269653320298,-4.791755676269538,7.0,5.0,10-08,1.597461064656575
09-09,4.632133483886719,4.151973724365234,-3.890380859374993,-1.1450271606445312,4.2454986572265625,-7.154243469238281,6.404541015625,4.467948913574219,8.198905944824205,16.01404571533203,-9.894081115722656,-5.098667144775391,7.0,5.0,10-09,1.7443873087565098
09-10,3.558677673339851,2.8677978515625,-3.4565773010253906,-1.1864166259765625,3.681304931640625,-6.921966552734375,5.346466064453125,3.9295272827148438,7.85650634765625,14.846267700195312,-10.985916137695298,-1.2771415710449148,7.0,5.0,10-10,1.521544138590497
09-11,3.9510765075683594,2.845115661621101,-5.11865234375,-0.6345787048339915,2.0209884643554688,-7.8975372314453125,6.198516845703125,3.2683181762695312,8.151359558105469,15.439743041992188,-12.019783020019531,-2.3166732788085938,7.0,5.0,10-11,1.1573244730631511
09-12,5.683036804199226,3.253520965576179,-3.059314727783203,-1.6002655029296875,1.63250732421875,-6.280860900878906,9.934494018554688,4.07122802734375,7.9040679931640625,9.122192382812514,-10.715385437011719,-1.4850502014160085,7.0,5.0,10-12,1.5383475621541371
09-13,5.6424522399902415,3.2988853454589844,-3.0182266235351562,-2.6119384765625,2.3493728637695312,-9.244758605957031,10.177940368652344,5.337013244628906,5.545219421386733,9.428482055664077,-10.4351806640625,-1.5939483642578125,7.0,5.0,10-13,1.239609400431318
09-14,6.08446121215821,3.0447731018066406,-3.1049880981445312,-3.7339553833007812,4.189971923828125,-11.223785400390625,8.988792419433594,7.4151153564453125,4.898437500000014,8.27984619140625,-16.16486358642578,-0.9504318237304688,7.0,5.0,10-14,0.6436144510904965
09-15,4.4066162109375,3.3238372802734375,-4.315013885498054,-3.02117919921875,6.100028991699219,-16.863563537597656,7.5187530517578125,5.053627014160156,3.5287857055664205,3.905418395996108,-15.836349487304688,0.049503326416015625,8.0,4.0,10-15,-0.5124613444010399
09-16,3.7698135375976562,3.5870018005371094,-4.205429077148445,-3.5040206909179616,7.057334899902344,-19.8646240234375,5.626716613769531,5.0347137451171875,3.42413330078125,4.441429138183608,-16.86054229736328,-3.2077064514160085,7.0,5.0,10-16,-1.225098292032876
09-17,4.067497253417969,4.444629669189446,-3.3703460693359446,-2.748699188232422,5.728668212890625,-15.649169921875,5.888885498046875,5.305717468261719,3.395606994628892,4.81476593017581,-11.565658569335938,-3.534412384033196,7.0,5.0,10-17,-0.26854292551676373
09-18,4.387737274169929,5.189006805419922,-1.6500701904296946,-0.9021987915038991,4.943565368652344,-15.454071044921875,9.072410583496094,4.3405303955078125,4.117828369140611,2.9001922607421733,-12.421012878417969,-3.0592002868652273,7.0,5.0,10-18,0.12205982208251835
09-19,5.4173583984375,5.657115936279304,-2.8258895874023438,0.8508796691894531,5.4337921142578125,-14.887290954589858,10.104911804199219,3.67816162109375,4.270416259765625,0.17806243896484375,-12.701225280761719,-0.3431358337402344,8.0,4.0,10-19,0.40276304880777936
09-20,5.268276214599609,6.243396759033203,-0.4244956970214844,0.8600883483886719,6.293998718261719,-9.557655334472656,10.442665100097656,2.732513427734375,2.5189971923828267,1.0969772338867188,-12.111824035644531,-1.0031394958496094,8.0,4.0,10-20,1.0299832026163749
09-21,5.963993072509773,4.5449981689453125,2.1068344116210938,0.6761436462402344,5.881988525390625,-9.60418701171875,7.9189300537109375,1.6116104125976562,2.794830322265639,0.8576812744140625,-12.639266967773438,-2.2331390380859446,9.0,3.0,10-21,0.6567014058431001
09-22,4.750762939453125,4.500083923339851,5.157016754150391,0.7907638549804688,6.993064880371094,-8.170463562011719,9.192474365234375,2.4711990356445312,2.1670684814453267,-5.003143310546889,-14.899955749511719,-1.7867279052734304,8.0,4.0,10-22,0.5135119756062837
09-23,4.9075469970703125,4.813175201416023,6.540580749511719,0.0170135498046875,7.2384490966796875,-4.289955139160156,10.2110595703125,5.1727447509765625,-0.34545135498046875,-5.847030639648452,-11.775733947753906,-0.8973617553710866,7.0,5.0,10-23,1.3120864232381184
09-24,5.881782531738281,3.7059822082519602,4.9464874267578125,-0.42513275146483664,6.128875732421875,-9.184501647949219,10.005058288574219,5.493659973144531,0.683586120605483,-7.2086944580078125,-8.405593872070327,-1.1646728515625,7.0,5.0,10-24,0.8714030583699556
09-25,6.382438659667969,3.4963111877441406,6.447151184082031,-0.9599533081054759,3.3508377075195312,-7.530670166015625,10.44512939453125,4.519004821777344,0.8074264526367188,-13.707366943359375,-4.376548767089858,-1.956695556640618,7.0,5.0,10-25,0.576422055562336
09-26,5.172557830810547,2.8191299438476562,6.657611846923828,0.12565994262694602,3.0224761962890625,-8.942916870117188,15.486358642578125,4.272979736328125,-0.2111053466796733,-18.166969299316392,-2.7533035278320455,-0.13679122924804688,7.0,5.0,10-26,0.6121406555175787
09-27,4.138019561767578,2.887310028076172,4.1475830078125,-1.0699348449707031,3.6514434814453125,-7.695442199707031,15.139236450195312,4.035285949707031,-0.9535446166992188,-19.784652709960938,-2.6470184326172017,0.443206787109375,7.0,5.0,10-27,0.19095770517984909
09-28,3.0989303588867188,1.8696403503417969,6.074428558349609,-0.5411186218261719,5.706260681152344,-8.905723571777344,13.225326538085938,-1.56707763671875,-0.47798919677734375,-20.33026885986328,-1.8835983276367045,-2.136791229248047,5.0,7.0,10-28,-0.48899841308593633
09-29,2.3772201538085938,0.9484977722167969,6.307304382324226,-1.5251884460449219,6.636833190917969,-12.322410583496094,11.92254638671875,-2.5966873168945312,-0.40187835693359375,-21.228347778320312,-1.388763427734375,-1.2492523193359304,5.0,7.0,10-29,-1.0433438618977853
09-30,0.40438079833984375,1.3342018127441406,7.572124481201172,-1.5251884460449219,6.16461181640625,-6.8162994384765625,11.383331298828125,-4.164726257324219,-0.08674621582032671,-21.765357971191406,-2.7762222290039205,-3.071746826171882,5.0,7.0,10-30,-1.112303098042809
10-01,1.5139236450195312,-0.11784744262695312,11.239067077636719,-0.7330245971679688,6.068756103515625,-3.2826080322265625,10.643653869628906,-3.9764404296875,1.390113830566392,-26.09970092773436,0.5119857788085938,-2.002513885498054,6.0,6.0,10-31,-0.403719584147136
10-02,1.6447296142578054,-0.2863349914550781,12.30965805053711,-0.4007263183593821,3.7725906372070312,-3.4777069091796875,7.3945465087890625,-4.8659210205078125,2.400085449218736,-23.26039886474608,0.10700225830078125,-1.953014373779304,6.0,6.0,11-01,-0.5512908299764016
10-03,1.5647087097167898,0.0681610107421946,9.678932189941406,2.5716171264648438,4.0316009521484375,-3.0224533081054688,4.718017578125,-5.2255096435546875,3.3708343505859375,-23.78716278076172,-0.897857666015625,-2.1265602111816477,7.0,5.0,11-02,-0.7546393076578782
10-04,-0.32368850708008523,0.22721099853516336,5.657512664794915,2.415252685546875,2.7412948608398438,-2.4945449829101562,5.027595520019531,-3.6090011596679688,5.838333129882827,-23.643569946289077,-0.9751586914062642,-1.8565597534179688,6.0,6.0,11-03,-0.9162769317626971
10-05,-0.18363571166992898,0.25565338134765625,8.872131347656243,3.109638214111328,2.6617355346679688,0.14014434814453125,5.233985900878906,-5.9330902099609375,5.629081726074247,-24.42847442626953,-0.1551361083984375,-0.9465599060058665,7.0,5.0,11-04,-0.4787104924519851
10-06,-0.6519737243652344,-4.420078277587891,8.077621459960938,3.3306427001953125,2.9302444458007812,-1.4704742431640625,5.416297912597656,-5.706390380859375,5.971481323242202,-21.77434539794922,1.6301498413085938,-0.6112480163574219,6.0,6.0,11-05,-0.60650602976481
10-07,0.328460693359375,-4.438224792480476,9.739696502685547,2.5569000244140625,5.0042877197265625,-2.925537109375,2.6879119873046875,-5.0451812744140625,6.305488586425781,-26.127891540527344,4.094596862792969,-0.30406951904296875,7.0,5.0,11-06,-0.6769634882609056
10-08,-1.9176902770996094,-4.846630096435554,9.50587081909179,3.2984199523925852,3.9110336303710938,1.6101303100585938,-0.3739013671875,-4.769355773925781,7.7823333740234375,-22.29218292236328,5.400283813476548,-1.254497528076179,6.0,6.0,11-07,-0.32884883880615473
10-09,-1.877105712890625,-5.051078796386719,10.260780334472656,5.113910675048828,2.4527816772460938,4.0258331298828125,-0.6173477172851562,-5.0343017578125,10.12624359130858,-23.76457977294922,3.0225906372070312,-1.145599365234375,6.0,6.0,11-08,-0.2073227564493827
10-10,-1.0857925415039062,-4.905632019042969,10.027427673339844,4.914764404296875,0.90814208984375,6.004859924316406,0.5718002319335938,-3.491912841796875,9.030975341796875,-16.390960693359375,2.7133941650390625,-2.2291183471679688,7.0,5.0,11-09,0.5056622823079427
10-11,-0.037693023681640625,-4.519325256347656,10.032672882080078,4.763008117675781,-1.0019149780273438,14.316574096679702,-0.5540237426757812,-2.3868560791015625,7.211349487304673,-11.748512268066406,2.3848800659179688,-3.249114990234368,5.0,7.0,11-10,1.267587025960287
10-12,0.8884239196777344,-3.0745620727539062,7.979148864746094,5.245849609374993,-4.301765441894531,14.856552124023438,-0.460205078125,-2.5567550659179688,7.4776763916015625,-12.284523010253906,6.630332946777344,2.480884552001953,7.0,5.0,11-11,1.9067548116048172
10-13,0.7657432556152344,-2.2133026123046875,8.239940643310554,2.5423316955566406,-4.588798522949219,13.878990173339858,1.3772354125976562,-1.9587249755859375,7.5062026977539205,-16.78125,6.591514587402344,3.9351654052734304,8.0,4.0,11-12,1.607920646667483
10-14,-0.5375862121582031,-2.3314743041992188,6.519664764404304,1.9666099548339773,-4.3619537353515625,14.037399291992202,-2.3079071044921875,-0.9935379028320312,7.212738037109389,-16.14835357666017,5.7376861572265625,4.665000915527337,6.0,6.0,11-13,1.1215238571166999
10-15,-1.3056068420410156,-2.799583435058601,8.523582458496094,2.077167510986328,-5.958213806152344,8.741966247558594,-3.5838546752929688,-1.08819580078125,7.022186279296889,-20.23338317871095,4.199256896972656,3.829998016357422,6.0,6.0,11-14,-0.047890027364095644
10-16,-1.156524658203125,-3.281341552734375,10.339935302734375,0.7092628479003835,-5.939689636230469,5.855926513671875,-3.9216079711914062,-2.2426071166992188,6.907859802246108,-22.7649688720703,4.298240661621094,4.490001678466797,6.0,6.0,11-15,-0.5587927500406883
10-17,-2.4801979064941477,-4.217571258544922,10.230133056640625,-0.8658561706542969,-5.523048400878906,5.902458190917969,-2.9271316528320312,-1.040863037109375,4.783119201660156,-21.163536071777344,5.666297912597656,4.30000305175782,5.0,7.0,11-16,-0.6113494237263998
10-18,-2.6428298950195384,-4.04487228393554,7.47589111328125,-0.6401786804199219,-6.634124755859375,2.876739501953125,-2.4017333984375,1.36260986328125,4.478218078613281,-19.638854980468736,7.9269866943359375,6.479999542236335,6.0,6.0,11-17,-0.4501791000366193
10-19,-1.7257423400878906,-3.831256866455078,5.865394592285156,0.13357162475585938,-6.782279968261719,5.027351379394517,-0.0187530517578125,0.15142059326171875,5.3357315063476705,-18.794967651367173,4.5504913330078125,9.159999847412116,7.0,5.0,11-18,-0.07741991678873521
10-20,-2.001323699951172,-4.522079467773445,6.107883453369141,1.86529541015625,-5.990631103515625,3.342254638671875,-1.7731552124023438,0.29334259033203125,4.306694030761719,-14.05789184570311,5.646888732910156,9.069999694824212,7.0,5.0,11-19,0.19060643513997397
10-21,-1.8974075317382812,-3.9221572875976562,4.607219696044922,2.100185394287095,-7.314659118652344,1.526817321777358,1.2852935791015625,1.2679977416992188,4.2495269775390625,-10.596160888671875,3.492919921875,10.229999542236321,8.0,4.0,11-20,0.4191312789916986
10-22,-1.2242774963378906,-3.244976043701172,2.717662811279297,2.9936790466308594,-7.990562438964844,5.827980041503906,-0.6098251342773438,-1.211212158203125,4.449607849121094,-10.107093811035156,0.8053131103515767,8.419998168945312,6.0,6.0,11-21,0.06885782877604285
10-23,-0.18973922729492188,-2.43145751953125,3.092823028564453,3.891777038574226,-5.333244323730469,4.58978271484375,-0.26270294189453125,-0.44474029541015625,4.259063720703125,-5.187812805175781,0.11642456054688921,7.840000152587891,6.0,6.0,11-22,0.828347841898602
10-24,0.027122497558600855,-2.045154571533203,2.2555770874023438,3.0857887268066406,-6.717460632324219,5.8000640869140625,-0.6942291259765625,1.9398193359375,4.725921630859361,-3.6247406005859375,0.08732604980467329,10.419998168945312,8.0,4.0,11-23,1.271669387817381
10-25,-0.176177978515625,-2.2542190551757812,3.8843536376953125,2.2936248779296875,-7.648033142089844,10.250144958496094,-0.7130050659179688,2.8387451171875,5.249977111816406,-4.5644989013671875,-0.40750885009765625,10.419998168945312,6.0,6.0,11-24,1.5977834065755208
10-26,0.596343994140625,-1.4770545959472656,3.4588470458984375,1.5244712829589915,-6.069343566894531,12.39141845703125,-0.7692947387695312,2.961761474609375,4.516319274902344,-4.027488708496094,2.2024688720703267,10.419998168945312,8.0,4.0,11-25,2.1440372467041033
10-27,0.636993408203125,-3.2086219787597656,0.9790916442871094,0.7599334716796946,-5.680442810058594,10.361869812011719,-0.1219635009765625,3.340240478515625,3.039459228515625,3.797348022460909,1.882286071777358,10.7699966430664,9.0,3.0,11-26,2.213015874226887
10-28,1.933563232421875,-2.8359527587890625,-0.09149932861328125,1.1514205932617259,-6.124885559082031,7.503761291503906,0.328369140625,4.2297210693359375,1.9627838134765625,-1.2849731445312642,2.3965225219726705,12.840000152587898,8.0,4.0,11-27,1.8340692520141613
10-29,1.2242774963378906,-3.1904487609863352,0.9973793029785227,0.07369613647460938,-7.3563385009765625,3.3608551025390625,-0.3565216064453125,6.226341247558594,2.0294876098632812,0.47945404052732954,1.6591339111328125,11.379997253417969,9.0,3.0,11-28,1.3772761027018217
10-30,3.1126747131347656,-2.8495674133300852,0.6588172912597656,-0.6493988037109375,-5.152687072753906,4.208045959472656,-0.6660995483398438,5.2611770629882955,0.2763214111328267,-3.413780212402358,2.221893310546875,11.10999679565429,7.0,5.0,11-29,1.176449457804362
10-31,3.496673583984375,-3.2495155334472727,2.8183059692382812,-0.06448745727539062,-4.259185791015625,1.5733566284179688,-2.3829574584960938,2.8860626220703125,-0.02859497070311079,-1.5055160522460795,2.5226821899414062,10.199996948242188,6.0,6.0,11-30,1.00056838989258
11-01,2.376300811767578,-3.113170623779304,5.650371551513672,-0.24410247802734375,-4.5276947021484375,0.6982650756835938,-3.7996292114257812,1.2111968994140625,-1.705528259277358,-2.9918670654296733,0.737396240234375,10.199996948242188,6.0,6.0,12-01,0.3742945988972976
11-02,2.0419960021972656,-3.994853973388672,3.5228919982910156,0.5296401977539062,-7.8841094970703125,-6.14447021484375,-2.4767837524414062,10.957580566406236,-2.3343887329101562,1.3616790771484517,-1.3001480102539062,10.199996948242188,6.0,6.0,12-02,0.37325255076090497
11-03,2.389842987060547,1.35888671875,1.6973800659179759,0.382251739501946,-8.546142578125,-5.660377502441406,-4.12799072265625,9.878845214843736,-3.8112335205078125,-0.843841552734375,-2.7070083618164062,10.329998016357422,6.0,6.0,12-03,0.028384208679198036
11-04,0.8086471557617188,1.5179710388183594,0.9424705505371094,0.3730506896972585,-8.546142578125,0.018585205078125,-5.2631988525390625,10.143791198730455,-4.421020507812486,-2.915138244628892,-2.813751220703111,9.30999755859375,7.0,5.0,12-04,-0.07039483388264796
11-05,-0.42467498779296875,1.3725242614746094,0.6222343444824219,0.19804000854491477,-6.597084045410156,-4.003257751464844,-5.2631988525390625,10.711540222167969,-3.858863830566392,-2.915138244628892,-5.074440002441406,9.75,5.0,7.0,12-05,-0.4568599065144839
11-06,-1.4727745056152344,1.99969482421875,0.635955810546875,-2.210723876953125,-4.4026947021484375,-6.675193786621108,-4.1373748779296875,9.755821228027358,-5.631088256835923,0.7479553222656108,0.6112823486327983,10.7699966430664,6.0,6.0,12-06,-0.0007619857788103701
11-07,-2.5027999877929688,1.945159912109375,0.4300727844238281,-0.5895233154296875,-2.060150146484375,-7.215171813964844,-4.1092376708984375,10.4371337890625,-4.945068359375,-4.8713531494140625,-2.609977722167983,5.039997100830078,4.0,8.0,12-07,-0.9209098815917981
11-08,-2.407917022705078,2.2360305786132812,1.3634071350097656,1.358673095703125,-1.7731170654296875,-5.1203994750976705,-4.578315734863281,10.039703369140625,-5.21185302734375,-0.7479629516601705,-2.571159362792983,5.039997100830078,5.0,7.0,12-08,-0.1977427800496455
11-09,-2.3175582885742188,0.327239990234375,2.1960830688476562,1.9343948364257884,-2.8101348876953125,-7.2151260375976705,-8.612525939941406,9.557136535644531,-5.6406097412109375,-1.380859375,-3.1339187622070312,5.039997100830078,5.0,7.0,12-09,-1.0046567916870124
11-10,-2.6789779663085938,-0.7635307312011719,1.3679847717285156,1.6580352783203125,-5.282310485839844,-9.598457336425795,-8.884559631347656,10.314163208007812,-5.4500579833984375,0.8438415527343892,0.135833740234375,3.1599998474121165,6.0,6.0,12-10,-1.2648363113403314
11-11,-2.0600547790527344,-0.8680534362792969,-0.4483680725097656,1.1928634643554688,-6.161933898925781,-8.937461853027358,-4.634620666503906,11.468574523925781,-4.516319274902344,2.2630615234375,0.6694869995117188,3.4399986267089844,5.0,7.0,12-11,-0.7160689036051444
11-12,-1.432098388671875,0.06817626953125,-1.436614990234375,1.3678779602050781,-3.6064300537109375,-10.0267333984375,-3.1053619384765625,11.591567993164062,-3.8779373168945455,0.44110107421875,1.5038986206054688,4.859996795654297,6.0,6.0,12-12,-0.3043797810872408
11-13,-1.2694664001464844,-0.09088897705078836,-0.009151458740234375,1.5889701843261719,-6.110984802246094,-8.434738159179688,-3.6307601928710938,13.029869079589844,-3.09661865234375,3.4041900634765625,1.9987258911132812,2.6800003051757812,5.0,7.0,12-13,0.00492890675862571
11-14,-1.743816375732429,-0.7635040283203196,-1.2444534301757812,3.3989639282226562,-6.208213806152344,-10.58535003662108,-6.201377868652344,12.443183898925781,-2.086669921875,5.619308471679702,2.2509994506835938,0.0,4.0,8.0,12-14,-0.4267441431681303
11-15,-2.0239105224609446,-0.7862434387207102,-1.7660446166992188,2.1093864440917898,-6.9998626708984375,-8.835075378417969,-9.288009643554688,12.71762847900392,-1.353019714355483,2.243896484375,1.15460205078125,0.0,4.0,8.0,12-15,-1.0688877105712908
11-16,-0.06325149536133523,0.27268218994140625,-3.4405364990234375,1.8744964599609446,-4.703636169433594,-9.291259765625,-7.43975830078125,8.50677490234375,-1.4196929931640625,-1.2178344726562358,5.287879943847656,0.0,4.0,8.0,12-16,-0.9695113499959298
11-17,0.8222084045410156,-0.022735595703125,-1.7614402770996094,-0.046047210693359375,-4.398078918457031,-10.250160217285156,-5.328865051269531,11.232009887695312,-1.6197738647460938,-2.761711120605483,4.1041717529296875,0.0,3.0,9.0,12-17,-0.8358685175577811
11-18,2.064556121826172,-0.9044342041015625,-2.1366004943847656,0.17502212524414062,-4.064727783203125,-11.358016967773452,-8.77197265625,10.465538024902344,-1.7150573730468892,-5.3987579345703125,6.452201843261719,0.0,4.0,8.0,12-18,-1.266020774841311
11-19,2.8867835998535085,-1.2907371520996094,-0.7183151245117188,1.086944580078118,-3.81475830078125,-6.693809509277344,-6.426536560058594,7.8065643310546875,-2.7536087036132812,-9.109832763671875,8.15985107421875,0.0,4.0,7.0,12-19,-0.9056212107340507
11-20,3.0900840759277344,-0.9044075012207031,0.7640495300292969,3.0028915405273438,-2.277740478515625,-7.727203369140625,-6.4077606201171875,7.882270812988281,-1.457801818847642,-8.007034301757812,8.276275634765625,0.0,5.0,6.0,12-20,-0.3138647079467762
11-21,1.9651985168457031,-0.37722015380859375,-0.2013092041015625,1.9850387573242116,-3.3842086791992188,-9.868476867675781,-8.696929931640625,7.390220642089844,-0.21915435791015625,-12.485244750976548,7.0537567138671875,0.0,4.0,7.0,12-21,-1.403194109598795
11-22,2.1549263000488352,-0.47266387939453125,1.3679771423339844,1.5935516357421804,-3.7731094360351562,-6.619316101074219,-10.451332092285156,7.4659347534179545,1.8579788208007812,-7.402923583984375,7.373939514160156,0.0,6.0,5.0,12-22,-0.5754197438557954
11-23,2.9410171508789062,1.3407173156738281,3.0059013366699148,1.5935516357421804,-1.787017822265625,-4.226707458496094,-11.558380126953125,5.2516937255859375,1.7912750244140625,-7.402923583984375,7.5000762939453125,0.0,7.0,4.0,12-23,-0.12923304239908973
11-24,4.16529846191407,0.8407859802246094,3.344463348388672,3.5555610656738352,-0.31017303466796875,-4.189453125,-14.382316589355469,6.216857910156236,1.7912750244140625,-12.274269104003906,8.868141174316406,0.0,7.0,4.0,12-24,-0.19781907399495444
11-25,3.641246795654304,1.2407341003417969,3.344463348388672,3.5555610656738352,-0.31017303466796875,-1.5640487670898438,-12.871849060058594,6.216857910156236,3.544441223144517,-12.274269104003906,8.868141174316406,0.0,7.0,4.0,12-25,0.2825921376546212
11-26,4.761619567871101,1.2407341003417969,1.1849746704101562,3.187114715576172,-0.7314529418945312,2.1785049438476562,-11.455177307128906,8.591972351074219,6.221832275390611,-14.652412414550781,11.128814697265625,0.0,8.0,3.0,12-26,0.9713770548502598
11-27,4.761619567871101,1.3543510437011719,1.25360107421875,3.541748046875,0.8472137451171875,9.021240234375,-11.455177307128906,9.140792846679702,6.945960998535156,-18.30593872070311,11.119117736816406,0.0,9.0,2.0,12-27,1.5187107721964548
11-28,6.0536651611328125,1.0135002136230398,1.2261466979980469,2.394947052001953,1.509246826171875,9.021240234375,-9.13787841796875,8.099922180175781,9.11837768554686,-14.17294311523439,12.525978088378906,0.0,9.0,2.0,12-28,2.304350217183428
11-29,6.365379333496094,0.40901947021484375,0.35684967041015625,1.8008155822753906,1.509246826171875,6.340003967285156,-9.391197204589858,9.557136535644531,7.489067077636719,-15.803131103515625,12.525978088378906,0.0,9.0,2.0,12-29,1.7632640202840157
11-30,6.071727752685547,0.468109130859375,-3.3398895263671804,1.8100166320800781,1.3981170654296875,6.125885009765625,-12.14007568359375,-0.8232345581054545,5.75494384765625,-13.731834411621108,12.477493286132798,0.0,7.0,4.0,12-30,0.33927154541015564
12-01,4.960399627685547,-0.19997406005859375,-2.7863006591796804,2.0218772888183594,1.9259033203125,6.6007080078125,-12.158836364746094,-2.9333724975585938,5.192787170410156,-18.526481628417955,11.982658386230455,0.0,6.0,5.0,12-31,-0.3267192840576166
12-02,5.502529144287109,-1.2134513854980469,-2.8000221252441335,2.0218772888183594,1.9259033203125,3.7519073486328125,-9.166030883789062,-1.977653503417983,6.9650115966796875,-18.526481628417955,11.982658386230455,0.0,6.0,5.0,01-01,-0.12781270345052143
12-03,5.606437683105469,-1.1589164733886719,-2.5941390991210866,0.6309661865234446,0.86572265625,0.8379058837890625,-9.287986755371094,-2.658966064453125,7.050758361816406,-19.744323730468736,13.205177307128906,0.0,6.0,5.0,01-02,-0.603947003682452
12-04,5.511554718017578,-1.195281982421875,-1.8575363159179688,1.6626434326171875,0.32869720458984375,-0.27930450439453125,-8.81890869140625,-3.0090866088867188,6.536247253417969,-16.167526245117188,11.36167144775392,0.0,5.0,6.0,01-03,-0.49390252431233606
12-05,5.213382720947266,-1.3498039245605469,-1.6470718383789062,2.2844085693359375,1.1388702392578125,1.8154220581054688,-5.23504638671875,-3.1794204711914062,8.003578186035156,-11.046829223632827,12.77825927734375,0.0,6.0,5.0,01-04,0.7313124338785796
12-06,4.531219482421875,-0.9226036071777344,-1.573871612548821,2.4502105712890625,3.6110458374023438,3.6122283935546875,-5.0661544799804545,-0.40688323974610796,11.50039672851564,-11.046829223632827,9.508506774902344,0.0,6.0,5.0,01-05,1.3497721354166672
12-07,5.922660827636719,-0.2590789794921875,-0.6588249206542969,2.9153823852539062,3.1851272583007812,3.7705078125,-6.1075363159179545,0.08515167236328125,10.680984497070327,-12.466049194335938,9.343551635742188,0.0,7.0,4.0,01-06,1.3676563898722354
12-08,6.2795562744140625,0.05908584594727273,0.4392242431640625,2.9706573486328125,2.9721755981445312,-1.405792236328125,-6.548507690429673,-1.2395858764648438,10.042602539062528,-11.2578125,10.168266296386719,0.0,7.0,4.0,01-07,1.0399891535441121
12-09,6.2298736572265625,0.04545211791992898,-0.9882392883300781,3.7167587280273438,2.72216796875,-4.5990753173828125,-10.376285552978516,-2.677886962890625,9.28033447265625,-7.470054626464844,13.515655517578125,0.0,6.0,5.0,01-08,0.7832250595092779
12-10,5.787136077880859,0.7180671691894602,0.5032768249511719,3.804271697998047,3.4906768798828125,-2.895355224609375,-10.188648223876953,-1.5613174438476562,10.442764282226562,-6.904273986816406,14.020195007324219,0.0,7.0,4.0,01-09,1.4347327550252285
12-11,6.067230224609375,0.9634933471679688,0.6313819885253906,2.4916496276855398,4.870269775390625,-2.9605331420898438,-7.102016448974609,-0.5866546630859375,10.957275390625,-6.280967712402344,12.293121337890625,0.0,7.0,4.0,01-10,1.7786874771118157
12-12,3.6864166259765625,1.6179466247558594,0.512420654296875,1.791606903076179,3.8980712890625,-2.5043487548828125,-10.69527816772461,-2.6589813232421875,10.890602111816406,-4.545303344726577,10.313812255859375,0.0,7.0,4.0,01-11,1.0255804061889642
12-13,3.9123001098632812,1.9315452575683594,3.2117881774902344,2.8186569213867188,3.5925140380859375,1.433685302734375,-10.638999938964844,-4.362228393554702,11.500411987304673,-3.4904937744140483,11.497520446777344,0.0,8.0,3.0,01-12,1.7838916778564442
12-14,3.501190185546875,2.308757781982422,4.575176239013679,2.5975875854492188,3.3610305786132812,1.9736709594726562,-12.374637603759766,0.6718521118164205,11.786239624023438,-0.8534469604492188,10.032424926757812,0.0,9.0,2.0,01-13,2.2983204523722347
12-15,1.6353988647460938,3.8758506774902415,3.9941368103027415,2.362701416015632,3.273040771484375,-0.772735595703125,-13.491050720214844,0.9462661743164205,12.82479095458983,2.790496826171875,8.111320495605469,0.0,9.0,2.0,01-14,2.1291847229003924
12-16,2.077587127685547,3.6985855102539134,2.511772155761726,2.146221160888672,1.7221527099609375,-0.381744384765625,-10.749881744384759,0.8705596923828267,11.52898406982419,0.6329116821289205,7.383628845214844,0.0,9.0,2.0,01-15,1.7867314020792662
12-17,2.429950714111328,3.171398162841804,3.4771308898925852,1.699493408203132,4.143463134765625,-3.003692626953125,-8.404422760009759,1.3626098632812642,14.51125335693358,2.205558776855483,7.296318054199219,0.0,9.0,2.0,01-16,2.407421747843428
12-18,2.240222930908196,3.2668418884277415,3.8758010864257812,0.6221504211425781,3.9583587646484375,-4.223304748535156,-6.650020599365227,1.9483184814453125,15.044815063476548,4.3918609619140625,5.967071533203125,0.0,9.0,2.0,01-17,2.5368429819742833
12-19,1.454132080078125,2.980060577392578,3.4908790588378906,1.4237022399902344,2.4167098999023438,-6.615913391113281,-5.5429725646972585,1.96728515625,11.552696228027344,5.667915344238281,5.326698303222656,0.0,9.0,2.0,01-18,2.0100994110107426
12-20,1.5627059936523438,4.218227386474609,2.704437255859375,0.539417266845696,0.9398651123046875,-6.653167724609375,-4.517616271972649,2.355377197265639,9.675834655761719,8.774833679199219,3.9586334228515625,0.0,9.0,2.0,01-19,1.963212331136069
12-21,1.05145263671875,5.178844451904297,3.3644485473632812,0.9078636169433594,1.356536865234375,-7.781883239746094,-6.671810150146484,2.8567733764648438,6.998443603515625,11.152976989746094,3.2600555419921875,0.0,9.0,2.0,01-20,1.8061418533325195
12-22,-0.12281417846680398,4.2733917236328125,3.2958221435546875,1.2763252258300781,1.2360382080078125,-4.2558135986328125,-8.1309814453125,2.307952880859361,6.2743148803710795,15.372261047363281,3.8129959106445312,0.0,8.0,3.0,01-21,2.1116243998209607
12-23,-1.5420684814453125,4.614242553710945,3.3232765197753906,1.5807113647460938,0.707672119140625,-6.426826477050781,-12.467239379882812,3.3488235473632812,4.760337829589858,15.737472534179688,2.1483383178710938,0.0,8.0,3.0,01-22,1.3153950373331724
12-24,-1.8537826538085938,5.218723297119141,2.8518218994140625,1.9312248229980469,0.5365066528320312,-3.1009292602539062,-12.213920593261705,2.667175292968736,4.884391784667969,17.65961456298828,0.49480438232421875,0.0,8.0,3.0,01-23,1.5896358489990234
12-26,-1.442474365234375,5.346172332763672,3.0901145935058594,1.5522804260253906,1.8016815185546875,-2.886810302734375,-6.163211822509766,1.0275421142578125,8.195419311523438,7.47576904296875,-0.27478790283203125,0.0,7.0,4.0,01-25,1.4768079121907551
12-27,-2.591716766357429,5.350719451904297,2.6089630126953125,1.5154304504394531,1.273895263671875,-3.5295562744140625,-4.027835845947266,1.2360610961914205,9.797042846679673,7.667564392089844,0.2200469970703125,0.0,8.0,3.0,01-26,1.626717885335286
12-28,-2.1754722595214844,4.567649841308594,4.820381164550774,2.906341552734368,0.9300003051757812,-3.1284255981445312,-8.195106506347656,2.2867431640625,9.711296081542955,8.885406494140625,-0.27884674072265625,0.0,7.0,4.0,01-27,1.6941639582316057
12-29,-2.7052955627441406,5.114765167236328,4.083778381347656,2.0129852294921875,-0.7570343017578125,-1.6918716430664062,-4.581356048583984,2.6368637084960938,10.225807189941392,9.826591491699219,-2.20635986328125,0.0,6.0,5.0,01-28,1.8299061457316068
12-30,-2.8368148803710866,4.860260009765625,3.8733139038085938,2.142120361328132,-2.3467254638671875,0.4506378173828125,-4.093379974365234,2.8071975708007812,7.9281158447265625,11.614189147949219,-5.331245422363281,0.0,7.0,4.0,01-29,1.5889724095662447
12-31,-2.154651641845696,5.014781951904297,1.5842514038085866,1.6486473083496094,-0.2006072998046875,-3.5337066650390625,-4.26227188110353,0.9627380371094034,8.223915100097642,10.653121948242188,-6.261360168457031,0.0,6.0,5.0,01-30,0.9729048411051432
