,2009,2010,2011,2012,2013,2014,2015,2016,2017,2018,2019,2020,ups,downs,end_day_sum,avg
01-02,-0.21500015258789062,-4.43499755859375,5.090000152587891,1.9300003051757884,1.3199996948242188,-0.18500518798828125,-4.139999389648423,-1.0500030517578125,-2.340003967285142,5.869995117187514,8.83999633789064,-9.0,5.0,7.0,02-01,0.14041519165039595
01-03,-1.0499992370605469,-4.979999542236321,7.020000457763672,2.345001220703125,1.0699996948242188,0.0449981689453125,2.2300033569335938,1.339996337890625,-1.9599990844726562,4.069999694824219,9.479995727539077,-9.849998474121094,8.0,4.0,02-02,0.813333193461102
01-04,-1.4500007629394602,-2.414997100830078,7.6199989318847585,2.1550025939941406,0.25999832153321023,1.0550003051757812,2.3499984741210938,-0.5900039672851705,-2.6200027465820455,4.050003051757798,5.529998779296889,-12.620002746582031,7.0,5.0,02-03,0.27708276112874053
01-05,-1.9650001525878835,-1.0600013732910156,7.454998016357429,1.875,-0.5049972534179759,0.6100006103515625,5.839996337890625,-2.9699935913085795,-3.1800003051757812,2.8300018310546875,4.689994812011719,-15.529998779296875,6.0,6.0,02-04,-0.15916665395100735
01-06,-1.6150016784667969,-1.1400032043457031,7.209999084472663,1.7350006103515625,1.3050041198730398,-1.1399993896484375,12.099998474121108,2.8700027465820312,-4.209999084472656,3.80999755859375,4.339996337890611,-17.06999969482422,7.0,5.0,02-05,0.6829163233439127
01-07,-0.0449981689453125,-0.6750030517578054,6.4899978637695455,2.1550025939941406,0.6500015258788991,0.8649978637695312,11.510002136230455,4.730003356933594,-3.30999755859375,0.12000274658203125,4.869995117187472,-15.669998168945312,8.0,4.0,02-06,0.9741671880086239
01-08,-0.5149993896484375,-0.9250030517578054,6.050003051757805,3.4599990844726562,2.3400039672851705,0.35500335693359375,8.310005187988267,4.670005798339858,-2.0799942016601705,-3.150001525878892,2.8300018310546875,-10.289993286132812,7.0,5.0,02-07,0.9212525685628267
01-09,1.0200004577636719,-2.6199989318847656,5.915000915527344,3.944999694824226,2.520000457763679,0.24500274658203125,7.7300033569335795,4.7700042724609375,-3.3199996948242045,-3.44000244140625,-3.0100021362304545,-11.199996948242188,7.0,5.0,02-08,0.21291764577230055
01-10,2.759998321533196,-2.6399993896484375,5.319999694824219,2.805000305175774,1.7849998474121094,0.34000396728515625,11.680000305175767,3.3899993896484375,-6.2099990844726705,-6.230003356933608,-2.940002441406264,-9.219993591308594,7.0,5.0,02-09,0.07000033060709043
01-11,2.4200019836425852,-3.279998779296875,4.01499938964843,4.125,2.020000457763679,4.894996643066406,11.279998779296875,4.760002136230469,-6.779998779296875,-9.360000610351562,-0.6900024414062642,-9.649993896484375,7.0,5.0,02-10,0.31291707356770776
01-12,3.5849990844726634,-0.4399986267089844,2.729999542236321,3.770000457763679,2.5550003051757812,6.519996643066406,11.439994812011733,2.6699981689452983,-7.230003356933608,-9.919998168945327,-5.520004272460966,-11.169998168945312,7.0,5.0,02-11,-0.08416779836019295
01-13,-0.34000015258789773,-4.7600021362304545,3.0449981689453125,4.189998626708984,4.30999755859375,5.3699951171875,10.200004577636733,1.6200027465820312,-7.25,-12.349998474121094,-6.010002136230483,-11.819999694824219,6.0,6.0,02-12,-1.1495838165283196
01-14,0.4850006103515625,-4.880001068115227,1.68499755859375,4.364997863769531,4.339996337890625,3.0649948120117188,5.4599990844726705,0.529998779296875,-5.6700057983398295,-13.319999694824219,-4.300003051757827,-11.540000915527344,7.0,5.0,02-13,-1.6483354568481428
01-15,0.17000198364258523,-4.31500244140625,0.6800003051757955,4.055000305175781,4.500003814697266,2.375,6.669998168945327,2.8199996948242116,-4.040000915527358,-10.25,-2.9599990844726705,-11.360000610351562,7.0,5.0,02-14,-0.9712498982747396
01-16,0.3150005340576172,-4.555000305175774,0.21000289916992188,4.829998016357415,4.11500167846679,2.5049972534179688,2.8899993896484375,4.810001373291016,-5.1300048828125,-10.919998168945312,-1.9199981689453125,-11.639999389648438,7.0,5.0,02-15,-1.2074999809265143
01-17,1.8150005340576172,-3.1450004577636648,1.0100021362304759,5.0149993896484375,3.785003662109375,3.0749969482421875,3.869995117187514,4.579998016357422,-4.25,-6.769996643066392,-2.3000030517577983,-9.930000305175781,7.0,5.0,02-16,-0.27041705449421727
01-18,1.68499946594239,-3.18499755859375,0.3350028991699219,4.73499679565429,3.4050025939941406,2.94000244140625,5.470001220703111,6.719997406005859,-4.650001525878906,-7.479995727539034,-4.300003051757798,-8.660003662109375,7.0,5.0,02-17,-0.24874989191690844
01-19,1.4950008392333949,-2.2649993896484375,0.7749977111816406,4.879997253417969,3.5500030517578125,3.1200027465820312,7.589996337890625,6.909999847412109,-4.440002441406236,-7.6100006103515625,-0.1100006103515625,-8.360000610351562,7.0,5.0,02-18,0.46124951044718515
01-20,-2.2449989318847656,-1.7350006103515625,0.8149986267089915,5.839996337890625,3.4150009155273438,3.8650054931640625,7.1599960327148295,10.579998016357422,-4.720001220703125,-10.059997558593736,0.09999847412109375,-9.120002746582031,7.0,5.0,02-19,0.32458273569742896
01-21,-4.350000381469723,-1.8649978637695312,0.6349983215332102,4.619998931884766,1.3450012207031108,5.345001220703125,4.7699966430664205,7.069999694824219,-2.7099990844726562,-9.129997253417983,3.3899993896484375,-9.510002136230469,7.0,5.0,02-20,-0.032500108083089486
01-22,-3.5500011444091726,-0.5950012207031179,0.6299972534179759,6.010002136230476,2.4499969482421875,3.5699996948242188,4.949996948242202,4.800003051757827,-3.2900009155273438,-9.180000305175781,2.8499984741210938,-5.80999755859375,7.0,5.0,02-21,0.23624944686890123
01-23,-4.975000381469723,-0.31500244140625,1.2449989318847656,4.375,1.3199996948242188,4.845001220703125,4.5199966430664205,7.869998931884766,-4.430000305175781,-9.879997253417969,2.2099990844726562,-4.5500030517578125,7.0,5.0,02-22,0.18624925613403467
01-24,-6.090000152587891,-0.16500091552734375,3.579998016357422,5.549999237060554,1.200000762939446,6.665000915527344,1.4700012207031108,8.119998931884766,-4.209999084472656,-12.66000366210936,1.540000915527358,-2.5699996948242188,7.0,5.0,02-23,0.20249970753987748
01-25,-6.444999694824219,-1.4300003051757812,4.224998474121087,4.425003051757805,1.0600013732910156,8.964996337890625,-1.25,10.619998931884766,-6.370002746582031,-11.639999389648438,-0.31999969482421875,-0.6500015258789062,5.0,7.0,02-24,0.09916623433430871
01-26,-8.510000228881836,-1.6149978637695312,6.055000305175781,5.4550018310546875,-0.07999801635742188,7.9499969482421875,-0.40000152587890625,1.9899978637695028,-6.8600006103515625,-11.950004577636719,-2.75,-2.4300003051757812,4.0,8.0,02-25,-1.0954171816507998
01-27,-6.665000915527351,0.14500045776367188,5.569999694824219,5.770000457763665,0.5699996948242188,9.14999389648439,-1.3899993896484375,3.4499969482421733,-5.370002746582031,-9.490005493164062,-2.5699996948242188,-6.729995727539048,6.0,6.0,02-26,-0.6300010681152344
01-28,-8.965000152587887,0.5849990844726634,5.930000305175781,5.595001220703118,-1.2150001525878906,8.389999389648438,4.930000305175781,0.8899993896484233,-3.629997253417983,-7.75,-3.3499984741210938,-10.060005187988281,6.0,6.0,02-27,-0.7208334604899109
01-29,-8.270000457763668,1.1300010681152344,1.8899993896484375,6.120002746582017,-1.720001220703132,10.895004272460938,4.1199951171875,-1.5000000000000142,-4.899993896484403,-7.0900039672851705,-4.9599990844726705,-11.939998626708984,5.0,7.0,02-28,-1.3520828882853264
01-30,-7.869998931884755,-1.1650009155273366,2.6800003051757812,5.155002593994141,0.2999992370605469,10.154998779296875,4.0,-0.5899963378906108,-3.2899932861328267,-8.229995727539077,-4.409996032714858,-12.619998931884766,5.0,7.0,02-29,-1.3237482706705739
01-31,-7.664999008178722,-0.75,2.9599990844726634,5.2350006103515625,0.9699974060058594,10.599998474121094,-2.3899993896484517,-1.5899963378906108,-4.5900039672851705,-13.580001831054688,-4.159996032714858,-9.710002899169922,4.0,8.0,03-01,-2.0558336575826037
02-01,-8.3499984741211,-0.450000762939446,0.27500152587891336,3.979999542236328,-0.8400039672851562,12.864997863769531,-2.7999954223632812,-4.3499984741210795,-0.9499969482422017,-15.099998474121094,-3.80999755859375,-11.370002746582031,3.0,9.0,03-02,-2.5749994913736973
02-02,-10.574998855590827,-1.0999984741210938,0.7250022888183594,3.6899986267089844,-0.7900009155273438,13.839996337890625,-3.4599990844726562,-2.140007019042997,0.34000396728514204,-11.410003662109375,-5.3799972534179545,-8.110004425048828,4.0,8.0,03-03,-2.0308340390523303
02-03,-9.924999237060547,-0.6899986267089844,0.819999694824233,2.3850021362304688,-2.145000457763672,13.774993896484375,-5.939994812011719,-3.19000244140625,-0.8899993896484375,-8.379997253417983,-2.959999084472642,-8.510002136230469,3.0,9.0,03-04,-2.1374998092651354
02-04,-8.740001678466793,1.4599990844726562,0.9550018310546946,3.4250030517578054,-2.75,11.489997863769531,-4.700004577636719,-1.44000244140625,-1.2299957275390767,-8.110000610351562,-2.5699996948241903,-11.19000244140625,4.0,8.0,03-05,-1.9500004450480128
02-05,-8.994998931884755,1.4799995422363281,2.75,1.920001983642571,-2.0600051879882955,11.500000000000014,-5.700004577636719,-0.05999755859375,-1.129997253417983,-7.75,-2.8499984741210938,-12.970001220703125,4.0,8.0,03-06,-1.988750139872234
02-06,-8.655002593994144,1.80999755859375,1.8950004577636648,1.5699996948242116,-2.0349998474121094,8.620002746582045,-5.300003051757827,0.8199996948242188,0.37000274658201704,-7.259994506835923,-4.2399978637695455,-11.790000915527344,6.0,6.0,03-07,-2.0162496566772488
02-07,-9.449998855590827,2.8999977111816335,1.4950027465820312,0.7950019836425852,-2.085002899169922,6.9950027465820455,-6.360000610351577,2.9800033569335938,2.339996337890639,-4.9099960327148295,-1.0499954223632812,-10.269996643066406,6.0,6.0,03-08,-1.3849987983703596
02-08,-9.334999084472663,2.895000457763679,0.7199974060058665,0.8600006103515625,-3.8400001525878906,8.430000305175781,-7.379997253417983,7.040000915527344,-3.30999755859375,-0.1699981689452983,-0.5599975585937642,-11.829998016357415,5.0,7.0,03-09,-1.3733323415120442
02-09,-10.159999847412116,1.7550010681152273,0.9250030517578054,0.345001220703125,-2.8899993896484304,7.8600006103515625,-8.229995727539077,4.970001220703139,-4.979995727539077,0.8000030517578267,-2.8600006103515625,-18.39999771118164,6.0,6.0,03-10,-2.572081565856935
02-10,-6.745000839233395,5.29999923706054,0.7800025939941264,0.654998779296875,-2.3300018310547017,7.4250030517578125,-9.069999694824233,6.470001220703125,-6.610000610351548,-2.5500030517578125,-7.769996643066406,-36.099998474121094,5.0,7.0,03-11,-4.212083021799725
02-11,-5.180000305175781,3.8899993896484304,1.25,0.5150032043457102,-2.339996337890625,5.435005187988267,-6.649993896484389,6.700004577636719,-4.650001525878892,-0.3399963378906392,-7.9499969482421875,-33.19000244140625,5.0,7.0,03-12,-3.5424979527791365
02-12,-5.049999237060554,3.9299964904785156,-1.0349998474121094,0.8000030517578196,-2.0100021362304688,5.0100021362304545,-8.249999999999986,4.560005187988281,-5.55999755859375,-2.4899978637695312,-8.64999389648436,-36.519996643066406,4.0,8.0,03-13,-4.605415026346841
02-13,-4.860000610351559,2.479999542236328,0.375,0.1750030517578196,-1.8600006103515625,4.830001831054673,-10.3699951171875,4.379997253417969,-5.400001525878892,-2.4199981689453267,-8.180000305175781,-36.81999969482422,5.0,7.0,03-14,-4.805832862854004
02-14,1.284999847412113,2.3800010681152344,0.8149986267089844,1.5499992370605469,-1.7249984741210938,4.084999084472642,-10.77999877929686,7.290000915527344,-6.640007019042969,-6.8700027465820455,-8.389999389648438,-36.05999755859375,6.0,6.0,03-15,-4.421667098999024
02-15,1.375,2.0349998474121094,0.944999694824233,-0.07999801635742188,0.3450012207031392,1.4950027465820312,-11.09999847412108,6.8899993896484375,-3.690002441406236,-7.800003051757798,-11.680000305175781,-42.029998779296875,6.0,6.0,03-16,-5.274583180745437
02-16,2.639999389648441,1.8300018310546875,0.75,-1.470001220703132,0.21500396728515625,3.0250015258789062,-8.58999633789061,5.720001220703125,-3.1100006103515483,-7.75,-10.019996643066406,-39.72999954223632,6.0,6.0,03-17,-4.707498868306476
02-17,3.429998397827152,1.4749984741211009,0.13499832153321023,0.16500091552734375,-0.48999786376953125,3.654998779296861,-9.689994812011705,4.220001220703125,-1.9700012207031108,-9.30999755859375,-10.860000610351562,-43.42999839782715,6.0,6.0,03-18,-5.222499529520668
02-18,2.694999694824215,0.7350006103515696,-2.200000762939446,-0.010002136230475855,-1.2350006103515767,4.620002746582031,-4.649993896484389,5.5800018310546875,-3.6399993896484375,-7.5100021362304545,-7.790000915527344,-43.63999938964844,4.0,8.0,03-19,-4.753749529520672
02-19,3.094999313354492,0.5849990844726634,0.18000030517578125,0.5649986267089844,-2.0649986267089844,4.334999084472656,-3.1399993896484233,5.3300018310546875,-3.0400009155273438,-9.489997863769531,-6.830001831054702,-47.51999855041504,6.0,6.0,03-20,-4.8329165776570635
02-20,3.4499988555908203,0.5849990844726562,-0.19499969482421875,0.8699989318847656,-0.575000762939446,3.75,-0.4199981689453125,4.290000915527344,-3.25,-6.629997253417969,-2.8899993896484375,-46.229997634887695,5.0,7.0,03-21,-3.937082926432291
02-21,6.130001068115234,-0.2050018310546875,1.5400009155273438,-0.470001220703125,1.0999984741211009,4.7649993896484375,-2.4000015258789062,3.4199981689453125,-4.94000244140625,-1.0299987792968892,0.5400009155273438,-44.44999885559082,6.0,6.0,03-22,-3.0000004768371586
02-22,5.485000610351566,-0.30500030517578125,2.520000457763672,-0.9250030517578054,0.45000076293946023,4.965003967285142,-1.25,3.75,-2.8799972534179688,-2.30999755859375,0.3600006103515625,-36.690002441406264,6.0,6.0,03-23,-2.235832850138347
02-23,7.55000114440918,2.1149978637695312,-0.15999984741210938,-1.345001220703118,1.06500244140625,5.620002746582017,-2.9300003051757812,7.880004882812514,-2.9199981689453125,-4.0500030517578125,2.1200027465820455,-35.020004272460945,6.0,6.0,03-24,-1.672916253407795
02-24,5.375,-0.05500030517578125,1.9500007629394531,-1.870002746582017,1.6050033569335938,4.600006103515597,-2.7700042724609375,6.380004882812514,-1.650001525878892,-5.199996948242173,-1.0699996948242188,-35.370002746582045,5.0,7.0,03-25,-2.3395827611287423
02-25,5.704999923706048,-0.3250007629394531,1.1599998474121094,-2.635002136230476,1.0750007629394531,3.785003662109375,-3.0699996948242188,7.400001525878906,-3.100006103515611,-3.6299972534179545,-1.970001220703125,-27.189998626708984,5.0,7.0,03-26,-1.899583339691161
02-26,6.0149993896484375,-0.7400016784667898,1.620002746582017,-1.9449996948242259,2.6999969482421875,2.839996337890639,-0.1699981689452983,8.400001525878906,-3.0500030517578125,-1.9199981689452983,0.8599929809570312,-23.510002136230476,6.0,6.0,03-27,-0.7416677474975568
02-27,6.699998855590817,-2.615001678466797,2.6150016784667898,-1.7299995422363352,0.9899978637695312,2.3249969482422017,0.23999786376953125,9.599998474121094,-4.5300064086914205,-0.6100006103515483,-0.45000457763671875,-20.310001373291023,6.0,6.0,03-28,-0.6479185422261565
02-28,8.200000762939453,-2.5300025939941406,3.06500244140625,-2.6650009155273438,1.5949974060058594,1.349998474121108,2.3000030517578125,9.560005187988281,-1.6999969482421733,4.910003662109375,0.589996337890625,-23.569999694824226,8.0,4.0,03-29,0.09208393096924006
02-29,0.0,0.0,0.0,-2.115001678466804,0.0,0.0,0.0,9.790000915527344,0.0,0.0,0.0,-23.33000183105468,1.0,2.0,03-30,-1.3045835494995117
03-01,6.860000610351566,-0.845001220703125,5.869998931884766,-3.6400032043457102,2.9499969482421875,2.0850067138671875,1.5000000000000142,10.430000305175795,-3.0500030517577983,5.150001525878906,-1.8300018310546875,-26.860000610351562,7.0,5.0,03-31,-0.11500040690103841
03-02,5.534999847412106,-0.7450027465820312,5.25,-2.135002136230476,3.204998016357436,3.9350051879882812,3.0800018310546875,6.660003662109375,-1.470001220703125,4.880004882812486,-1.5699996948242472,-27.880001068115234,7.0,5.0,04-01,-0.10458278656006186
03-03,3.3599987030029297,-1.2400016784667969,4.05000305175782,-2.0900001525878906,3.1400032043457173,3.44000244140625,1.3199996948241903,4.410003662109375,-1.5699996948242188,2.0100021362304545,-1.629997253417983,-26.51000213623047,7.0,5.0,04-02,-0.9424990018208851
03-04,3.015001296997063,-0.9300003051757812,4.905002593994155,-1.0499992370605469,3.359996795654297,3.2000045776367188,1.2000045776367188,2.25,-2.9000015258789062,3.459999084472642,0.13000488281247158,-29.4800033569336,8.0,4.0,04-03,-1.069999217987064
03-05,2.6450004577636683,-2.0200004577636648,4.9650001525878835,0.07500076293945312,2.1750030517577983,3.864997863769517,2.100006103515611,-2.8899993896484375,-2.5199966430664205,1.120002746582017,0.5500030517577983,-27.270000457763686,8.0,4.0,04-04,-1.4337485631307052
03-06,2.5300006866455043,-2.2150001525878906,4.904998779296875,0.4199981689453196,0.25,3.5800018310546875,3.120002746582017,-3.4300003051757812,-3.1100006103515625,4.059997558593736,1.9899978637695455,-20.70000076293946,8.0,4.0,04-05,-0.7166670163472508
03-07,4.9550018310546875,-0.895000457763679,4.895000457763679,0.20999908447266336,-0.7299995422363352,4.150001525878906,3.5,-5.160003662109375,-1.279998779296875,3.299995422363267,2.5800018310546875,0.7000007629394531,8.0,4.0,04-06,1.3520832061767567
03-08,6.3600006103515625,0.1999969482421804,5.3600006103515625,-0.4250030517578054,-1.289997100830064,6.125,4.989997863769531,-0.01999664306640625,2.75,3.5800018310546875,7.489997863769531,2.2900009155273438,9.0,3.0,04-07,3.1174999872843436
03-09,5.140001296997074,-0.3350028991699219,4.504997253417983,-0.7100028991699148,-2.9000015258789062,5.2449951171875,7.1500015258789205,-1.0400009155273438,1.8800048828124858,1.3699951171875142,7.409996032714844,1.8300018310546875,8.0,4.0,04-08,2.4620820681254103
03-10,2.530000686645508,2.4500007629394602,5.989997863769538,-1.6050033569335938,-1.9550018310546875,3.404998779296875,8.079994201660156,-1.0499954223632812,2.7900009155273438,3.7299957275390483,12.369995117187486,-0.26999664306640625,8.0,4.0,04-09,3.0387489000956207
03-11,1.985000610351559,2.9799995422363352,4.579998016357429,-2.2750015258789062,-0.8850021362304688,5.909996032714858,7.489997863769531,-3.9599990844726562,3.1000061035155966,1.279998779296875,13.220001220703125,2.470001220703125,9.0,3.0,04-10,2.9912497202555337
03-12,-0.4200000762939524,3.079998016357429,4.06500244140625,-3.1450004577636648,-0.9150009155273438,6.384994506835966,8.330001831054688,-3.3300018310546875,2.410003662109361,2.7299957275390483,11.589996337890625,8.830001831054688,8.0,4.0,04-11,3.300832589467367
03-13,-0.5100002288818395,5.034999847412109,4.06500244140625,-6.424999237060547,-0.6300048828125,7.494995117187514,8.650001525878906,-1.30999755859375,3.620002746582017,7.610000610351577,10.160003662109375,6.5300025939941335,8.0,4.0,04-12,3.6908338864644374
03-14,-1.235000610351566,3.9399986267089844,3.0699996948242188,-5.865001678466797,-1.6050033569335938,5.964996337890639,7.80999755859375,-0.7699966430664062,3.2900009155273295,9.510002136230469,9.040000915527344,14.190000534057614,8.0,4.0,04-13,3.9449995358784995
03-15,-0.08500099182128906,5.145000457763672,1.8950004577636648,-6.3400001525878835,-0.9000015258789062,4.4950027465820455,8.689994812011719,3.9000015258789062,0.8199996948241903,10.75,9.8800048828125,13.719999313354489,9.0,3.0,04-14,4.330833435058593
03-16,0.22500038146971946,5.44999694824218,3.0600013732910085,-6.915000915527344,-0.33499908447264204,5.0149993896484375,6.7900009155273295,2.7399978637695312,2.049995422363267,8.950004577636705,6.810005187988281,12.190000534057614,10.0,2.0,04-15,3.835833549499507
03-17,-1.289999008178711,6.74000167846679,0.9650001525878906,-6.084999084472656,-2.3999977111816335,6.345001220703139,9.659996032714844,1.279998779296875,1.4499969482421733,11.510002136230469,13.389999389648452,11.340000152587887,9.0,3.0,04-16,4.40875005722046
03-18,-1.3849983215332031,8.005001068115234,1.3400001525878906,-7.029998779296875,-6.369995117187479,6.529998779296875,7.299995422363281,2.1500015258789062,1.269996643066392,12.549995422363281,10.200004577636733,10.129999160766598,9.0,3.0,04-17,3.724166711171469
03-19,-2.0,8.795001983642578,-0.3400001525878906,-7.310001373291016,-4.05999755859375,7.345001220703125,8.430000305175781,1.8499984741210938,-0.5800018310546875,12.549995422363281,9.47000122070314,6.6699981689453125,7.0,5.0,04-18,3.401666323343914
03-20,-1.3549995422363317,9.5,-0.18000030517578125,-4.954998016357429,-5.709999084472663,5.944999694824219,7.279998779296875,-0.25,-0.48000335693360796,9.819999694824219,6.459999084472656,4.999999999999993,6.0,6.0,04-19,2.589583079020179
03-21,-3.75,7.9850006103515625,-0.7649993896484304,-4.819999694824226,-4.540000915527344,5.290000915527344,9.0,1.4800033569335938,0.3000030517578125,8.069999694824219,5.479995727539048,1.9799995422363281,8.0,4.0,04-20,2.1425002415974923
03-22,-3.0,8.244998931884773,-1.9449996948242188,-3.0900001525878906,-5.0800018310546875,6.209999084472685,8.230003356933594,3.2299957275390625,-1.3600006103515625,8.55999755859375,8.669998168945312,7.299999237060547,7.0,5.0,04-21,2.997499148050947
03-23,-5.055000305175785,8.685001373291009,-2.299999237060547,-3.7800025939941406,-4.305000305175774,7.649993896484403,8.739997863769517,5.030006408691406,-1.5199966430664205,6.989997863769531,9.05999755859375,6.629997253417969,7.0,5.0,04-22,2.9854160944620767
03-24,-3.5850009918212926,9.650001525878913,-3.0400009155273366,-4.100002288818359,-5.239997863769524,8.729995727539077,7.75,5.069999694824219,-1.5699996948242188,6.470001220703125,11.09000396728517,0.7000007629394531,7.0,5.0,04-23,2.660416762034102
03-25,-3.5399990081787074,11.225002288818366,-4.034999847412109,-4.56500244140625,-3.759998321533203,6.55499267578125,7.7399978637695455,4.840003967285156,-0.07999420166015625,6.400001525878906,14.290000915527344,3.460002899169929,7.0,5.0,04-24,3.210834026336673
03-26,-2.815000534057617,11.14000320434571,-3.3100013732910227,-4.280002593994141,-5.9499969482421875,9.020004272460923,6.339996337890639,4.6300048828125,0.20000457763673296,7.269996643066406,11.830001831054688,3.620002746582024,8.0,4.0,04-25,3.141251087188721
03-27,-1.4750003814697301,10.0250015258789,-3.2849998474121094,-3.4150009155273438,-4.134998321533217,8.349998474121094,7.1399993896484375,6.3899993896484375,0.3600006103515625,8.259994506835938,9.35000610351561,7.150001525878906,8.0,4.0,04-26,3.7262501716613734
03-28,1.7299995422363352,10.380001068115234,-4.05000305175782,-1.5999984741210866,-4.070003509521499,6.5,6.129997253417969,5.230003356933594,-0.0200042724609375,11.580001831054688,8.700004577636719,9.240001678466804,8.0,4.0,04-27,4.145833333333333
03-29,3.254999160766605,9.760002136230469,-3.9749984741210938,-1.2949981689453125,-4.289997100830078,5.3950042724609375,4.5800018310546875,7.3300018310546875,-2.690002441406236,10.1300048828125,8.760002136230455,8.380001068115234,8.0,4.0,04-28,3.7783350944519043
03-30,2.879999160766605,7.645000457763665,-3.715000152587905,-2.3349990844726562,-3.3249969482421875,0.9550018310546875,5.220001220703125,10.849998474121094,-2.8600006103515483,12.470001220703125,5.139999389648452,9.560001373291016,8.0,4.0,04-29,3.5404171943664564
03-31,4.315000534057617,8.239997863769524,-3.375,-2.4150009155273438,-4.694995880126946,-0.02500152587889204,6.7699966430664205,11.930000305175781,-3.240005493164034,14.690002441406264,0.9399948120117188,9.060001373291016,7.0,5.0,04-30,3.5162491798400937
04-01,4.304998397827159,6.9199981689453125,-3.3149986267089915,-2.1650009155273438,-3.289997100830078,0.6399993896484517,8.519996643066392,12.470001220703125,-3.9599990844726562,13.860000610351562,0.05999755859376421,13.120002746582045,8.0,4.0,05-01,3.930416584014895
04-02,2.704998016357429,5.825000762939453,-3.194999694824226,-1.7700004577636648,-3.9449996948242045,-1.1100006103515625,7.029998779296861,11.580001831054688,-4.459999084472656,15.239997863769531,0.0,9.420001983642585,6.0,6.0,05-02,3.109999974568686
04-03,1.299999237060554,6.745002746582024,-2.6599998474121236,-1.1649971008300852,-3.634998321533203,-2.6500015258789062,4.869995117187472,12.310005187988281,-4.930000305175781,12.489997863769545,-2.0400009155273438,7.830001831054695,6.0,6.0,05-03,2.3720836639404275
04-04,1.389999389648434,7.17500305175782,-3.7150001525878906,-0.6199989318847656,-2.0149993896484375,-1.7699966430664062,4.079994201660156,12.470001220703125,-6.3799972534179545,12.480003356933594,-1.779998779296875,8.079998016357422,6.0,6.0,05-04,2.449584007263185
04-05,2.6900005340576136,7.895000457763679,-4.384998321533203,0.049999237060546875,-2.9599990844726562,-0.8099975585937358,4.029998779296861,10.089996337890625,-5.8199996948242045,12.270004272460952,-6.739997863769517,5.1399993896484375,7.0,5.0,05-05,1.7875005404154498
04-06,5.670000076293942,6.4300003051757955,-4.264999389648445,0.9199981689453054,-3.6100006103515625,-0.870002746582017,4.519996643066392,8.1199951171875,-6.290000915527315,14.720001220703125,-10.310005187988281,7.310001373291016,7.0,5.0,05-06,1.8620820045471211
04-07,6.520000457763675,0.7150001525878835,-4.19000244140625,0.13499832153319602,-1.4549980163574219,1.3199996948242188,0.2700042724609375,7.8899993896484375,-5.5999984741210795,12.630004882812528,-8.580001831054688,4.719997406005859,8.0,4.0,05-07,1.1979169845581081
04-08,9.239999771118164,-0.8950004577636719,-4.19000244140625,-1.0750007629394602,-0.4249992370605469,4.919998168945298,1.0400009155273438,5.8699951171875,-9.970001220703125,11.28000640869142,-8.240005493164077,0.5499992370605469,6.0,6.0,05-08,0.6754158337910953
04-09,8.090000152587887,0.20000076293945312,-4.159999847412109,-1.335002899169929,3.720001220703111,5.840003967285142,-0.6299972534179688,7.25,-7.690002441406264,10.510002136230483,-6.790000915527344,1.0200004577636719,7.0,5.0,05-09,1.3354171117146778
04-10,7.7799987792968786,-2.404998779296868,-2.614997863769524,-0.00500106811522727,4.6399993896484375,6.680000305175781,-1.5099945068359375,4.6699981689453125,-6.879997253417983,7.629997253417969,-4.700004577636719,2.549999237060547,6.0,6.0,05-10,1.3195832570393888
04-11,5.774997711181644,-3.170001983642578,-0.6749992370605469,1.0750007629394531,4.819999694824219,6.160003662109389,-1.1900024414062358,4.629997253417969,-6.239997863769517,8.389999389648438,-4.700004577636719,5.020000457763679,7.0,5.0,05-11,1.6579160690307662
04-12,7.450000762939457,-0.3450012207031179,0.80999755859375,-0.060001373291015625,6.88499832153321,1.7700042724609375,-1.1900024414062358,2.220001220703125,-2.9499969482421733,7.80999755859375,-11.27999877929689,8.15999984741211,7.0,5.0,05-12,1.606666564941409
04-13,5.880001068115238,-1.3199996948242045,-1.9599990844726491,0.8849983215332031,9.944999694824212,2.3199996948242188,-3.0800018310546733,2.5400009155273438,-1.0999984741210938,6.7700042724609375,-7.880004882812528,6.549999237060547,7.0,5.0,05-13,1.6291666030883791
04-14,6.3649997711181605,-0.4550018310546946,-2.0149993896484304,1.8700027465820241,8.694999694824212,3.6800003051757812,-3.0499954223632812,2.5100021362304688,-1.1999969482421733,7.9300003051757955,-7.1200027465820455,7.490001678466804,7.0,5.0,05-14,2.0583341916402182
04-15,5.539999008178711,-1.0600013732910227,-2.1749992370605398,0.7300033569335938,8.735000610351555,4.05999755859375,-6.3600006103515625,4.6100006103515625,-1.459999084472642,6.390007019042969,-8.620002746582045,8.310001373291016,7.0,5.0,05-15,1.5583338737487786
04-16,5.869998931884766,0.45499801635741477,-2.1750030517578196,-0.8649978637695312,8.759998321533203,2.8899993896484233,-6.400001525878906,3.05999755859375,-1.0400009155273153,7.660003662109375,-8.010002136230469,11.680000305175781,7.0,5.0,05-16,1.8237492243448894
04-17,5.119998931884766,0.04500198364257102,-2.2150001525878906,-2.795001983642571,9.935001373291001,1.4500045776367045,-5.6300048828125,1.2099990844726562,-1.0099945068359233,9.080001831054688,-7.4799957275390625,6.3600006103515625,7.0,5.0,05-17,1.1725009282430001
04-18,7.694999694824222,-0.9500007629394602,-2.585002899169929,-2.6100006103515625,9.690002441406229,0.37000274658203125,-7.009994506835923,3.25,-1.0,8.650001525878906,-9.510002136230483,6.39000320434571,6.0,6.0,05-18,1.031667391459145
04-19,6.139999389648441,-2.379997253417976,-1.9300003051757812,-2.5050010681152344,10.624999999999979,-0.790000915527358,-7.269996643066392,2.44000244140625,-0.34000396728514204,7.459999084472656,-12.709999084472656,6.510002136230469,5.0,7.0,05-19,0.4375003178914379
04-20,7.540000915527347,-4.335002899169915,-2.5999984741210866,-2.0400009155273438,8.40999984741211,-1.029998779296875,-5.939994812011719,1.0400009155273438,-0.3500061035155966,7.529998779296875,-11.889999389648438,11.270000457763665,5.0,7.0,05-20,0.6337499618530306
04-21,7.554998397827152,-4.819999694824226,-2.625,-3.1300010681152344,9.424999237060547,-1.2299957275390767,-6.329994201660142,1.25,-0.6300048828124858,11.310005187988281,-14.050003051757812,10.15999984741211,5.0,7.0,05-21,0.573750336964926
04-22,8.04000091552735,-5.38999938964843,-1.8599967956542898,-3.6450004577636648,9.604999542236328,-0.4499969482421875,-7.2399978637695455,-0.5099945068359375,-2.0499954223632812,10.950004577636719,-13.389999389648438,9.499999999999993,4.0,8.0,05-22,0.296668688456218
04-23,6.160001754760746,-5.744998931884766,-2.1749992370605398,-1.7000007629394531,8.639999389648438,-0.9199981689453125,-7.80999755859375,0.31999969482421875,0.06999969482424717,12.610000610351577,-10.97000122070314,8.430000305175767,6.0,6.0,05-23,0.5758337974548361
04-24,4.635002136230476,-8.095001220703125,-1.7449989318847656,-1.55999755859375,5.49999618530272,0.6800003051757812,-6.260002136230469,1.1599960327148438,-0.6299972534179545,9.170005798339858,-11.02999877929686,9.290000915527337,6.0,6.0,05-24,0.0929171244303409
04-25,5.010002136230476,-5.945003509521484,-3.0449981689453125,-2.365001678466797,4.5349960327148295,5.120002746582031,-6.900001525878906,1.5099945068359375,-2.7399978637695312,7.5800018310546875,-9.169998168945312,8.110000610351555,6.0,6.0,05-25,0.14166641235351443
04-26,3.6650009155273438,-7.560001373291016,-2.8300018310546804,-3.4099998474121094,5.904994964599588,6.100006103515611,-5.8700027465820455,-0.29000091552734375,-1.6399993896484517,5.360000610351548,-4.9699935913085795,7.779998779296875,5.0,7.0,05-26,0.186666806538895
04-27,3.3850021362304688,-4.959999084472649,-2.2800025939941335,-3.6599998474121094,4.49999618530272,5.620002746582017,-7.0999984741210795,-1.4300003051757812,-0.3300018310546875,6.19000244140625,-4.089996337890625,7.739997863769538,5.0,7.0,05-27,0.2987502415974941
04-28,2.9399986267089773,-4.8400001525878835,-2.390003204345703,-4.055000305175788,4.734996795654297,5.910003662109361,-9.30999755859375,1.19000244140625,0.1699981689453125,4.810005187988281,-8.150001525878906,6.459999084472649,7.0,5.0,05-28,-0.2108332316080753
04-29,1.2649993896484233,-5.7600021362304545,-2.9250030517578054,-4.50999832153321,4.450000762939453,5.110000610351548,-10.739997863769517,0.45999908447265625,0.6399993896484375,1.8100051879882812,-9.839996337890625,5.009998321533196,7.0,5.0,05-29,-1.2524995803833014
04-30,2.394998550415032,-6.19000244140625,-1.8700027465820384,-4.029998779296882,4.9799957275390625,7.190002441406236,-9.949996948242202,0.3000030517578125,-1.0100021362304688,-0.40999603271482954,-8.940002441406236,5.220001220703125,5.0,7.0,05-30,-1.0262500445048033
05-01,1.0949974060058523,-6.909999847412109,-1.8549995422363352,-3.1850013732910156,7.0,8.06999969482419,-9.900001525878906,-0.4799957275390625,-0.80999755859375,-1.349998474121108,-5.459999084472656,8.15999984741211,4.0,8.0,05-31,-0.46874968210856593
05-02,0.2849998474121094,-3.524997711181655,-1.395000457763679,-4.145000457763665,6.5800018310546875,8.130004882812472,-10.239997863769531,-1.2099990844726562,-2.250000000000014,3.1100006103515767,-2.7399978637695312,4.899997711181641,5.0,7.0,06-01,-0.2083323796590205
05-03,0.5750007629394602,-4.36000061035157,0.4949989318847656,-3.3600006103515554,4.424999237060547,7.4199981689453125,-10.699996948242188,0.7300033569335938,-1.4500045776367188,3.75,-4.470001220703125,4.229999542236335,7.0,5.0,06-02,-0.22625033060709518
05-04,2.3400001525878906,-4.704998016357429,0.9550018310546946,-2.150001525878899,3.325000762939439,6.550003051757798,-10.629997253417969,1.410003662109375,1.7099990844726705,5.099998474121108,-7.279998779296861,5.069999694824226,8.0,4.0,06-03,0.14125092824300367
05-05,2.5999984741210938,1.2900009155273438,1.9200019836425852,-2.734996795654304,1.5300025939941406,6.1299972534179545,-4.7700042724609375,-0.5100021362304688,-0.5699996948241903,3.9199981689453267,-9.360000610351548,8.760002136230476,7.0,5.0,06-04,0.683749834696456
05-06,-2.479999542236328,2.6899986267089773,0.375,-6.549999237060547,2.854999542236328,3.0300064086914205,-6.069999694824219,2.0699996948242188,-1.2900009155273295,4.459999084472656,-8.29000091552733,9.529998779296882,7.0,5.0,06-05,0.027500152587894178
05-07,-0.47499847412109375,3.4550018310546875,-0.20499801635742188,-7.18499755859375,-1.7649993896484233,1.5800018310547017,-4.489997863769531,1.8499984741210938,-2.0100021362304545,4.779998779296875,-7.5,7.05999755859375,5.0,7.0,06-06,-0.40874958038329723
05-08,-2.1500015258789062,1.6200027465820241,-0.38000106811522727,-6.05999755859375,-4.689994812011719,4.639999389648452,-4.489997863769531,1.0699996948242188,-2.4900054931640483,1.2900009155273438,-12.0,3.9199981689453196,5.0,7.0,06-07,-1.643333117167152
05-09,-0.26000213623046875,-1.75,-1.1300010681152273,-5.090000152587891,-3.779998779296875,4.0900039672851705,-4.230003356933594,2.6299972534179688,-0.80999755859375,-1.6500015258789062,-12.209999084472642,5.3100013732910085,3.0,9.0,06-08,-1.5733334223429338
05-10,-0.1100006103515696,-2.674999237060554,-1.3999977111816477,-5.795001983642571,-2.529998779296875,4.260002136230469,-1.9300003051757812,5.689994812011719,-6.3899993896484375,-2.809997558593764,-12.970001220703125,9.470001220703132,3.0,9.0,06-09,-1.4324998855590838
05-11,-0.015003204345703125,0.3100013732910085,1.125,-4.655002593994141,-1.5100021362304688,5.680000305175781,-2.5,5.040000915527344,-6.129997253417969,-1.2700042724609375,-9.230003356933594,12.270000457763672,5.0,7.0,06-10,-0.07375081380208393
05-12,0.7000007629394531,-2.284999847412095,1.710002899169929,-2.795001983642578,-0.4900054931640767,5.8700027465820455,-4.32000732421875,4.8600006103515625,-6.5499954223632955,-0.75,-8.900001525878906,9.75,5.0,7.0,06-11,-0.26666704813639264
05-13,2.4650001525878906,-2.1350021362304616,1.75,-3.5800018310546946,-1.0200042724609375,3.5200042724609233,-1.1899948120117188,6.709999084472656,-6.620002746582031,-1.0100021362304688,-8.300003051757812,7.430000305175774,5.0,7.0,06-12,-0.16500059763590672
05-14,1.9449996948242188,-1.1399993896484304,3.0400009155273438,-4.555000305175781,-3.779998779296875,6.7999954223632955,-0.31999969482421875,3.8899993896484375,-4.650001525878906,-0.6699981689452983,-7.839996337890625,8.069999694824205,5.0,7.0,06-13,0.06583340962728042
05-15,3.5,2.7699966430664062,1.4850006103515625,-2.520000457763672,-2.529998779296861,7.959999084472685,-0.05999755859375,0.8699951171875,-4.850006103515625,-1.7600021362304688,-9.330001831054688,7.950000762939446,6.0,6.0,06-14,0.2904154459635446
05-16,3.0199966430664062,3.3149986267089844,0.005001068115234375,-3.125,-1.7949981689453125,8.199996948242202,-1.150001525878892,0.6999969482421875,-3.2700042724609233,-3.25,-10.150001525878906,-1.2899971008300781,5.0,7.0,06-15,-0.7325010299682582
05-17,3.2849998474121094,2.859996795654297,-0.29000091552734375,-2.3199996948242188,-2.80999755859375,9.329994201660156,-2.2700042724609233,1.410003662109375,-4.0199966430664205,-7.900001525878906,-7.989997863769531,0.13000106811524148,5.0,7.0,06-16,-0.8820835749308262
05-18,2.5999984741210938,3.7600021362304688,-1.875,-1.8050003051757884,-1.1399993896484375,11.719993591308608,-2.5800018310546733,2.029998779296875,-2.7600021362304545,-7.540000915527344,-7.19000244140625,-0.22999954223632102,4.0,8.0,06-17,-0.4175011316935186
05-19,0.9200019836425781,4.079998016357422,-1.55999755859375,-2.8699989318847656,-1.93499755859375,11.729995727539077,-0.18000030517579546,2.3600006103515625,-4.879997253417983,-9.919998168945327,-8.510002136230469,3.9399986267089844,5.0,7.0,06-18,-0.5687497456868513
05-20,0.4049987792968679,7.049999237060547,-1.9899978637695241,-1.779998779296875,-1.1399993896484375,10.5,-1.44000244140625,1.5200042724609375,-6.069999694824219,-13.26999664306642,-8.209999084472656,-0.17000198364257102,4.0,8.0,06-19,-1.2162494659423835
05-21,1.75,4.900001525878906,-1.3199996948242188,-2.734996795654297,0.37000274658203125,9.379997253417969,-2.470001220703111,-1.089996337890625,-4.590003967285156,-10.829994201660156,-7.329994201660142,0.15999984741210938,5.0,7.0,06-20,-1.1504154205322241
05-22,2.029998779296875,6.349998474121101,-1.0,-2.69000244140625,2.3300018310547017,9.860000610351562,-1.2400054931640767,-0.37999725341796875,-5.040000915527344,-6.6800003051757955,-4.260002136230469,0.20000076293944602,5.0,7.0,06-21,-0.04333400726318478
05-23,1.4150009155273509,6.430000305175781,-1.6749992370605469,-4.379997253417962,2.095001220703125,9.569999694824219,-0.34000396728515625,1.9200057983398438,-4.680000305175781,-3.5500030517578125,-0.1999969482421875,1.490001678466804,6.0,6.0,06-22,0.6745840708414731
05-24,0.32500076293946023,6.625,-1.93499755859375,-3.9249992370605398,2.3799972534179688,11.069999694824205,-0.8800048828125,2.4200057983398438,-5.549995422363281,-0.5500030517578125,1.4899978637695312,0.8600006103515696,7.0,5.0,06-23,1.0275001525878913
05-25,-0.894996643066392,3.8699989318847656,-2.9300003051757812,-4.404998779296868,-0.06499481201171875,13.25,-1.0699996948242188,0.5199966430664062,-3.899993896484375,1.6699981689452983,4.339996337890639,0.9799995422363352,6.0,6.0,06-24,0.9470837910970076
05-26,-0.9899978637695241,3.5499992370605398,-2.9450035095214844,-9.189998626708984,-0.3600006103515625,12.680000305175781,-0.3600006103515625,1.2999954223632812,-4.099998474121094,0.3899993896484375,5.260002136230483,1.020000457763679,6.0,6.0,06-25,0.5212497711181658
05-27,-0.47499847412108664,0.16499710083008523,-3.4050025939941406,-8.619998931884766,-1.8549957275390625,8.289993286132812,-0.660003662109375,2.029998779296875,-1.9300003051757812,2.3000030517578267,3.4499969482422017,-3.779998779296875,5.0,7.0,06-26,-0.3741674423217738
05-28,-2.645000457763672,1.0,-4.489997863769531,-9.979999542236328,-0.4850006103515625,10.82999420166017,-0.8100051879882812,3.1399993896484375,-1.8300018310546875,0.6200027465820312,2.9300003051757812,-2.6899986267089844,5.0,7.0,06-27,-0.36750062306721887
05-29,-2.9350013732910227,1.8799972534179688,-5.435001373291016,-10.450000762939453,-0.48999786376953125,9.349998474121094,-0.350006103515625,-0.3000030517578125,-2.2300033569335938,3.470001220703125,6.659996032714844,-2.020000457763679,4.0,8.0,06-28,-0.23750178019205848
05-30,-4.045001983642578,4.474998474121094,-4.404998779296875,-7.629997253417976,-0.4199981689452983,10.219993591308608,-1.1100006103515625,-2.7700042724609375,-1.6200027465820312,4.169998168945298,9.129997253417969,-1.0800018310546946,4.0,8.0,06-29,0.40958182017008465
05-31,-4.5800018310546875,2.2949981689453125,-3.3649978637695312,-6.784999847412102,1.375,10.040000915527358,-0.7000045776367188,0.3899993896484375,-1.290000915527358,6.120002746582017,11.209999084472656,-3.0500030517578196,6.0,6.0,06-30,0.9716660181681304
06-01,-4.880001068115234,-0.295001983642571,-2.5450019836425852,-2.9699974060058594,-0.37000274658203125,10.45999908447267,-2.5100021362304688,2.69000244140625,-1.3800048828125,5.5800018310546875,9.160003662109375,-2.1599998474121236,4.0,8.0,07-01,0.8983329137166342
06-02,-4.145000457763672,-4.689998626708977,-3.9050025939941406,-2.6199989318847656,-0.03500366210938921,11.480003356933608,-2.2199935913085938,2.9500045776367188,-0.660003662109375,4.8300018310546875,10.210006713867188,-4.150001525878913,4.0,8.0,07-02,0.5870844523111979
06-03,-2.325000762939453,-5.680000305175774,-3.7299995422363352,-0.14500045776367188,1.7799987792968892,9.889999389648423,-1.4599990844726562,3.7300033569335938,0.8000030517578125,5.760002136230469,10.139999389648438,-4.709999084472663,6.0,6.0,07-03,1.1708339055379227
06-04,-2.645000457763672,-2.30999755859375,-2.9799995422363352,-0.14500045776367188,1.5749969482422017,10.180000305175753,0.17000579833984375,2.1700057983398438,0.8000030517578125,5.760002136230469,8.80999755859375,-4.49000167846679,7.0,5.0,07-04,1.4079176584879545
06-05,-2.795001983642571,-1.384998321533196,-2.254997253417983,-1.4650001525878906,4.680000305175781,8.650001525878892,-2.1299972534179688,2.1500015258789062,1.3199996948242188,5.819999694824219,5.529998779296875,-8.650001525878913,6.0,6.0,07-05,0.7891670862833641
06-06,-3.329998016357422,-1.029998779296875,-2.9899978637695384,-0.0149993896484375,3.6200027465820312,7.2300033569335795,-3.3400039672851562,3.5100021362304688,1.540000915527358,6.290000915527344,3.2900009155273438,-12.25,6.0,6.0,07-06,0.210417747497558
06-07,-4.73499679565429,-1.4000015258789062,-2.4050025939941264,-0.279998779296875,2.600006103515639,6.720001220703111,-3.44000244140625,-2.6599960327148438,2.150001525878892,4.5,2.9599990844726562,-11.59000015258789,5.0,7.0,07-07,-0.6316658655802403
06-08,-5.53499794006348,-2.7550010681152344,-3.335002899169929,0.5050010681152415,3.279998779296861,7.239997863769517,-4.0200042724609375,-2.5999984741210938,2.190002441406236,4.760002136230469,2.0,-11.700000762939453,6.0,6.0,07-08,-0.830833594004317
06-09,-7.034999847412109,-0.004997253417982961,-4.255001068115234,0.034999847412109375,4.3899993896484375,6.220001220703111,-2.3699951171875,-1.8199996948242188,0.2200012207031108,5.209999084472642,3.3700027465820312,-11.36000061035157,6.0,6.0,07-09,-0.6166658401489311
06-10,-6.7399997711181605,-2.484996795654304,-2.700000762939453,-0.6450004577636719,4.069999694824219,7.290000915527358,-5.920005798339844,1.2000045776367188,-1.25,6.339996337890611,4.950004577636719,-8.19000244140625,5.0,7.0,07-10,-0.33999999364217154
06-11,-7.659997940063473,-3.029998779296882,-0.579998016357429,-0.2200012207031179,6.555000305175781,5.8600006103515625,-6.160003662109375,0.220001220703125,-1.4399948120117188,8.119995117187472,2.6500015258789062,-3.710002899169922,5.0,7.0,07-11,0.05041678746541075
06-12,-7.925001144409176,-1.3649978637695312,-1.3950004577636719,-2.4099998474121094,6.319999694824219,4.93000030517581,-5.040000915527344,1.1500015258789062,-0.2599945068359375,8.5,5.6300048828125,-5.1300010681152415,5.0,7.0,07-12,0.2504175504048686
06-13,-6.815000534057614,-1.6899986267089844,-2.849998474121101,-0.4099998474121165,4.470001220703125,2.540000915527358,-3.9199981689453125,1.5100021362304688,0.06999969482419033,6.410003662109375,4.170005798339844,-7.869998931884766,6.0,6.0,07-13,-0.36541509628296104
06-14,-6.875,-1.7049980163574219,-3.0699996948242188,-1.2900009155273509,5.2649993896484375,0.9300003051757812,-4.680000305175781,2.1599960327148438,1.6399993896484375,7.1300048828125,5.4900054931640625,-6.809997558593757,6.0,6.0,07-14,-0.1512492497762056
06-15,-6.209999084472656,-1.7750015258788991,-1.9650001525878906,-2.3800010681152415,5.1100006103515625,-0.37999725341796875,-5.010002136230469,1.399993896484375,3.529998779296875,10.480003356933594,5.3699951171875,-7.259998321533203,5.0,7.0,07-15,0.07583268483479817
06-16,-4.595001220703125,-1.875,-1.3349990844726491,-1.8400001525878977,5.69000244140625,1.6600036621093608,-4.849998474121094,3.6599960327148438,2.0500030517578125,7.519996643066392,5.430000305175781,-7.319999694824212,6.0,6.0,07-16,0.34958362579345525
06-17,-3.384998321533196,-1.7099990844726634,-1.654998779296868,-0.9000015258789062,5.1049957275390625,1.0500030517577983,-5.769996643066406,2.9499969482421875,3.7399978637695455,9.33999633789061,3.279998779296875,-5.020000457763672,6.0,6.0,07-17,0.585416158040364
06-18,-2.809997558593743,-1.7900009155273438,-2.095001220703125,-0.7450027465820241,4.769996643066406,3.55999755859375,-5.55999755859375,1.4399948120117188,3.8000030517578267,7.989997863769517,-1.3000030517578125,-5.470001220703125,5.0,7.0,07-18,0.14916547139485795
06-19,-1.7199974060058523,-2.209999084472649,0.14500045776367898,-0.354999542236321,5.120002746582031,1.2999954223632955,-5.019996643066406,0.9099960327148438,3.8300018310546875,7.239997863769531,-3.4599990844726562,-4.840000152587891,6.0,6.0,07-19,0.07833353678385772
06-20,0.884998321533196,-4.165000915527344,0.30999755859375,1.8799972534179616,7.4199981689453125,-0.8800048828125,-5.680000305175781,0.05999755859375,3.849998474121108,4.150001525878906,-6.259994506835952,-4.599998474121094,7.0,5.0,07-20,-0.2525008519490572
06-21,1.0549964904785014,-4.299999237060554,0.9199981689453054,5.109996795654297,7.715003967285156,-1.8600006103515767,-7.5800018310546875,-2.8700027465820312,7.189994812011733,6.980003356933594,-7.1800003051757955,-5.259998321533203,6.0,6.0,07-21,-0.006667455037438448
06-22,2.4099998474121023,-1.1499977111816406,1.2350006103515696,4.539997100830078,9.794998168945312,-1.3700027465820312,-10.150001525878906,-1.4899978637695312,6.619995117187514,5.0699996948242045,-5.129997253417983,-4.719997406005859,6.0,6.0,07-22,0.47166633605956915
06-23,2.6499977111816406,-2.2099990844726562,1.8249969482421946,6.674999237060547,10.629997253417969,-1.2600021362304688,-11.459999084472656,-2.3899993896484375,6.5199966430664205,5.55999755859375,-3.5199966430664205,-2.0400009155273438,6.0,6.0,07-23,0.9149990081787115
06-24,2.0400009155273438,-1.0849990844726562,2.770000457763679,7.165000915527344,11.040000915527344,3.530006408691392,-12.25,1.0500030517578125,6.2700042724609375,5.519996643066406,-3.349998474121108,1.2399978637695241,9.0,3.0,07-24,1.995001157124835
06-25,1.3850021362304688,-3.6800003051757812,2.6149978637695384,6.149997711181641,9.245002746582031,-0.06999969482420454,-11.560005187988281,2.9000015258789062,5.5200042724609375,6.029998779296875,-2.4500045776367188,-0.5400009155273509,7.0,5.0,07-25,1.2954161961873385
06-26,1.9200019836425781,-1.1100006103515625,3.1199989318847656,5.770000457763672,6.1100006103515625,0.5299987792968892,-11.970001220703125,2.3900070190429688,5.919998168945327,5.940002441406264,-5.409996032714844,1.4300003051757741,9.0,3.0,07-26,1.2200009028116892
06-27,3.424999237060554,-1.5449981689453125,2.9399986267089844,4.979999542236335,6.530006408691406,0.11000061035157671,-9.930000305175781,0.160003662109375,6.8700027465820455,4.450004577636719,-4.430000305175781,-0.8000030517578054,8.0,4.0,07-27,1.0633344650268597
06-28,3.865001678466804,-0.8499984741210938,2.079998016357422,5.264999389648445,6.195007324218764,-0.6600036621093608,-11.089996337890625,-1.3000030517578125,5.730003356933594,4.8800048828125,-5.480003356933594,-0.6100006103515554,6.0,6.0,07-28,0.6687507629394572
06-29,3.670001983642578,0.15999984741210938,0.4850006103515625,2.790000915527351,6.029998779296861,-2.0400009155273438,-13.05999755859375,-3.660003662109375,4.75,3.9500045776367188,-7.6199951171875,-1.0900001525878764,7.0,5.0,07-29,-0.46958255767822205
06-30,2.760002136230476,1.0949974060058594,-0.24000167846678977,4.239997863769524,5.215003967285142,-3.470001220703125,-10.700004577636719,-3.6399993896484375,4.230003356933594,6.459999084472656,-8.799995422363281,-3.3899993896484375,6.0,6.0,07-30,-0.5199998219807949
07-01,1.9300003051757812,0.7399978637695384,0.4949989318847656,6.034999847412095,4.7000045776367045,-2.3100051879882812,-8.029998779296875,-5.0,3.6100006103515483,6.749992370605469,-9.169998168945312,-1.3600006103515625,7.0,5.0,07-31,-0.13416735331217744
07-02,3.334999084472649,1.1100006103515696,0.0950012207031179,5.30999755859375,3.1100006103515625,-2.600006103515639,-7.930000305175781,-2.8600006103515625,3.049995422363267,7.499992370605469,-1.5,-2.020000457763672,7.0,5.0,08-01,0.5499982833862275
07-03,4.1350002288818395,0.3650016784667969,-0.6199989318847727,1.5600013732910085,3.6550064086914205,-3.1200027465820455,-7.349998474121094,-1.0600051879882812,2.769996643066392,6.51000213623044,-1.3499984741210938,-1.9099998474121094,6.0,6.0,08-02,0.29875040054320845
07-05,5.699998855590824,1.3300018310546804,-2.0149993896484446,4.224998474121094,2.5450057983398438,-6.290000915527358,-7.899993896484375,-2.8700027465820312,2.0199966430664205,2.3499984741210938,-2.720001220703125,-3.5600013732910156,6.0,6.0,08-04,-0.5987499554951995
07-06,7.0100002288818395,0.9249992370605469,-2.1449966430664062,4.904998779296875,6.155006408691406,-7.69000244140625,-8.649993896484375,-0.3899993896484375,3.69000244140625,1.220001220703125,-9.080001831054688,-4.040000915527337,6.0,6.0,08-05,-0.6741655667622876
07-07,8.43499755859375,-0.40000152587889914,-2.7849998474121023,2.31500244140625,6.635002136230469,-3.9200057983398295,-9.980003356933594,0.7600021362304688,3.8799972534179688,-0.1999969482421733,-7.69000244140625,0.34999847412109375,6.0,6.0,08-06,-0.216667493184404
07-08,8.124998092651364,-1.6100006103515625,-1.9699974060058594,7.630001068115227,7.209999084472656,-7.350006103515639,-8.400001525878906,-0.1699981689453125,-0.720001220703125,-3.7199935913085795,-11.150001525878906,3.3100013732910227,4.0,8.0,08-07,-0.7345833778381351
07-09,7.699998855590817,-1.2849998474121094,-3.44000244140625,7.125,5.5,-9.919998168945327,-9.210006713867188,1.339996337890625,0.8299942016601705,-2.2299957275390483,-10.870002746582031,6.409999847412109,6.0,6.0,08-08,-0.6708347002665193
07-10,7.759998321533203,-1.5499992370605398,-1.545001983642571,9.694999694824226,6.974998474121094,-8.319999694824219,-8.450004577636719,7.260002136230469,0.04999542236328125,-2.5400009155273438,-13.110000610351562,5.349998474121101,6.0,6.0,08-09,0.13124879201253492
07-11,7.194999694824219,-3.1399993896484446,-5.20500183105468,8.010002136230476,6.334999084472656,-7.010002136230469,-6.529998779296875,7.760002136230469,0.5200042724609517,-1.8900070190429688,-13.289993286132812,5.939998626708984,6.0,6.0,08-10,-0.10874970753987452
07-12,5.450000762939453,-2.7999992370605398,-4.0149993896484375,8.424999237060554,5.754997253417969,-9.630004882812472,-10.449996948242188,5.239997863769517,-0.220001220703125,-1.3700027465820312,-13.349998474121094,3.8600006103515696,5.0,7.0,08-11,-1.0920839309692354
07-13,6.18499755859375,-3.0550003051757884,-5.975002288818359,7.4850006103515625,7.5200042724609375,-7.910003662109361,-7.94000244140625,5.5800018310546875,-1.4599990844726705,-3.19000244140625,-8.389999389648438,5.509998321533203,5.0,7.0,08-12,-0.470000584920248
07-14,4.545001983642571,-4.744998931884766,-4.860000610351555,8.085002899169915,7.650001525878906,-7.3899993896484375,-7.930000305175781,4.790000915527344,-1.5200042724609517,-2.3000030517577983,-9.379997253417969,2.1399993896484304,5.0,7.0,08-13,-0.9095830917358411
07-15,3.854999542236328,-4.520000457763679,-7.100002288818359,8.375,7.6100006103515625,-6.75,-3.3199996948242188,5.319999694824219,-2.779998779296875,-1.8400039672851562,-10.830001831054688,1.6300010681152344,5.0,7.0,08-14,-0.8625005086263027
07-16,2.470001220703132,-2.5649986267089844,-4.189998626708984,8.030002593994126,6.840003967285156,-10.75,-2.470001220703125,7.029998779296875,-3.3700027465820312,-3.1100006103515625,-8.480003356933594,1.2700004577636719,5.0,7.0,08-15,-0.7745831807454433
07-17,2.3000030517578267,-3.325000762939446,-3.68499755859375,7.555000305175774,5.284996032714844,-9.200004577636705,-0.5699996948242188,7.949996948242202,-3.910003662109375,-1.25,-10.170005798339844,1.9300003051757812,5.0,7.0,08-16,-0.5908346176147425
07-18,1.6349983215332031,-3.920001983642571,-2.6149978637695312,6.560001373291016,4.6999969482421875,-9.69000244140625,1.75,7.300003051757798,-4.6800003051757955,-8.139999389648452,-10.410003662109375,-0.2800025939941406,5.0,7.0,08-17,-1.4825007120768259
07-19,1.1949996948242259,-3.9600028991699148,-4.724998474121094,5.784999847412109,3.8649978637695312,-12.220001220703125,2.0,8.22000122070314,-9.32999420166017,-6.949996948242202,-12.020004272460938,0.270000457763679,6.0,6.0,08-18,-2.3224999109903965
07-20,-0.23000335693359375,-4.494998931884766,-4.904998779296882,5.2949981689453125,3.5499954223632812,-10.060005187988281,2.0800018310546875,8.110000610351562,-8.680000305175781,-6.909996032714858,-12.269996643066406,-1.1599998474121094,4.0,8.0,08-19,-2.4729169209798196
07-21,-0.12999725341796875,-4.534999847412109,-5.779998779296882,6.895000457763679,3.0,-10.720001220703125,3.0800018310546875,8.730003356933594,-7.930000305175781,-6.9499969482421875,-11.290000915527344,-4.069999694824219,4.0,8.0,08-20,-2.474999109903971
07-22,1.2099990844726562,-4.924999237060547,-6.284999847412109,6.995002746582038,1.5999984741210938,-9.520004272460923,0.9800033569335938,9.239997863769531,-9.930000305175795,-8.090003967285156,-9.400001525878906,-4.579998016357415,5.0,7.0,08-21,-2.7254171371459948
07-23,0.00500106811522727,-4.490001678466797,-9.29000091552735,6.185001373291016,2.9899978637695312,-8.669998168945327,0.75,12.980003356933594,-9.22000122070314,-8.090003967285156,-10.899993896484375,-3.2399978637695312,5.0,7.0,08-22,-2.582499504089359
07-24,-0.43500137329102273,-6.100002288818359,-9.319999694824219,6.634998321533203,3.8849945068359375,-8.919998168945327,1.9099960327148438,13.010002136230483,-9.619995117187514,-10.130004882812528,-10.459999084472656,-3.4300003051757812,4.0,8.0,08-23,-2.7479174931844117
07-25,-0.37000274658202414,-6.150001525878906,-9.930000305175781,6.610000610351555,2.2350006103515625,-7.540000915527344,3.5400009155273438,12.419998168945312,-10.630004882812514,-11.060005187988281,-8.25,-4.460002899169929,4.0,8.0,08-24,-2.7987515131632503
07-26,0.7449989318847656,-5.994998931884766,-8.799999237060547,5.745002746582031,3.0499954223632812,-6.199996948242202,1.6699981689453125,10.760002136230469,-9.639999389648438,-11.540000915527344,-7.069999694824219,-5.170001983642585,5.0,7.0,08-25,-2.703749974568687
07-27,0.7649993896484375,-5.974998474121101,-7.075000762939453,3.9500007629394602,4.844993591308594,-7.120002746582031,-3.9300003051757812,10.950004577636719,-10.870002746582031,-11.829994201660156,-8.409996032714844,-4.229999542236335,4.0,8.0,08-26,-3.2441663742065434
07-28,0.4850006103515554,-6.549999237060554,-6.755001068115234,3.725002288818345,5.954994201660156,-5.449996948242202,-8.489997863769531,10.830001831054688,-10.30999755859375,-13.499992370605469,-12.169998168945312,-2.8899993896484446,4.0,8.0,08-27,-3.759998639424646
07-29,1.5400009155273438,-6.560001373291016,-6.040000915527344,4.675003051757805,6.1999969482421875,-4.839996337890611,-6.75,9.030006408691406,-10.519996643066406,-12.439994812011719,-11.669998168945312,-5.240001678466797,4.0,8.0,08-28,-3.5512485504150386
07-30,0.5400009155273438,-5.020000457763672,-6.6800003051757955,4.805000305175774,6.094993591308594,-5.019996643066392,-7.5500030517578125,11.550003051757812,-10.629997253417969,-11.249992370605469,-14.399993896484375,-3.3200035095214844,4.0,8.0,08-29,-3.4066658020019536
07-31,-0.024997711181640625,-7.944999694824212,-5.885002136230476,5.404998779296882,6.9850006103515625,-0.8300018310546733,-6.200004577636719,11.480003356933594,-11.739997863769531,-10.970001220703097,-13.319999694824219,-3.5900001525878906,3.0,9.0,08-30,-3.052916844685868
08-01,-1.845001220703125,-6.555000305175774,-5.034999847412124,3.8000030517578054,3.6949996948242188,0.5699996948242188,-0.6500015258789062,12.44000244140625,-11.30999755859375,-6.790000915527344,-8.540000915527344,-1.4199981689453196,4.0,8.0,08-31,-1.8033329645792662
08-02,-1.7000007629394531,-7.475002288818345,-3.5050010681152344,5.965000152587876,3.2150039672851562,-3.1999969482422017,0.8699951171875,10.180000305175781,-8.650001525878906,-7.150001525878906,-9.930000305175781,-0.15999984741211648,4.0,8.0,09-01,-1.7950003941853858
08-03,-2.325000762939453,-7.414997100830078,-2.6950035095214844,0.6500015258788991,2.6400070190429688,-3.4199981689453267,1.8699951171875,6.1199951171875,-5.230003356933594,-3.6300048828125,-6.470001220703125,-1.029998779296882,4.0,8.0,09-02,-1.7445840835571313
08-04,-3.414997100830078,-6.529998779296868,0.22999954223633523,1.1550025939941264,1.4550018310546875,-1.9300003051758097,-0.720001220703125,4.25,-6.779998779296889,-5.120002746582031,-4.519996643066406,-3.25,4.0,8.0,09-03,-2.097915967305505
08-05,-4.049999237060547,-6.25,-1.6650009155273438,0.07500076293944602,1.4350051879882812,-0.9199981689452983,1.6200027465820312,-1.6700057983398438,-6.0,-4.989997863769531,-4.80999755859375,-7.049999237060547,3.0,9.0,09-04,-2.8562491734822584
08-06,-4.150001525878906,-4.659999847412095,1.9949989318847656,1.2800025939941264,2.6049957275390625,1.0999984741210795,0.029998779296875,-2.1700057983398438,-4.680000305175781,-5.6699981689453125,-4.150001525878906,-7.189998626708984,5.0,7.0,09-05,-2.1383342742919935
08-07,-2.4050025939941406,-5.0,1.4099998474121094,0.29000091552733664,2.154998779296875,1.6800003051757528,3.9499969482421875,-2.1100006103515625,-4.019996643066406,-6.75,-1.9800033569335938,-5.11000061035157,5.0,7.0,09-06,-1.4908339182535844
08-08,-3.1399993896484375,-5.225002288818359,-0.125,0.31999969482421875,0.9749984741210938,-0.04000091552735796,1.44000244140625,-1.75,-5.279998779296875,-4.879997253417969,-4.790000915527344,-6.759998321533203,3.0,9.0,09-07,-2.437916437784832
08-09,-3.2199974060058594,-4.805000305175788,-1.9500007629394531,-0.4350013732910156,0.845001220703125,-3.690002441406236,1.1800003051757812,4.450004577636733,-2.5,-4.419998168945327,-3.8000030517578125,-7.329998016357429,3.0,9.0,09-08,-2.139582951863607
08-10,-2.8649978637695312,-5.994998931884766,1.8400001525878835,-0.7249984741211009,1.3349990844726562,-3.120002746582017,0.6200027465820312,4.900001525878906,-1.2700042724609375,-4.879997253417969,-2.3199996948242188,-7.319999694824219,4.0,8.0,09-09,-1.6499996185302734
08-11,-0.06000137329100852,-3.44000244140625,-1.2350006103515625,1.5550003051757884,1.4800033569335938,-6.889999389648423,0.3600006103515625,4.040000915527344,-0.6800003051757812,-6.0,-1.4799957275390625,-8.589996337890625,4.0,8.0,09-10,-1.7449992497762021
08-12,0.125,-2.545001983642578,-1.7400016784667969,1.7899971008300781,2.4449996948242188,-5.380004882812472,-3.0,3.120002746582017,0.6100006103515625,-7.029998779296875,2.0800018310546875,-7.229999542236328,6.0,6.0,09-11,-1.3962504069010404
08-13,-0.5649986267089773,-1.9500007629394531,-3.520000457763672,1.549999237060554,2.6299972534179688,-4.339996337890611,-2.75,4.879997253417983,-1.2099990844726562,-7.180000305175781,1.5800018310546875,-5.55999755859375,4.0,8.0,09-12,-1.369583129882809
08-14,-0.125,-2.359996795654297,-5.4850006103515625,1.0400009155273438,5.375,-1.9199981689452983,-3.0,2.099998474121108,-0.05999755859375,-6.849998474121094,6.010002136230469,-6.11000061035157,4.0,8.0,09-13,-0.9487492243448875
08-15,2.490001678466797,-0.9449996948242188,-5.090000152587891,1.5800018310546875,5.279998779296875,-4.079994201660142,-1.9500045776367188,2.4300003051757955,1.4500045776367188,1.5,6.089996337890625,-8.540000915527344,7.0,5.0,09-14,0.01791699727376539
08-16,2.0550003051757812,-0.8999977111816406,-3.9150009155273438,0.9950027465820241,5.829994201660156,-2.370002746582017,-2.8600006103515625,0.1399993896484233,6.1199951171875,1.0299987792968608,5.1100006103515625,-7.490001678466797,7.0,5.0,09-15,0.3120822906494123
08-17,2.625,-1.4800033569335938,-3.125,0.8950004577636648,7.650001525878906,-4.1100006103515625,-3.5800018310546875,-1.7700042724609375,7.720001220703125,2.1700057983398295,1.8700027465820312,-7.370002746582031,6.0,6.0,09-16,0.12458324432372869
08-18,3.7649993896484375,-0.8849983215332031,0.06000137329102273,2.8050003051757812,6.875,-3.5199966430664062,-3.160003662109375,-3.2800064086914062,7.010002136230469,1.8500061035156392,1.5800018310546875,-7.759998321533203,7.0,5.0,09-17,0.44500064849853693
08-19,4.7050018310546875,0.030002593994140625,0.09000015258789062,4.025001525878913,6.555000305175781,-1.80999755859375,2.8700027465820312,-3.3100051879882955,8.089996337890625,3.0500030517578125,7.8300018310546875,-4.75,9.0,3.0,09-18,2.281250635782877
08-20,4.835002899169915,0.0800018310546875,2.0250015258789062,3.4150009155273438,6.575004577636719,-2.089996337890639,3.2099990844726562,-0.2200012207031108,9.529998779296875,2.7700042724609375,4.529998779296875,-3.2399978637695312,9.0,3.0,09-19,2.6183347702026363
08-21,3.720001220703125,-0.3650016784667969,1.9050025939941406,3.555000305175774,9.974998474121094,-2.0,5.0800018310546875,-0.1999969482421875,9.360000610351548,3.9599990844726847,4.099998474121094,-2.529998779296875,8.0,4.0,09-20,3.046667098999024
08-22,3.3699989318847656,-1.3100013732910156,0.7050018310546804,2.329998016357422,8.694999694824219,-1.0799942016601705,10.400001525878906,-1.1199951171875,8.889999389648423,2.8499984741210938,5.80999755859375,-3.1400032043457102,8.0,4.0,09-21,3.033333460489905
08-23,3.0149993896484375,-2.0,-0.9249992370605469,3.279998779296882,7.584999084472656,-2.959999084472642,7.0,-0.80999755859375,9.069999694824219,3.7699966430664062,9.569999694824219,-3.6200027465820312,7.0,5.0,09-22,2.747916221618654
08-24,2.7249984741210938,0.5050010681152344,-3.2449989318847656,2.329998016357422,6.80999755859375,-3.5699996948241903,7.2599945068359375,2.7899932861328125,9.55999755859375,2.7099990844726562,9.360000610351562,-5.520000457763672,9.0,3.0,09-23,2.6429150899251326
08-25,4.80999755859375,1.4500007629394531,-2.4150009155273366,2.190002441406243,5.879997253417969,-6.200004577636719,6.8600006103515625,3.2699966430664062,9.669998168945312,0.55999755859375,8.75,-5.930000305175774,9.0,3.0,09-24,2.4079154332478847
08-26,4.114997863769531,1.8699989318847656,-3.2099990844726562,2.3899993896484375,5.875,-8.560005187988281,2.0500030517578125,3.339996337890625,10.489997863769531,0.80999755859375,7.879997253417969,-6.879997253417976,9.0,3.0,09-25,1.6808322270711258
08-27,4.625,0.4799995422363281,-7.400001525878899,2.020000457763672,7.900001525878906,-6.470001220703125,-2.75,1.470001220703125,11.150001525878892,5.339996337890611,6.899993896484375,-8.569999694824226,8.0,4.0,09-26,1.2245826721191382
08-28,4.479999542236328,1.0550003051757741,-8.915000915527337,1.7999992370605469,5.959999084472656,-6.25,-4.269996643066406,-1.3899993896484375,12.889999389648438,7.6699981689453125,4.239997863769531,-9.829998016357429,7.0,5.0,09-27,0.6199998855590815
08-29,4.025001525878906,2.275001525878899,-7.4350013732910085,1.2749977111816477,7.1450042724609375,-7.739997863769517,-5.049995422363281,-1.8799972534179688,13.72000122070314,6.529998779296889,2.2899932861328125,-8.689998626708984,7.0,5.0,09-28,0.5387506484985393
08-30,3.470001220703132,1.845001220703118,-6.7949981689453125,2.354999542236328,7.165000915527344,-7.349998474121094,-5.519996643066406,-1.5100021362304688,13.650001525878906,6.399993896484389,2.5799942016601562,-7.8899993896484375,7.0,5.0,09-29,0.6999998092651379
08-31,4.064998626708977,2.454998016357422,-9.14999771118164,1.1499977111816477,6.8300018310546875,-5.830001831054702,-8.879997253417969,5.470001220703125,12.330001831054688,7.0799942016601705,0.9599990844726562,-7.900001525878913,8.0,4.0,09-30,0.7149995168050124
09-01,5.509998321533203,1.9399986267089773,-8.564998626708984,1.9399986267089844,6.150001525878906,-5.839996337890611,-5.8899993896484375,5.409996032714844,11.669998168945312,9.319999694824219,0.850006103515625,-9.020000457763679,8.0,4.0,10-01,1.12291685740153
09-02,6.795001983642571,2.1650009155273366,-7.029998779296875,1.3650016784667898,5.4250030517578125,-8.69000244140625,-4.909996032714844,5.049995422363281,10.949996948242188,9.889999389648438,0.09000396728515625,-7.760002136230469,8.0,4.0,10-02,1.1116669972737612
09-03,6.874999999999993,1.7449989318847656,-6.590000152587891,2.4350013732910227,6.8600006103515625,-10.889999389648423,-4.649993896484375,0.2200012207031108,10.869995117187486,11.810005187988281,-2.5499954223632812,-7.190002441406243,7.0,5.0,10-03,0.7454175949096674
09-04,6.520000457763665,2.1300010681152344,-7.974998474121094,2.9099998474121094,5.915000915527344,-7.760002136230469,-4.089996337890625,1.8799972534179688,11.30999755859375,12.319999694824219,-5.769996643066406,-7.200000762939453,7.0,5.0,10-04,0.849166870117187
09-05,3.7050018310546875,3.729999542236328,-9.274997711181634,1.2700004577636719,5.465003967285156,-8.330001831054688,-4.07000732421875,1.279998779296875,10.629997253417969,12.490005493164062,-5.799995422363281,-5.970001220703132,7.0,5.0,10-05,0.42708365122477215
09-06,3.5600013732910085,3.5050010681152344,-6.649997711181641,-0.6650009155273438,5.319999694824219,-4.350006103515611,-0.600006103515625,0.30999755859375,8.480003356933594,14.8800048828125,-6.6399993896484375,-6.020000457763672,6.0,6.0,10-06,0.9274997711181646
09-07,4.4350013732910085,4.310001373291016,-6.93499755859375,-0.8999977111816335,4.075004577636719,-4.840003967285156,2.9899978637695312,3.059997558593736,7.730003356933594,15.910003662109375,-9.160003662109375,-4.370002746582031,7.0,5.0,10-07,1.3587503433227528
09-08,5.470001220703125,4.125,-6.224998474121094,-0.4900016784667969,5.470001220703125,-6.32000732421875,5.17999267578125,1.9499969482421733,9.550003051757812,15.909996032714844,-9.080001831054688,-4.840000152587891,7.0,5.0,10-08,1.7249984741210926
09-09,5.134998321533196,4.5749969482421875,-4.259998321533203,-1.2449989318847656,4.590003967285156,-7.699996948242202,6.839996337890625,4.729995727539048,8.620002746582017,16.730003356933565,-10.239997863769531,-5.150001525878906,7.0,5.0,10-09,1.885416984558099
09-10,3.9449996948242188,3.1599998474121094,-3.7849998474121094,-1.2900009155273438,3.9800033569335938,-7.450004577636719,5.709999084472656,4.159996032714844,8.260002136230455,15.510002136230497,-11.369995117187486,-1.2900009155273438,7.0,5.0,10-10,1.628333409627281
09-11,4.380001068115234,3.1349983215332102,-5.604999542236328,-0.6899986267089915,2.1850051879882812,-8.5,6.6199951171875,3.459999084472642,8.569999694824219,16.1300048828125,-12.440002441406264,-2.3400001525878906,7.0,5.0,10-11,1.2420835494995093
09-12,6.30000305175782,3.5849990844726562,-3.3499984741210938,-1.7400016784667969,1.7649993896484375,-6.7600021362304545,10.610000610351562,4.30999755859375,8.30999755859375,9.52999877929689,-11.09000396728517,-1.5,7.0,5.0,10-12,1.6641658147176124
09-13,6.255001068115234,3.6349983215332102,-3.3050003051757812,-2.8400001525878906,2.5400009155273438,-9.950004577636719,10.870002746582031,5.650001525878892,5.8300018310546875,9.84999847412108,-10.800003051757827,-1.6099967956542969,7.0,5.0,10-13,1.3437499999999971
09-14,6.745002746582031,3.3550033569335938,-3.4000015258789062,-4.060001373291023,4.529998779296875,-12.080001831054688,9.599998474121094,7.850006103515611,5.150001525878906,8.650001525878906,-16.72999572753905,-0.9599990844726562,7.0,5.0,10-14,0.7208344141642247
09-15,4.884998321533196,3.5849990844726562,-4.725002288818359,-3.2849998474121094,6.595001220703125,-18.150001525878906,8.029998779296875,5.350006103515597,3.7099990844726562,4.080001831054702,-16.389999389648438,0.049999237060546875,8.0,4.0,10-15,-0.5220832824707049
09-16,4.104999542236335,3.875,-4.605003356933594,-3.8100013732910156,7.629997253417969,-21.3800048828125,5.839996337890625,5.330001831054673,3.599998474121108,4.6399993896484375,-17.449996948242188,-3.2400016784667898,7.0,5.0,10-16,-1.2887512842814115
09-17,4.435001373291023,4.819999694824219,-3.7700004577636648,-3.075000762939453,6.099998474121094,-17.020004272460923,6.1199951171875,5.4499969482421875,3.569999694824247,5.029998779296875,-11.970001220703125,-3.5699996948242045,7.0,5.0,10-17,-0.32333469390868547
09-18,4.790000915527351,5.63999938964843,-1.8899993896484304,-1.0699996948242045,5.25,-16.81000518798828,9.519996643066406,4.430000305175781,4.159996032714858,2.8100051879882812,-13.139999389648438,-3.0900001525878835,7.0,5.0,10-18,0.04999955495198923
09-19,5.930000305175781,6.154998779296875,-3.1749992370605398,0.8349990844726634,5.779998779296875,-16.200004577636733,10.620002746582031,3.7299957275390625,4.319999694824247,-0.029998779296875,-13.430000305175781,-0.7299995422363281,7.0,5.0,10-19,0.3170827229817732
09-20,5.764999389648445,6.799999237060547,-0.5500030517578125,0.8449974060058736,6.709999084472656,-10.47000122070311,10.980003356933594,2.7299957275390483,2.4800033569335938,0.9300003051757812,-12.819999694824219,-1.3900032043457031,8.0,4.0,10-20,1.0008325576782244
09-21,6.534999847412109,4.930000305175781,2.220001220703125,0.645000457763679,6.2649993896484375,-10.519996643066392,8.290000915527344,1.540000915527358,2.7700042724609375,0.6800003051757812,-13.360000610351577,-2.6200027465820384,9.0,3.0,10-21,0.6145839691162122
09-22,5.19000244140625,4.8800010681152415,5.560001373291016,0.7700004577636719,7.464996337890625,-8.979995727539034,9.650001525878906,2.4499969482422017,2.1100006103515767,-5.439994812011719,-15.689994812011719,-2.170001983642571,8.0,4.0,10-22,0.4829177856445372
09-23,5.365001678466804,5.2250022888183665,7.075000762939453,-0.06999969482421875,7.730003356933594,-4.80999755859375,10.739997863769531,5.309997558593764,-0.5299987792968608,-6.3199996948242045,-12.46999359130858,-1.2600021362304545,6.0,6.0,10-23,1.3320843378702871
09-24,6.444999694824226,4.0050010681152415,5.329998016357422,-0.5499992370605469,6.529998779296889,-10.069999694824219,10.519996643066406,5.650001525878906,0.5499954223632812,-7.739997863769517,-8.989997863769531,-1.5300025939941335,7.0,5.0,10-24,0.8458328247070354
09-25,7.0,3.775001525878899,6.970001220703132,-1.1299972534179688,3.529998779296875,-8.290000915527344,10.989997863769531,4.619995117187486,0.6800003051757812,-14.519996643066392,-4.829994201660156,-2.3300018310546804,7.0,5.0,10-25,0.538750330607097
09-26,5.6599998474121165,3.029998779296882,7.200000762939453,0.049999237060546875,3.1750030517578125,-9.809997558593736,16.37000274658203,4.360000610351577,-0.3899993896484517,-19.169998168945327,-3.149993896484375,-0.509998321533196,7.0,5.0,10-26,0.5679181416829445
09-27,4.51500320434571,3.104999542236328,4.454998016357422,-1.25,3.8550033569335938,-8.47000122070314,16.0,4.1100006103515625,-1.1699981689453125,-20.860000610351562,-3.0400009155273438,0.06999969482422586,7.0,5.0,10-27,0.1100002924601237
09-28,3.365001678466804,1.9850006103515625,6.564998626708984,-0.6750030517578054,6.0749969482421875,-9.770004272460952,13.959999084472656,-1.8199996948242188,-0.6699981689453125,-21.43000030517578,-2.25,-2.509998321533196,5.0,7.0,10-28,-0.5979172388712559
09-29,2.5649986267089844,0.9700012207031179,6.819999694824219,-1.7450027465820384,7.0800018310546875,-13.440002441406264,12.569999694824219,-2.910003662109361,-0.5899963378906108,-22.370002746582017,-1.7399978637695312,-1.6099967956542827,5.0,7.0,10-29,-1.2000001271565732
09-30,0.37999725341797586,1.3950004577636648,8.204998016357422,-1.7450027465820384,6.569999694824219,-7.519996643066406,11.989997863769531,-4.569999694824219,-0.26000213623046875,-22.9300079345703,-3.1699981689453125,-3.4300003051757884,5.0,7.0,10-30,-1.2570845286051433
10-01,1.6099967956542969,-0.20499801635742898,12.214996337890618,-0.8850021362304759,6.465003967285156,-3.720001220703139,11.200004577636719,-4.3700027465820455,1.2900009155273438,-27.45000457763672,0.2299957275390625,-2.3500022888183594,6.0,6.0,10-31,-0.49750105539958095
10-02,1.7549972534179759,-0.3899993896484304,13.384998321533196,-0.5250015258789062,3.9850006103515625,-3.9300003051758097,7.730003356933594,-5.309997558593764,2.3499984741210938,-24.489997863769517,-0.18000030517578125,-2.3000030517578196,5.0,7.0,11-01,-0.6600001653035505
10-03,1.6649971008300852,0.0,10.509998321533196,2.704998016357429,4.2649993896484375,-3.440002441406264,4.8699951171875,-5.69000244140625,3.3700027465820455,-25.040008544921875,-1.2199935913085938,-2.4899978637695312,6.0,6.0,11-02,-0.874584515889485
10-04,-0.42499923706053977,0.17499923706054688,6.10999679565429,2.5349998474121165,2.8700027465820312,-2.8699951171875,5.1999969482421875,-3.9799957275390625,5.959999084472656,-24.889999389648438,-1.2999954223632812,-2.2199974060058523,6.0,6.0,11-03,-1.0695823033650704
10-05,-0.27000045776366477,0.20499801635742898,9.619998931884766,3.2899971008300852,2.7849960327148438,-0.03999328613282671,5.4199981689453125,-6.439994812011719,5.7399978637695455,-25.71000671386716,-0.45000457763671875,-1.30999755859375,6.0,6.0,11-04,-0.5966676076253213
10-06,-0.7900009155273438,-4.939998626708984,8.75,3.529998779296868,3.0749969482421875,-1.7699966430664062,5.6100006103515625,-6.199996948242202,6.099998474121108,-22.94000244140628,1.3899993896484375,-0.970001220703125,6.0,6.0,11-05,-0.762916882832848
10-07,0.2950019836425781,-4.959999084472663,10.569999694824219,2.6899986267089844,5.31500244140625,-3.3300018310546875,2.7000045776367188,-5.5,6.449996948242202,-27.480003356933622,3.9300003051757812,-0.6699981689453125,7.0,5.0,11-06,-0.8324998219807961
10-08,-2.194999694824226,-5.409999847412109,10.30999755859375,3.4949989318847727,4.1349945068359375,1.5400009155273295,-0.5699996948242188,-5.209999084472656,8.0,-23.480003356933622,5.279998779296861,-1.6299972534179688,6.0,6.0,11-07,-0.4779173533121792
10-09,-2.1499977111816406,-5.63499832153321,11.134998321533203,5.465000152587898,2.55999755859375,4.1399993896484375,-0.8300018310546875,-5.4899978637695455,10.459999084472656,-25.020004272460938,2.8300018310547017,-1.5200004577636719,6.0,6.0,11-08,-0.3379170099894206
10-10,-1.2750015258789062,-5.474998474121101,10.879997253417969,5.25,0.8899993896484375,6.269996643066406,0.44000244140625,-3.8600006103515625,9.30999755859375,-17.31999969482422,2.5099945068359233,-2.6100006103515625,7.0,5.0,11-09,0.4174989064534487
10-11,-0.11500167846679688,-5.049999237060554,10.885002136230469,5.084999084472656,-1.1750030517578125,15.209999084472656,-0.7600021362304688,-2.690002441406236,7.400001525878906,-12.47000122070314,2.1699981689453125,-3.6299972534179616,5.0,7.0,11-10,1.238332748413086
10-12,0.9099998474121094,-3.4600028991699148,8.640003204345703,5.6100006103515625,-4.739997863769531,15.79000091552733,-0.6599960327148438,-2.870002746582017,7.680000305175781,-13.029998779296875,6.549995422363281,2.1000022888183594,7.0,5.0,11-11,1.8766670227050788
10-13,0.7750015258789134,-2.4350013732910227,9.005001068115234,2.759998321533203,-5.049995422363281,14.739997863769531,1.3000030517578125,-2.0699996948242188,7.709999084472642,-17.720001220703125,6.5099945068359375,3.5499992370605398,8.0,4.0,11-12,1.5895830790201806
10-14,-0.5950012207031321,-2.56500244140625,7.125,2.134998321533203,-4.805000305175781,14.910003662109375,-2.4599990844726562,-1.0500030517578125,7.569999694824219,-17.059997558593736,5.629997253417969,4.290000915527337,6.0,6.0,11-13,1.0937496821085613
10-15,-1.4449996948242188,-3.0800018310546946,9.314998626708984,2.2550010681152273,-6.43499755859375,9.389999389648452,-3.8199996948242188,-1.1500015258789205,7.370002746582031,-21.31999969482422,4.040000915527344,3.829998016357422,6.0,6.0,11-14,-0.08749993642171343
10-16,-1.279998779296882,-3.6100006103515625,11.29999923706054,0.7700004577636648,-6.4149932861328125,6.290000915527358,-4.180000305175781,-2.3699951171875,7.25,-23.740005493164077,4.430000305175781,4.490001678466797,6.0,6.0,11-15,-0.5887492497762062
10-17,-2.7449989318847656,-4.639999389648445,11.179996490478516,-0.9399986267089915,-5.964996337890625,6.339996337890639,-3.1199951171875,-1.0999984741210938,5.020004272460923,-22.06999969482422,5.8400039672851705,4.30000305175782,5.0,7.0,11-16,-0.6583318710327143
10-18,-2.924999237060547,-4.450000762939453,8.170001983642578,-0.6949996948242188,-7.1649932861328125,3.089996337890611,-2.55999755859375,1.4400024414062642,4.6999969482421875,-20.48000335693358,8.169998168945312,6.479999542236335,6.0,6.0,11-17,-0.5187498728434227
10-19,-1.9099998474121094,-4.215000152587898,6.4099998474121165,0.14500045776367188,-7.325004577636719,5.400001525878892,-0.01999664306640625,0.1600036621093608,5.5999984741210795,-19.599998474121094,4.6899948120117045,9.159999847412116,7.0,5.0,11-18,-0.12541675567627367
10-20,-2.2150001525878906,-4.9750022888183665,6.67500305175782,2.0250015258789062,-6.470001220703125,3.589996337890611,-1.8899993896484375,0.30999755859375,4.5200042724609375,-14.660003662109375,5.8199996948242045,9.069999694824212,7.0,5.0,11-19,0.14999961853027047
10-21,-2.1000022888183594,-4.315002441406243,5.034999847412109,2.279998779296875,-7.900001525878906,1.6399993896484375,1.3700027465820312,1.3400039672851705,4.459999084472656,-11.050003051757798,3.5999984741210795,10.229999542236321,8.0,4.0,11-20,0.38249937693278113
10-22,-1.354999542236321,-3.569999694824226,2.9699974060058594,3.25,-8.629997253417983,6.260002136230469,-0.6500015258789062,-1.2800064086914205,4.6699981689453125,-10.540000915527344,0.8300018310546875,8.419998168945312,6.0,6.0,11-21,0.03124936421712003
10-23,-0.21000289916991477,-2.674999237060547,3.3799972534179688,4.224998474121094,-5.760002136230469,4.930000305175781,-0.279998779296875,-0.4700012207031392,4.470001220703111,-5.410003662109389,0.1199951171875,7.840000152587891,6.0,6.0,11-22,0.8466653823852509
10-24,0.029998779296875,-2.25,2.4650001525878835,3.3500022888183594,-7.254997253417969,6.230003356933594,-0.7399978637695312,2.049995422363267,4.959999084472642,-3.779998779296875,0.089996337890625,10.419998168945312,8.0,4.0,11-23,1.297499974568682
10-25,-0.19499969482421875,-2.479999542236328,4.245002746582024,2.490001678466797,-8.260002136230469,11.010002136230455,-0.7600021362304688,3.0,5.510002136230469,-4.760002136230483,-0.42000579833984375,10.419998168945312,6.0,6.0,11-24,1.6499996185302706
10-26,0.6599998474121094,-1.625,3.7800025939941406,1.6550025939941406,-6.555000305175781,13.309997558593736,-0.8199996948242188,3.1299972534179688,4.7400054931640625,-4.199996948242202,2.2699966430664062,10.419998168945312,8.0,4.0,11-25,2.230416933695473
10-27,0.7050018310546875,-3.5300025939941335,1.0700035095214844,0.825000762939446,-6.135002136230469,11.129997253417983,-0.12999725341796875,3.529998779296889,3.19000244140625,3.9599990844726562,1.9399948120117188,10.7699966430664,9.0,3.0,11-26,2.2770827611287454
10-28,2.140003204345703,-3.1200027465820384,-0.09999847412109375,1.25,-6.614997863769531,8.059997558593764,0.34999847412109375,4.469993591308608,2.05999755859375,-1.340003967285142,2.4699935913085938,12.840000152587898,8.0,4.0,11-27,1.8720817565918004
10-29,1.3550033569335938,-3.5100021362304688,1.0900001525878906,0.0800018310546804,-7.944999694824219,3.6100006103515625,-0.37999725341796875,6.5800018310546875,2.1300048828125,0.5,1.7099990844726562,11.379997253417969,9.0,3.0,11-28,1.3833341598510736
10-30,3.4449996948242188,-3.134998321533203,0.7200012207031321,-0.704998016357429,-5.56500244140625,4.519996643066392,-0.7099990844726562,5.560005187988281,0.29000091552734375,-3.5600051879882812,2.2900009155273438,11.10999679565429,7.0,5.0,11-29,1.1883331934610986
10-31,3.8699989318847656,-3.575000762939453,3.079998016357422,-0.06999969482422586,-4.599998474121094,1.6899948120117188,-2.5400009155273438,3.0500030517578125,-0.03000640869142046,-1.5699996948242188,2.600006103515625,10.199996948242188,6.0,6.0,11-30,1.008749326070148
11-01,2.6300010681152344,-3.424999237060547,6.17500305175782,-0.2649993896484304,-4.8899993896484375,0.75,-4.0500030517578125,1.2799987792968608,-1.7900009155273438,-3.1200027465820312,0.7600021362304688,10.199996948242188,6.0,6.0,12-01,0.3545831044514974
11-02,2.2599983215332102,-4.395000457763679,3.849998474121101,0.5750007629394531,-8.515007019042969,-6.599998474121094,-2.6399993896484375,11.57999420166017,-2.4499969482422017,1.4199981689453125,-1.3400039672851562,10.199996948242188,6.0,6.0,12-02,0.32874838511149146
11-03,2.645000457763672,1.4949989318847585,1.8549995422363352,0.41500091552733664,-9.230003356933594,-6.0800018310546875,-4.399993896484375,10.439994812011719,-4.0,-0.8799972534179688,-2.7900009155273438,10.329998016357422,6.0,6.0,12-03,-0.01666704813639382
11-04,0.8949966430664062,1.6699981689453054,1.029998779296882,0.4050025939941406,-9.230003356933594,0.02000427246092329,-5.6100006103515625,10.719993591308608,-4.6399993896484375,-3.0400009155273295,-2.9000015258789062,9.30999755859375,7.0,5.0,12-04,-0.11416784922281782
11-05,-0.470001220703125,1.509998321533196,0.6800003051757812,0.21500015258789062,-7.125,-4.2999954223632955,-5.6100006103515625,11.319999694824219,-4.049995422363281,-3.0400009155273295,-5.2300033569335795,9.75,5.0,7.0,12-05,-0.5291665395100905
11-06,-1.6300010681152344,2.200000762939453,0.6949996948242259,-2.4000015258789062,-4.754997253417969,-7.169998168945327,-4.409996032714844,10.309997558593736,-5.909996032714858,0.779998779296875,0.6300048828125,10.7699966430664,6.0,6.0,12-06,-0.07416598002116241
11-07,-2.770000457763672,2.1399993896484446,0.470001220703125,-0.6399993896484375,-2.2249984741210938,-7.75,-4.3800048828125,11.029998779296875,-5.189994812011719,-5.0800018310546875,-2.6899948120117188,5.039997100830078,4.0,8.0,12-07,-1.0037498474121087
11-08,-2.6650009155273438,2.459999084472649,1.4899978637695312,1.4750022888183594,-1.9150009155273438,-5.5,-4.8800048828125,10.610000610351562,-5.470001220703125,-0.779998779296875,-2.649993896484375,5.039997100830078,5.0,7.0,12-08,-0.23208363850911518
11-09,-2.56500244140625,0.3600006103515554,2.3999977111816406,2.1000022888183594,-3.0349960327148438,-7.75,-9.180000305175781,10.099998474121094,-5.9199981689453125,-1.4400024414062642,-3.2300033569335938,5.039997100830078,5.0,7.0,12-09,-1.09333388010661
11-10,-2.9650001525878906,-0.8400001525878835,1.4949989318847656,1.799999237060554,-5.7050018310546875,-10.30999755859375,-9.470001220703125,10.90000152587892,-5.720001220703125,0.8799972534179545,0.1399993896484375,3.1599998474121165,6.0,6.0,12-10,-1.3862504959106428
11-11,-2.279998779296868,-0.9550018310546875,-0.49000167846678977,1.2949981689453196,-6.654998779296875,-9.599998474121094,-4.94000244140625,12.1199951171875,-4.739997863769531,2.3600006103515625,0.69000244140625,3.4399986267089844,5.0,7.0,12-11,-0.8129170735677066
11-12,-1.5849990844726491,0.0749969482421946,-1.5699996948242259,1.4850006103515696,-3.8950042724609375,-10.76999664306642,-3.3100051879882812,12.25,-4.069999694824219,0.45999908447265625,1.5499954223632812,4.859996795654297,6.0,6.0,12-12,-0.37666797637939453
11-13,-1.404998779296868,-0.09999847412109375,-0.009998321533203125,1.7250022888183594,-6.600006103515625,-9.05999755859375,-3.8700027465820312,13.76999664306642,-3.25,3.5500030517578125,2.05999755859375,2.6800003051757812,5.0,7.0,12-13,-0.04250017801920395
11-14,-1.9300003051757812,-0.8400001525878906,-1.359996795654304,3.6899986267089915,-6.7050018310546875,-11.370002746582031,-6.6100006103515625,13.150001525878906,-2.19000244140625,5.8600006103515625,2.3199996948242188,0.0,4.0,8.0,12-14,-0.49875036875406903
11-15,-2.2399978637695312,-0.8650016784667969,-1.9300003051757812,2.2899971008300852,-7.560005187988281,-9.489997863769531,-9.900001525878906,13.440002441406264,-1.4199981689453267,2.3400039672851562,1.1899948120117188,0.0,4.0,8.0,12-15,-1.178750356038411
11-16,-0.06999969482421875,0.299999237060554,-3.760002136230476,2.0349998474121165,-5.0800018310546875,-9.979995727539062,-7.930000305175781,8.989997863769531,-1.4899978637695455,-1.2699966430664205,5.4499969482421875,0.0,4.0,8.0,12-16,-1.0670833587646502
11-17,0.9099998474121023,-0.02499771118163352,-1.9249992370605469,-0.04999923706055398,-4.75,-11.010002136230469,-5.680000305175781,11.870002746582031,-1.6999969482422017,-2.8799972534179688,4.2299957275390625,0.0,3.0,9.0,12-17,-0.9174995422363299
11-18,2.2849998474121094,-0.9949989318847585,-2.3349990844726562,0.18999862670899148,-4.3899993896484375,-12.199996948242188,-9.349998474121094,11.05999755859375,-1.8000030517577983,-5.629997253417969,6.650001525878906,0.0,4.0,8.0,12-18,-1.3762496312459287
11-19,3.194999694824226,-1.4199981689453054,-0.7849998474120952,1.1800003051757812,-4.120002746582031,-7.19000244140625,-6.849998474121094,8.25,-2.8899993896484375,-9.5,8.409996032714844,0.0,4.0,7.0,12-19,-0.9766670862833635
11-20,3.4199981689453196,-0.9949989318847727,0.8349990844726634,3.259998321533203,-2.4599990844726562,-8.300003051757798,-6.829994201660156,8.330001831054688,-1.5299987792968608,-8.34999847412108,8.529998779296875,0.0,5.0,6.0,12-20,-0.34083302815754796
11-21,2.174999237060547,-0.41500091552734375,-0.2200012207031179,2.154998779296875,-3.654998779296875,-10.59999847412108,-9.269996643066406,7.810005187988281,-0.23000335693359375,-13.019996643066406,7.269996643066406,0.0,4.0,7.0,12-21,-1.4999996821085595
11-22,2.384998321533203,-0.5200004577636719,1.4949989318847656,1.729999542236321,-4.0749969482421875,-7.1100006103515625,-11.139999389648438,7.890007019042969,1.9500045776367188,-7.719993591308608,7.599998474121094,0.0,6.0,5.0,12-22,-0.6262486775716164
11-23,3.2550010681152415,1.4750022888183594,3.2849998474121094,1.729999542236321,-1.9300003051757812,-4.540000915527358,-12.319999694824219,5.550003051757798,1.8799972534179688,-7.719993591308608,7.730003356933594,0.0,7.0,4.0,12-23,-0.1337490081787145
11-24,4.609996795654297,0.9249992370605469,3.654998779296868,3.8600006103515696,-0.33499908447265625,-4.5,-15.330001831054688,6.5699996948242045,1.8799972534179688,-12.800003051757812,9.140007019042969,0.0,7.0,4.0,12-24,-0.19375038146972776
11-25,4.029998779296875,1.3650016784667969,3.654998779296868,3.8600006103515696,-0.33499908447265625,-1.6800003051757528,-13.720001220703125,6.5699996948242045,3.720001220703125,-12.800003051757812,9.140007019042969,0.0,7.0,4.0,12-25,0.31708367665608844
11-26,5.269996643066406,1.3650016784667969,1.2950019836425781,3.4599990844726562,-0.7900009155273438,2.3400039672851562,-12.209999084472656,9.080001831054673,6.529998779296875,-15.279998779296875,11.469993591308594,0.0,8.0,3.0,12-26,1.0441665649414051
11-27,5.269996643066406,1.4899978637695312,1.3700027465820312,3.8449974060058594,0.9150009155273438,9.69000244140625,-12.209999084472656,9.65999603271483,7.290000915527344,-19.08999633789064,11.459999084472656,0.0,9.0,2.0,12-27,1.640833218892413
11-28,6.700000762939446,1.1149978637695312,1.3400001525878906,2.6000022888183523,1.6299972534179688,9.69000244140625,-9.739997863769531,8.55999755859375,9.57000732421875,-14.779998779296875,12.909996032714844,0.0,9.0,2.0,12-28,2.466250419616698
11-29,7.045001983642571,0.45000076293946023,0.3899993896484304,1.9550018310546804,1.6299972534179688,6.810005187988267,-10.010002136230469,10.099998474121108,7.8600006103515625,-16.480003356933594,12.909996032714844,0.0,9.0,2.0,12-29,1.8883330027262357
11-30,6.720001220703118,0.5150032043457031,-3.6499977111816406,1.9650001525878764,1.5100021362304688,6.5800018310546875,-12.94000244140625,-0.8699951171875,6.040000915527344,-14.319999694824233,12.860000610351562,0.0,7.0,4.0,12-30,0.3675012588500947
12-01,5.489997863769531,-0.21999740600584516,-3.0449981689453054,2.1949996948242045,2.0800018310546875,7.090003967285156,-12.960006713867188,-3.0999984741210938,5.4499969482421875,-19.31999969482422,12.349998474121094,0.0,6.0,5.0,12-31,-0.3325001398722325
12-02,6.090000152587891,-1.3349990844726491,-3.05999755859375,2.1949996948242045,2.0800018310546875,4.029998779296889,-9.770004272460938,-2.089996337890611,7.309997558593764,-19.31999969482422,12.349998474121094,0.0,6.0,5.0,01-01,-0.12666670481363637
12-03,6.204998016357422,-1.2749977111816406,-2.834999084472649,0.6850013732910085,0.9350051879882812,0.8999938964844034,-9.900001525878906,-2.80999755859375,7.399993896484403,-20.590003967285156,13.610000610351548,0.0,6.0,5.0,01-02,-0.6395839055379197
12-04,6.099998474121094,-1.3149986267089773,-2.029998779296882,1.8050003051757812,0.3549957275390625,-0.3000030517577983,-9.400001525878906,-3.1800003051757812,6.860000610351577,-16.860000610351562,11.709999084472656,0.0,5.0,6.0,01-03,-0.5212507247924781
12-05,5.770000457763679,-1.4849967956542898,-1.799999237060554,2.479999542236328,1.2299957275390625,1.9499969482422017,-5.5800018310546875,-3.3600006103515625,8.400001525878892,-11.519996643066392,13.170005798339844,0.0,6.0,5.0,01-04,0.7712504069010434
12-06,5.015003204345696,-1.0149993896484304,-1.720001220703125,2.6599998474121094,3.9000015258789062,3.8799972534179688,-5.400001525878906,-0.43000030517578125,12.069999694824219,-11.519996643066392,9.800003051757812,0.0,6.0,5.0,01-05,1.4366671244303397
12-07,6.555000305175774,-0.2849998474121094,-0.720001220703125,3.1650009155273438,3.44000244140625,4.049995422363267,-6.510002136230469,0.09000396728517046,11.209999084472656,-13.0,9.629997253417969,0.0,7.0,4.0,01-06,1.4687496821085606
12-08,6.950000762939453,0.06500244140625,0.47999954223633523,3.2249984741210938,3.2099990844726562,-1.5100021362304688,-6.980003356933594,-1.3099975585937358,10.540000915527344,-11.739997863769531,10.479995727539062,0.0,7.0,4.0,01-07,1.1174996693929053
12-09,6.895000457763665,0.049999237060546875,-1.0800018310546875,4.034999847412102,2.94000244140625,-4.94000244140625,-11.05999755859375,-2.8299942016601562,9.739997863769545,-7.790000915527344,13.930000305175781,0.0,6.0,5.0,01-08,0.8241669336954752
12-10,6.405002593994141,0.7900009155273438,0.549999237060554,4.129997253417976,3.7700042724609375,-3.1100006103515625,-10.860000610351562,-1.6500015258789062,10.959999084472656,-7.199996948242173,14.450004577636719,0.0,7.0,4.0,01-09,1.5195840199788435
12-11,6.715000152587891,1.0600013732910156,0.6899986267089915,2.704998016357422,5.260002136230469,-3.1800003051757812,-7.569999694824219,-0.6200027465820312,11.5,-6.5500030517578125,12.669998168945312,0.0,7.0,4.0,01-10,1.8899993896484382
12-12,4.08000183105468,1.7800025939941335,0.5599975585937571,1.9449996948242045,4.209999084472656,-2.69000244140625,-11.400001525878906,-2.8100051879882812,11.430000305175781,-4.7399978637695455,10.629997253417969,0.0,7.0,4.0,01-11,1.0829159418741832
12-13,4.33000183105468,2.125,3.509998321533203,3.05999755859375,3.8799972534179688,1.5400009155273438,-11.34000396728517,-4.610000610351577,12.069999694824247,-3.6399993896484517,11.849998474121094,0.0,8.0,3.0,01-12,1.897915840148924
12-14,3.875,2.5400009155273438,5.0,2.8199996948242045,3.6299972534179688,2.1200027465820312,-13.19000244140625,0.7099990844726562,12.370002746582045,-0.8899993896484517,10.339996337890625,0.0,9.0,2.0,01-13,2.4437497456868478
12-15,1.809997558593757,4.18499755859375,4.364997863769524,2.5649986267089844,3.5349960327148438,-0.8299942016601562,-14.3800048828125,1.0,13.459999084472685,2.910003662109389,8.359992980957031,0.0,9.0,2.0,01-14,2.248332023620609
12-16,2.225002288818345,3.9899978637695455,2.7449989318847656,2.3299980163574148,1.8600006103515625,-0.410003662109375,-11.6300048828125,0.9199981689453125,12.099998474121108,0.6600036621093892,7.609992980957031,0.0,9.0,2.0,01-15,1.8666652043660499
12-17,2.6150016784667898,3.4099998474121165,3.799999237060547,1.845001220703125,4.475006103515625,-3.4000015258789062,-9.1300048828125,1.4399948120117188,15.229995727539062,2.3000030517578267,7.5200042724609375,0.0,9.0,2.0,01-16,2.5087499618530287
12-18,2.4050025939941335,3.5149993896484446,4.154998779296868,0.5900001525878906,4.180000305175781,-4.7099990844726705,-7.260002136230469,1.8899993896484517,15.789993286132827,4.579994201660142,6.150001525878906,0.0,9.0,2.0,01-17,2.607082366943359
12-19,1.5349998474120952,3.200000762939453,3.7350006103515625,1.460002899169929,2.5149993896484375,-7.279998779296875,-6.0800018310546875,1.9099960327148438,11.959999084472656,5.689994812011719,5.489997863769531,0.0,9.0,2.0,01-18,2.0112492243448887
12-20,1.654998779296868,4.560001373291016,2.875,0.5,0.9199981689453125,-7.319999694824233,-4.989997863769531,2.3199996948242188,9.989997863769531,8.930000305175781,4.079994201660156,0.0,9.0,2.0,01-19,1.9599994023640932
12-21,1.0900001525878906,5.614997863769524,3.595001220703132,0.9000015258789134,1.3700027465820312,-8.52999877929689,-7.279998779296868,2.849998474121108,7.180000305175781,11.409996032714844,3.3600006103515625,0.0,9.0,2.0,01-20,1.7966667811075858
12-22,-0.20999908447265625,4.620002746582038,3.520000457763679,1.3000030517578196,1.2400054931640625,-4.75,-8.829998016357422,2.2700042724609517,6.4199981689453125,15.80999755859375,3.6399993896484375,0.0,8.0,3.0,01-21,2.0858345031738312
12-23,-1.779998779296875,4.995002746582038,3.5500030517578196,1.6300010681152344,0.6700057983398438,-7.0800018310546875,-13.450000762939453,3.3700027465820312,4.829994201660142,16.190002441406236,1.9300003051757812,0.0,8.0,3.0,01-22,1.2379175821940092
12-24,-2.125,5.659999847412109,3.0349998474121165,2.0100021362304688,0.4850006103515625,-3.5100021362304545,-13.179996490478516,2.650001525878892,4.9599990844726705,18.190002441406236,0.23000335693359375,0.0,8.0,3.0,01-23,1.5337508519490566
12-26,-1.6700019836425781,5.79999923706054,3.2949981689453196,1.5999984741211009,1.8499984741210938,-3.279998779296875,-6.739997863769531,0.9199981689453125,8.42999267578125,7.5800018310546875,-0.5600051879882812,0.0,7.0,4.0,01-25,1.4354152679443366
12-27,-2.9399986267089915,5.805000305175774,2.770000457763672,1.5600013732910227,1.279998779296875,-3.970001220703125,-4.470001220703139,1.1399993896484375,10.110000610351562,7.779998779296875,-0.0500030517578125,0.0,7.0,4.0,01-26,1.5845829645792626
12-28,-2.479999542236328,4.944999694824226,5.18499755859375,3.0699996948242188,0.9099960327148438,-3.5400009155273438,-8.89999771118164,2.25,10.020004272460923,9.050003051757812,-0.55999755859375,0.0,7.0,4.0,01-27,1.662500381469726
12-29,-3.0649986267089844,5.544998168945305,4.379997253417983,2.099998474121101,-0.910003662109375,-2.0,-5.059997558593736,2.6200027465820312,10.55999755859375,10.02999877929686,-2.5400009155273438,0.0,6.0,5.0,01-28,1.804999351501466
12-30,-3.2099990844726634,5.2649993896484375,4.149997711181655,2.2399978637695312,-2.625,0.3000030517577983,-4.540000915527344,2.8000030517578125,8.149993896484403,11.889999389648438,-5.75,0.0,7.0,4.0,01-29,1.5558328628540057
12-31,-2.4550018310546804,5.43499755859375,1.6500015258789062,1.7049980163574219,-0.30999755859375,-3.970001220703125,-4.720001220703125,0.8499984741210938,8.459999084472685,10.889999389648438,-6.709999084472656,0.0,6.0,5.0,01-30,0.9020827611287464
