,2009,2010,2011,2012,2013,2014,2015,2016,2017,2018,2019,2020,ups,downs,end_day_sum,avg
01-02,-1.0267591476440394,-0.6472606658935547,-0.6134681701660085,1.8765716552734304,0.7408599853515625,-2.5706558227539062,-3.4764480590820312,-5.3976898193359375,6.3326873779296875,0.33209991455078125,3.242446899414034,-8.028526306152344,5.0,7.0,02-01,-0.7696785132090271
01-03,-1.5168037414550817,-0.7815971374511719,-0.17227554321289062,1.9240226745605398,1.0936431884765625,-2.7811508178710938,1.0120773315429688,-2.6114883422851562,4.4459686279296875,0.5123825073242045,6.832305908203111,-6.153892517089844,6.0,6.0,02-02,0.15026601155598632
01-04,-2.216863632202152,-0.4396400451660121,1.0840530395507812,2.3985748291015554,0.3351707458496094,-1.2763671875,-0.272308349609375,-2.1793060302734375,3.07293701171875,1.1955413818359233,4.960166931152315,-5.869239807128892,6.0,6.0,02-03,0.06605990727742217
01-05,-2.251872062683109,-0.2849540710449219,0.5252304077148438,2.7264251708984375,-0.17195892333984375,-2.3109054565429688,0.11347961425779829,-4.845954895019531,4.6140899658203125,-0.1802825927734375,5.01806640625,-9.078681945800753,5.0,7.0,02-04,-0.5106098651885977
01-06,-3.1230621337890607,-0.9688434600830043,0.6512680053710938,2.6315231323242188,1.014240264892571,-4.7696075439453125,1.8017501831054545,-1.2505874633789062,4.642097473144531,-1.0437316894531392,5.336509704589844,-7.6064682006835795,6.0,6.0,02-05,-0.22374264399210744
01-07,-2.5941276550293004,-1.082834243774414,1.1890945434570241,2.359741210937507,0.2998619079589844,-4.944282531738281,1.6020889282226562,-0.1287384033203125,3.9509124755859375,-2.9509201049804545,5.80938720703125,-5.447227478027344,6.0,6.0,02-06,-0.1614203453063956
01-08,-3.002492904663086,-1.0339832305908132,1.2689361572265625,2.9723281860351562,-0.8202285766601562,-5.48614501953125,-1.1028594970702983,0.5700912475585938,4.287170410156264,-6.395202636718736,5.732177734375,-3.4842605590820312,5.0,7.0,02-07,-0.5412057240803995
01-09,-2.6602401733398438,-1.6079826354980469,1.3739852905273366,2.8256454467773438,-1.3537826538085938,-5.781730651855469,0.2178497314452983,1.149444580078125,3.3344573974609375,-4.042091369628906,4.439056396484361,-3.7296295166015625,6.0,6.0,02-08,-0.48625151316325166
01-10,-1.9135074615478533,-1.359659194946289,1.4748153686523438,2.213054656982422,-1.5169448852539062,-5.983268737792969,1.8698425292968892,-1.4528579711914062,3.3811874389648438,-2.3531494140625,3.3292999267578125,-3.1701736450195312,5.0,7.0,02-09,-0.4567801157633453
01-11,-1.345667839050293,-1.6283378601074254,1.974822998046868,2.1613082885742188,-1.6624488830566406,-3.9589920043945312,2.092216491699247,-4.4137725830078125,3.2410659790039062,-3.2640457153320455,4.091667175292969,-4.769996643066406,5.0,7.0,02-10,-0.6235150496164955
01-12,-1.291232109069826,-0.679824829101566,1.4622077941894531,1.5573463439941406,-1.3493728637695312,-2.3377761840820312,0.2586822509765767,-3.7977142333984375,3.0168991088867188,-3.833343505859375,2.7888717651367188,-6.487586975097642,5.0,7.0,02-11,-0.8910702864329001
01-13,-1.6762647628784197,-0.7001819610595703,1.6596946716308594,1.7644119262695312,-0.948070526123054,-1.71527099609375,0.567291259765625,-1.572418212890625,3.5305938720703125,-6.015655517578111,2.7985382080078267,-8.175735473632812,5.0,7.0,02-12,-0.8735889593760157
01-14,-1.1317663192749023,-1.2375354766845703,1.4075851440429759,1.7212753295898438,-0.7408332824707102,-2.5661773681640625,0.5673370361327983,-2.050567626953125,3.8855361938476562,-4.0515365600585795,2.663421630859389,-7.832206726074219,5.0,7.0,02-13,-0.7804556687672921
01-15,-1.5751390457153285,-0.9362983703613246,1.8193626403808594,1.2036056518554688,-1.627185821533196,-2.2123870849609375,0.9167938232422017,-0.5149459838867188,4.268486022949219,-2.5239105224609233,6.378753662109389,-8.224815368652372,5.0,7.0,02-14,-0.25230669975280523
01-16,-1.5829133987426758,-1.8237380981445277,2.1807174682617188,1.311443328857429,-0.00880813598632102,-0.85540771484375,-0.9802780151367188,-0.23909759521484375,4.520698547363281,-1.9735794067382812,5.162818908691392,-4.956489562988281,4.0,8.0,02-15,0.06294719378153513
01-17,-0.8711843490600604,-1.6283340454101598,2.2269287109375,1.069866180419929,-1.2656173706054688,-1.6660003662109375,0.027252197265625,-2.1425399780273438,5.23052978515625,1.726898193359375,0.511451721191392,-6.016487121582031,6.0,6.0,02-16,-0.2331030368804942
01-18,-1.0423135757446307,-1.5754165649414098,2.1681060791015625,0.26313018798828836,-1.5963211059570241,-1.898895263671875,2.2102203369140625,0.1654815673828125,4.867469787597642,-1.9830780029296875,2.3739471435546733,-3.464630126953111,6.0,6.0,02-17,0.0406417051951086
01-19,-1.3184528350830096,-1.1439056396484375,2.716693878173828,1.1863174438476634,-1.6139602661132741,-1.2405548095703125,3.9076004028320312,1.857452392578125,4.110908508300753,-2.0115432739257812,3.4161376953124716,-5.3294296264648295,6.0,6.0,02-18,0.3781053225199356
01-20,-2.03018856048584,-0.3141670227050781,3.3175430297851562,0.685894012451179,-1.6624641418457031,-0.49263763427734375,3.49005126953125,1.6981353759765625,2.7098693847655966,-0.43647003173828125,2.808174133300753,-5.633697509765611,6.0,6.0,02-19,0.34500352541605334
01-21,-2.269857406616211,1.326375961303711,2.985607147216804,0.9404182434082102,-1.4904937744140625,-1.5271759033203125,4.031524658203125,3.1693801879882812,1.5516891479492045,-0.1316680908203125,4.593460083007798,-6.4384994506835795,7.0,5.0,02-20,0.5617300669352213
01-22,-1.8148164749145508,0.9925727844238317,2.4982032775878906,1.5742530822753906,-3.1132736206054688,0.2299957275390625,2.5247268676757812,2.0291519165039062,1.8048934936523438,-0.16024017333984375,4.226753234863281,-6.517044067382827,8.0,4.0,02-21,0.3562646706898998
01-23,-1.7836971282958984,0.6435565948486328,2.8153152465820312,1.8868255615234375,-4.994377136230469,0.350921630859375,4.131370544433594,3.6280593872070312,2.367523193359361,-1.3301162719726562,7.420959472656264,-6.615180969238281,8.0,4.0,02-22,0.7100966771443685
01-24,-1.9043941497802752,0.7955150604248047,3.1070518493652344,1.7483787536621094,-5.245716094970703,2.7200698852539062,3.7900238037109375,4.4957427978515625,1.501197814941392,-2.7241058349609375,7.256896972656264,-6.173515319824219,8.0,4.0,02-23,0.7805954615275064
01-25,-2.204604148864748,0.6271324157714844,1.6913604736328054,1.277679443359375,-5.34716796875,2.7673110961914062,4.308868408203125,5.501922607421875,1.9955368041991903,-3.9291229248047017,6.021682739257827,-3.0312881469726562,8.0,4.0,02-24,0.8066092332204152
01-26,-2.83267879486084,0.8243637084961009,0.9673004150390625,1.5322036743163991,-4.124011993408203,3.2705459594726562,4.2406005859375,2.4425048828125,1.2763290405273295,-5.124664306640625,6.671943664550781,-3.474845886230483,8.0,4.0,02-25,0.4724659125010149
01-27,-2.388557434082033,1.2785720825195312,1.3328514099121094,1.4329833984375,-3.1319122314453125,2.663970947265625,5.2122039794921875,2.987884521484375,1.117561340332017,-3.0932693481445312,7.9416656494140625,-7.0627593994140625,8.0,4.0,02-26,0.6909329096476223
01-28,-3.27835750579834,1.4821186065673828,1.6227798461913991,1.4297637939453196,-4.026561737060547,4.015296936035156,6.626762390136719,3.6407546997070312,0.9112701416015625,-1.5692291259765625,8.794609069824219,-13.672218322753906,8.0,4.0,02-27,0.49808239936828613
01-29,-2.683300018310547,1.616455078125,0.9279060363769602,1.1996726989746094,-3.43988037109375,4.730865478515625,4.825004577636719,0.85455322265625,1.5770492553710938,-1.5025482177734375,7.218017578125,-13.605789184570298,8.0,4.0,02-28,0.14316717783610203
01-30,-1.9832401275634766,0.8473815917968714,1.5536575317382812,1.7510108947753906,-2.1969566345214844,4.072517395019531,6.1093902587890625,1.6500625610351562,0.7706298828125,-2.4595489501953125,7.3464431762695455,-13.30153656005858,8.0,4.0,02-29,0.3466509183247905
01-31,-2.1615390777587873,1.0445117950439418,1.9553337097167969,1.6992225646972656,-1.1562461853027344,5.1070556640625,5.800979614257827,2.7116470336914062,2.638580322265625,-5.5538864135742045,6.970085144042969,-10.092094421386719,8.0,4.0,03-01,0.7469708124796574
02-01,-2.311640739440918,1.389486312866211,0.95782470703125,0.417694091796875,-2.342445373535149,7.817359924316406,5.591606140136719,1.207000732421875,2.9313278198242188,-4.5006637573242045,6.651641845703125,-16.985580444335938,8.0,4.0,03-02,0.06863427162170588
02-02,-2.71455669403076,1.308868408203125,1.433349609375,0.8749771118163991,-1.6280670166015625,9.673049926757812,6.647537231445327,6.367256164550781,2.91265869140625,-2.593475341796889,5.984916687011719,-16.13788604736328,8.0,4.0,03-03,1.0107190608978265
02-03,-2.618786811828615,1.7456741333007777,1.2442665100097656,0.26239013671875,-1.5616302490234375,9.331558227539062,3.7706375122070455,4.233055114746094,2.5764007568359233,-0.41605377197268467,6.750633239746094,-15.290199279785156,8.0,4.0,03-04,0.8356621265411347
02-04,-1.970247268676756,2.3481616973876953,1.1392173767089915,1.0211982727050781,-1.2161712646484304,10.572227478027344,3.8851165771484375,3.6905136108398438,2.67578125,-1.235221862792983,5.393669128417969,-17.36498260498047,8.0,4.0,03-05,0.7449385325113932
02-05,-2.4330615997314418,2.0998382568359375,1.7698402404785156,0.9517288208007812,-0.6858062744140696,10.289100646972656,2.55987548828125,6.292816162109375,2.3757247924804688,1.1556091308593608,4.078681945800781,-16.13294219970703,9.0,3.0,03-06,1.0267837842305487
02-06,-3.000901222229002,2.356204986572269,1.2751693725585938,0.5696983337402344,-1.0092086791992188,9.527763366699219,2.337501525878892,10.149116516113281,1.5692596435546875,1.4772720336914205,4.76300048828125,-15.642196655273438,9.0,3.0,03-07,1.1977233091990158
02-07,-4.019172668457031,2.5122642517089915,0.8312149047851562,-0.12384414672851562,-0.8504409790039134,7.906547546386719,4.221099853515625,12.170669555664062,1.0913467407226562,1.2683334350585938,5.969268798828139,-13.924606323242202,8.0,4.0,03-08,1.4210567474365234
02-08,-3.647856712341307,2.61904335021973,1.1161689758300781,-0.20974349975585938,-1.2517433166503906,7.553642272949219,2.637237548828125,12.982994079589844,6.680480957031236,4.9023895263671875,5.959602355957031,-17.47045135498047,8.0,4.0,03-09,1.8226470152537022
02-09,-3.6162567138671875,1.7619228363037145,0.8872146606445312,-0.3909263610839844,-1.4501113891601634,7.5222015380859375,2.782867431640625,10.03387451171875,6.652473449707017,2.9382705688476562,5.406547546386719,-18.653282165527358,8.0,4.0,03-10,1.1562329928080217
02-10,-1.6288814544677717,1.8379878997802699,0.4544334411621094,0.12674331665039062,-0.621906280517571,7.62554931640625,0.03567504882813921,10.422798156738281,6.2695236206054545,1.772613525390625,5.202995300292969,-22.635452270507812,9.0,3.0,03-11,0.7385066350301113
02-11,-1.5303106307983398,1.642583847045902,0.09307861328125,1.0564689636230398,-0.42702102661133523,5.821098327636719,-1.0885772705077983,12.326240539550781,2.3602218627929688,3.915794372558608,6.821647644042969,-19.171241760253906,8.0,4.0,03-12,0.9849986235300715
02-12,-1.3591814041137695,1.589666366577152,-0.6296119689941406,0.9826622009277273,1.4541473388671875,5.417579650878906,-3.271545410156236,10.018218994140625,1.5725250244140767,2.78228759765625,3.887367248535142,-24.51193237304689,8.0,4.0,03-13,-0.1723180611928307
02-13,-1.0830421447753906,0.9897708892822301,-0.1856689453125,1.1215858459472585,1.3352470397949148,4.759239196777344,-4.9689254760742045,8.907798767089844,2.1258087158203125,1.8604736328125284,3.7916259765625284,-22.64713287353517,8.0,4.0,03-14,-0.3327682813008588
02-14,0.19356536865234197,1.347070693969723,-0.041919708251953125,1.8928184509277273,1.3837509155273438,4.011322021484375,-2.4941635131835795,10.84628295898436,0.5251235961914062,-0.7906036376953125,4.399589538574247,-22.34286499023439,8.0,4.0,03-15,-0.08916902542114258
02-15,-0.335757255554201,1.4826011657714808,-0.4228019714355469,1.6236495971679616,1.2117805480957031,4.012420654296875,-3.3088607788085795,10.597053527832031,2.381828308105483,-1.0954055786132812,2.6143035888672017,-28.506866455078125,7.0,5.0,03-16,-0.8121712207794166
02-16,-0.3594579696655309,1.5442066192626953,-1.3445205688476634,0.9898147583007812,3.1490211486816406,3.8641357421875,-2.321189880371108,10.615509033203125,2.1286239624023438,-1.06683349609375,1.381752014160142,-24.27826690673828,7.0,5.0,03-17,-0.47476712862650877
02-17,0.047406196594236505,1.6797351837158203,-1.661632537841804,0.6772422790527344,2.7371139526367188,4.484222412109375,-3.6046676635742188,10.717071533203125,1.5659942626953267,-1.0668334960937358,1.720985412597642,-35.87980651855469,8.0,4.0,03-18,-1.5485974152882889
02-18,0.3555183410644531,1.5565299987792969,-1.953369140625007,0.7249984741210938,2.648540496826172,5.3828582763671875,-3.0039291381835938,11.003219604492188,0.581382751464858,-0.4476928710937358,2.6126861572265483,-35.68266296386719,8.0,4.0,03-19,-1.3518266677856439
02-19,0.6162271499633807,1.404571533203125,0.0422821044921875,0.7032890319824219,2.546661376953125,3.63946533203125,-2.6671218872070312,10.135536193847656,1.3971862792968892,-2.0765151977539062,2.5642318725585795,-45.43030548095703,9.0,3.0,03-20,-2.2603743076324463
02-20,0.9164371490478533,1.0965576171875036,0.16912841796875,1.0809822082519531,4.207546234130859,2.8801345825195312,-3.1859664916992188,11.704765319824219,2.409934997558608,-1.476432800292983,1.5120391845702983,-45.775306701660156,9.0,3.0,03-21,-2.038348356882732
02-21,1.5879583358764648,1.1745834350585938,0.6341896057128906,0.8508834838867188,4.840900421142578,2.3768997192382812,-4.697013854980483,11.243217468261719,1.3878173828125284,-1.590728759765625,0.668792724609375,-45.33174896240233,9.0,3.0,03-22,-2.237854083379107
02-22,1.433903694152832,1.4004631042480469,0.43549346923828125,1.015869140625,3.8488006591796875,2.7947540283203125,-3.3816604614257812,11.233993530273438,1.3503189086914205,-1.8193283081054688,-0.6009292602539062,-38.15592956542969,8.0,4.0,03-23,-1.7036875883738187
02-23,2.3384828567504883,1.8891944885253835,0.7314491271972656,0.8422088623046804,3.095855712890625,2.9655075073242188,-4.578674316406236,13.818603515625,1.5472488403320312,-3.3433685302734375,0.31015777587892046,-35.04115295410156,9.0,3.0,03-24,-1.2853739261627186
02-24,1.6235055923461932,1.3676128387451207,0.9851303100585866,1.0722999572753906,2.5112380981445312,2.1073226928710938,-5.13397216796875,13.0709228515625,0.8814697265625,-5.9247283935546875,-5.4568939208984375,-42.157814025878906,8.0,4.0,03-25,-2.9211588700612388
02-25,1.9355688095092773,1.7947292327880895,0.3593788146972656,0.008689880371100855,1.5900077819824219,0.9435882568359375,-6.0123672485351705,11.843231201171875,2.0348281860351562,-7.6678466796875,-5.0982742309570455,-27.18523406982422,8.0,4.0,03-26,-2.1211416721344007
02-26,2.148876190185545,1.5975990295410192,0.12683868408203125,0.3082466125488281,0.6023330688476562,-1.2221527099609375,-6.089744567871108,10.781646728515625,1.2565383911132812,-5.334167480468764,-3.014373779296875,-23.045349121093764,7.0,5.0,03-27,-1.8236424128214554
02-27,2.298977851867676,0.9487133026123011,0.4481658935546875,1.0723152160644602,-0.27460479736328125,-1.4737548828125,-5.88037109375,11.640144348144531,1.28466796875,-3.2386016845703125,-2.0257339477539062,-17.62407684326172,6.0,6.0,03-28,-1.068679889043172
02-28,3.4247655868530273,1.515466690063473,0.4228057861328125,1.2199020385742259,-0.27460479736328125,-3.3294448852539062,-7.4642486572265625,11.46475219726561,2.381813049316392,-0.5048370361328125,-1.8318862915039062,-18.471771240234375,6.0,6.0,03-29,-0.9539406299591086
02-29,0.0,0.0,0.0,1.5324745178222656,0.0,0.0,0.0,11.880149841308594,0.0,0.0,0.0,-15.327430725097656,2.0,1.0,03-30,-0.15956719716389975
03-01,2.6702947616577113,1.388147354125973,1.2050094604492188,0.92034912109375,-0.34104156494140625,-3.3833770751953125,-6.708717346191406,10.144721984863281,2.3255157470703125,0.7620239257812642,-2.5976028442382812,-20.01929473876953,7.0,5.0,03-31,-1.136164267857869
03-02,2.6979436874389613,1.4169006347656214,3.3486175537109375,0.9898185729980469,-0.961101531982429,-2.8082427978515625,-6.0123748779296875,11.603195190429688,3.1788482666015625,1.5811920166015625,0.34893035888671875,-19.112472534179688,8.0,4.0,04-01,-0.31072878837585566
03-03,2.804598808288576,1.2772655487060511,2.6171646118164062,1.7669181823730469,-0.7307815551757884,-1.6175460815429688,-4.09625244140625,10.707809448242188,3.4789047241210938,-2.6575546264648438,1.4635772705078125,-20.492431640625,7.0,5.0,04-02,-0.4565273125966396
03-04,3.37737464904785,1.2895774841308558,3.111835479736328,1.8146781921386719,-0.6333465576171946,-1.5950851440429688,-4.460357666015625,8.686256408691406,3.779022216796875,-1.1049346923827983,2.772064208984361,-27.668235778808594,7.0,5.0,04-03,-0.8859292666117362
03-05,4.341210365295412,1.1335182189941335,3.2513771057128906,2.630840301513679,-1.1205406188964773,-1.0244598388671875,-4.5104217529296875,7.495460510253906,3.6383743286132812,-4.286369323730469,3.3826904296875,-22.434242248535156,7.0,5.0,04-04,-0.6252135435740146
03-06,3.9698944091796875,0.7597885131835902,3.2048721313476562,2.2878646850585938,-1.2091102600097656,-1.2940597534179688,-2.9265594482421875,8.990859985351548,3.6383743286132812,-4.657867431640639,3.9060897827148438,-21.251411437988267,7.0,5.0,04-05,-0.3817720413208023
03-07,4.957425117492678,1.2115459442138707,3.7925796508789062,2.227081298828125,-1.2179794311523366,-1.2626190185546875,-3.563713073730483,8.141639709472656,3.741485595703125,-4.029197692871094,4.594261169433594,-16.441253662109375,7.0,5.0,04-06,0.17927130063374838
03-08,5.948912620544435,1.384033203125,3.179492950439453,1.1895179748535156,-2.046184539794929,-1.3165359497070312,-3.9642486572265625,9.15701293945314,-1.7160110473632812,-4.391166687011719,4.797813415527344,-16.736968994140625,6.0,6.0,04-07,-0.37619439760843837
03-09,5.834355354309084,1.9179420471191406,3.5346755981445312,1.2633247375488281,-1.7184486389160085,-1.14129638671875,-3.6729736328125,9.046272277832031,1.941078186035142,-6.534347534179702,3.5862350463867188,-10.625717163085938,7.0,5.0,04-08,0.28592499097188134
03-10,3.9935922622680664,1.540109634399414,4.211154937744141,0.36034393310546875,-2.679542541503899,-3.2485885620117188,-1.2607192993164205,8.4647216796875,2.728775024414034,-4.5626220703125,3.5474700927734375,-10.734130859375,7.0,5.0,04-09,0.1967136859893769
03-11,3.906686782836914,1.7084941864013636,3.7672119140625,1.3892326354980469,-2.8035621643066335,-2.2510833740234375,0.4324035644531108,6.526237487792983,2.4286727905273438,-6.734375,3.0046920776367188,-5.795837402343736,8.0,4.0,04-10,0.4648977915445978
03-12,3.3418149948120117,1.3511943817138707,3.4797096252441406,0.50360107421875,-2.8744163513183594,-0.6829452514648438,-1.624809265136733,5.418525695800781,3.1600875854492188,-6.5248260498046875,3.0337600708007812,1.1729660034179688,8.0,4.0,04-11,0.8128885428110749
03-13,3.8711376190185547,1.4127845764160192,3.1710548400878906,-0.9637718200683594,-3.038288116455078,0.350494384765625,-0.810111999511733,6.544677734375,2.9162750244140625,-5.438949584960966,3.460243225097642,-3.055633544921875,7.0,5.0,04-12,0.7016593615213985
03-14,3.9224891662597674,1.720800399780277,3.001941680908203,0.3733482360839844,-3.3527488708496094,0.498779296875,-0.7919540405273153,6.4062118530273295,4.060302734375,-5.486564636230469,5.059501647949219,10.773559570312514,9.0,3.0,04-13,2.1821389198303254
03-15,4.752014160156252,1.8070449829101598,2.942729949951172,0.39070892333984375,-2.9408416748046875,-2.6959075927734375,-0.26399993896482954,7.550857543945327,1.8941650390625,-4.762649536132827,4.720268249511719,14.53887939453125,8.0,4.0,04-14,2.3277724583943704
03-16,4.815221786499025,1.9261531829833984,2.8539466857910227,0.4124183654785156,-1.5457420349121094,-3.6574630737304688,-0.22301483154295454,7.0339279174804545,2.2880096435546875,-5.381790161132827,3.460243225097642,11.098838806152344,8.0,4.0,04-15,1.9233957926432275
03-17,4.013339996337891,1.4825992584228516,2.1605377197265625,1.0288810729980469,-2.1480712890625,-3.324951171875,0.3185882568359375,4.4585189819335795,1.4722061157226562,-3.0290451049804688,4.5070343017578125,10.024429321289048,9.0,3.0,04-16,1.7470056215922014
03-18,3.73287296295166,1.9589958190917933,2.03369140625,0.5470008850097656,-4.278411865234368,-4.237083435058594,-1.078651428222642,4.9200668334960795,-0.47823333740234375,-3.067138671875,5.350303649902344,15.337295532226562,7.0,5.0,04-17,1.7283923625946047
03-19,3.6894264221191406,1.8809700012207031,1.661651611328125,1.0592803955078125,-2.7991065979003906,-2.9789810180664062,0.5006637573242472,5.1877288818359375,-1.0783843994140625,-1.3811798095703125,7.269401550292969,11.7493896484375,8.0,4.0,04-18,2.0634050369262718
03-20,3.8434810638427734,1.7454490661621058,1.7293128967285156,1.9145355224609446,-3.813365936279297,-2.7902603149414062,-0.8146896362304545,5.963142395019531,-0.16880035400390625,-0.733436584472642,7.346931457519531,8.634613037109375,7.0,5.0,04-19,1.9047427177429226
03-21,3.5985794067382812,1.5113563537597656,1.1965599060058594,1.8797836303710938,-2.165771484375,-2.9610137939453125,0.14562988281247158,6.332374572753906,0.24381256103514204,-0.7239151000976562,5.582901000976548,16.165267944335938,9.0,3.0,04-20,2.5671304066975864
03-22,3.274669647216797,1.9384613037109375,2.1351661682128906,2.3920555114746023,-1.5811538696289062,-0.7099380493164062,0.08193969726561079,6.193931579589844,0.703285217285142,1.7907638549804688,11.349952697753906,20.512138366699205,10.0,2.0,04-21,4.006772677103674
03-23,2.445131301879883,1.7906227111816442,2.054851531982422,2.092498779296875,2.994007110595703,2.8082199096679688,0.5689163208007528,6.397003173828125,0.35634613037107954,3.5338821411132812,10.012390136718764,18.333770751953125,12.0,0.0,04-22,4.448969999949135
03-24,2.784849166870117,2.0780982971191335,1.8857154846191406,2.426776885986321,3.410320281982422,1.4962158203125,0.7100067138671875,6.5723953247070455,1.1346359252929545,-2.1812896728515483,12.406440734863295,5.87469482421875,11.0,1.0,04-23,3.2165716489156098
03-25,2.844096183776852,2.3820095062255824,1.5643882751464844,2.5526695251464773,4.278388977050781,1.5680999755859375,1.7932434082031392,6.1569976806640625,2.3911819458007812,-2.9147262573241903,9.867004394531264,4.297599792480469,11.0,1.0,04-24,3.0650794506073034
03-26,2.1212244033813423,1.8152561187744105,2.1816864013671875,2.4311256408691406,4.765594482421875,2.6464767456054688,2.3211898803710938,0.793853759765625,1.987945556640625,-2.9052047729491903,8.975296020507812,0.305572509765625,11.0,1.0,04-25,2.286668062210085
03-27,2.8756952285766584,1.8440208435058558,2.2239608764648438,2.717670440673821,5.119922637939439,3.041900634765625,1.5656585693359375,3.498504638671861,3.9290390014648438,-5.8485260009765625,6.3582992553710795,4.9974365234375,11.0,1.0,04-26,2.693631887435908
03-28,2.599194526672365,2.2629337310791016,1.712371826171875,4.076488494873047,4.889602661132798,2.466766357421875,0.6326599121093608,2.9538726806640625,5.485641479492202,-1.9907836914062358,4.7687301635742045,4.5341644287109375,11.0,1.0,04-27,2.865970214207966
03-29,3.3931665420532244,2.0370502471923864,1.4290809631347656,3.6814193725585938,4.7921676635742045,0.471771240234375,-0.53704833984375,2.7508010864257812,4.416656494140625,-3.5434036254882812,3.654083251953111,6.722396850585952,10.0,2.0,04-28,2.4390118122100826
03-30,2.8282976150512713,1.1951103210449254,-0.985137939453125,3.6336593627929688,5.646965026855483,-0.21567535400390625,-1.65667724609375,1.00616455078125,4.923004150390625,-0.3619689941406108,1.2697219848632812,9.93572998046875,8.0,4.0,04-29,2.2682661215464304
03-31,2.5043907165527326,1.8563213348388707,-0.68072509765625,3.273345947265618,4.770027160644531,-0.8941268920898438,-2.1755294799804688,1.3846359252929688,5.063652038574219,-0.5334243774414062,3.4796295166015625,7.777069091796875,8.0,4.0,04-30,2.1521054903666172
04-01,1.8368148803710938,1.4045639038085902,-0.6342201232910156,3.4643592834472585,5.6956939697265625,-1.635528564453125,-1.0422821044921733,-0.11076354980467329,5.823188781738281,-0.2762451171875,2.8011474609375284,15.761131286621094,7.0,5.0,05-01,2.7573216756184933
04-02,0.8176841735839844,1.232076644897461,-0.9935989379882741,3.282032012939446,5.956993103027358,-1.635498046875,-0.6417465209960938,0.535369873046875,4.463508605957031,-2.2670211791992188,3.159759521484361,14.933143615722656,8.0,4.0,05-02,2.4035585721333823
04-03,-0.17380332946777344,1.7741985321044922,-0.7695236206054688,4.931728363037109,5.527366638183594,-1.6849288940429688,-0.9330215454101562,-1.6615753173828267,4.107177734375,-3.1052398681640625,0.8626327514648438,15.228858947753906,6.0,6.0,05-03,2.0086558659871407
04-04,-0.08690452575683594,1.416900634765625,-0.997844696044929,5.760898590087891,5.0047454833984375,-1.86016845703125,-1.2106475830078125,-0.8769454956054688,4.407279968261719,-4.8388519287109375,0.45555877685546875,4.139892578125,6.0,6.0,05-04,0.9428261121114089
04-05,-0.09874725341796875,1.790628433227539,-1.7969131469726562,4.7320098876953125,5.965839385986328,-0.193206787109375,0.1502227783202983,-1.7815322875976847,3.9383926391601705,-5.677070617675781,0.49432373046875,1.35040283203125,7.0,5.0,05-05,0.7395291328430152
04-06,0.8808898925781286,0.3572940826416051,-2.545299530029297,5.617641448974609,7.542579650878906,0.94805908203125,0.36865997314454546,-3.2215805053710938,3.685211181640625,-3.5053176879882812,2.2874374389648438,0.19715118408203125,9.0,3.0,05-06,1.0510605176289893
04-07,1.1731910705566406,0.008209228515625,-2.4015464782714844,5.621990203857422,9.225601196289062,1.2670822143554688,-1.5110626220702983,-1.8646392822265625,2.95379638671875,-4.429252624511719,3.13067626953125,-2.779632568359375,7.0,5.0,05-07,0.8662010828653983
04-08,1.2087421417236293,-0.18891143798828125,-2.0928916931152344,4.957771301269531,8.995292663574219,1.3344879150390625,-1.8569641113281108,-2.9907913208007812,3.8446426391601562,-3.0576095581054688,1.8318939208984517,-4.4848709106445455,6.0,6.0,05-08,0.6250659624735523
04-09,0.3792171478271449,-0.49692726135253906,-1.9871864318847656,5.491752624511719,9.11041641235353,1.3704299926757812,-2.86279296875,-2.861572265625,4.472908020019531,-3.23858642578125,0.17444610595703125,-8.250190734863281,6.0,6.0,05-09,0.1084928512573251
04-10,0.31600952148437145,-1.4857177734375,-1.6808433532714844,6.516780853271477,9.345199584960923,3.9450302124023438,-3.390747070312486,-2.7411117553710795,2.844787597656264,-3.505287170410142,-0.8529510498046875,-4.810150146484375,5.0,7.0,05-10,0.3750832875569688
04-11,-0.3513679504394531,-1.883163452148441,-1.3021430969238281,5.204330444335945,8.038673400878892,4.906585693359375,-1.7970428466796875,-3.547180175781236,2.0457534790039062,-1.69219970703125,-0.48462677001951704,-3.2724838256835938,4.0,8.0,05-11,0.4887612660725926
04-12,0.044261932373046875,-0.5169448852539062,-0.5905036926269531,4.210174560546882,8.641002655029283,3.7670669555664062,0.09336090087892046,-3.5150833129882812,2.9834442138671875,-2.4161224365234375,-1.5314178466796875,-1.1610565185546875,6.0,6.0,05-12,0.8340152104695644
04-13,-0.4272956848144531,-0.9708995819091797,-0.7221336364746094,4.692054748535163,10.228900909423821,3.9203338623046875,-0.6920166015625,-5.9196090698242045,3.5835952758789062,-2.3780288696289062,-3.0170974731445312,-2.70745849609375,4.0,8.0,05-13,0.4658621152242037
04-14,0.027658462524414062,-0.5438747406005824,-0.815155029296875,4.088111877441406,10.322238922119148,5.178169250488281,-1.2469558715820312,-6.178047180175781,2.67401123046875,-4.9631500244140625,-3.6400375366210938,-4.595870971679673,5.0,7.0,05-14,0.02559153238932499
04-15,-0.8141136169433558,-0.6342334747314382,-0.8828163146972656,3.8523902893066335,9.913150787353509,4.43426513671875,-0.5173950195312642,-6.953460693359375,2.3069686889648438,-10.396430969238281,-4.6036529541015625,-3.7080078125,4.0,8.0,05-15,-0.6669446627299006
04-16,-1.4737911224365199,-0.400140762329098,-0.4692230224609375,2.948741912841797,10.136539459228516,2.5138778686523438,-0.2807006835937358,-7.2578277587890625,1.9869918823242188,-7.966766357421875,-6.1725616455078125,-4.122001647949219,4.0,8.0,05-16,-0.879738489786782
04-17,-1.1498813629150355,-1.18328857421875,-0.9968223571777344,1.9132232666015554,10.937599182128906,-1.0042800903320312,-0.217010498046875,-7.9897537231445455,2.796356201171861,-9.157188415527358,-4.823738098144517,-8.468872070312486,3.0,9.0,05-17,-1.6119713783264176
04-18,-0.11253738403320312,-1.8829536437988317,-0.9329872131347656,1.6690940856933594,7.283668518066406,0.3077239990234375,0.8485412597656392,-6.6370697021484375,2.869415283203139,-8.8123779296875,-7.217788696289048,-4.5755767822265625,5.0,7.0,05-18,-1.4327373504638639
04-19,-0.19646072387695312,-1.456533432006836,-2.1834983825683594,0.5707473754882812,6.8673553466796875,-0.5623703002929688,2.1727066040039205,-8.441017150878906,0.8092498779297017,-5.430885314941406,-4.678352355957017,-3.6338653564453125,4.0,8.0,05-19,-1.3469103177388473
04-20,0.5548362731933594,-1.7456550598144496,-2.0691184997558594,0.444854736328125,5.590183258056641,-0.23326873779296875,1.8211135864257955,-8.572372436523438,-0.47542572021484375,-4.697448730468764,-3.7244720458984375,1.2531509399414062,5.0,7.0,05-20,-0.9878018697102862
04-21,0.6088581085205078,-2.3042888641357386,-2.1113929748535156,-0.699565887451179,7.053142547607422,0.0732879638671875,1.6786270141601705,-3.209228515625,-0.0721893310546875,-3.8365097045898438,-4.843833923339844,5.656982421875014,5.0,7.0,05-21,-0.16717592875162554
04-22,0.770742416381843,-2.205734252929684,-1.5998039245605469,-1.2626991271972727,6.261623382568359,-0.00360107421875,1.4904403686523438,-5.913879394531236,-2.097991943359361,-3.3199615478515625,-8.766426086425781,6.372314453125014,4.0,8.0,05-22,-0.8562480608622195
04-23,1.0195941925048864,-2.6246471405029297,-1.66363525390625,-0.39834976196289773,6.543975830078125,0.6905899047851562,1.7270965576172017,-6.064125061035156,-0.8368759155273438,-3.243438720703139,-7.9083404541015625,5.928764343261733,5.0,7.0,05-23,-0.5691159566243481
04-24,0.225622177124027,-3.5579814910888707,-2.0380706787109375,-0.9503669738769531,5.846160888671889,1.4948883056640625,2.8968048095703125,-5.5360107421875,-1.1286392211914062,-2.3759689331054545,-7.464599609375,3.7405319213867188,5.0,7.0,05-24,-0.737302462259926
04-25,0.7904911041259801,-3.09014892578125,-2.629505157470703,-1.2201499938964844,4.991363525390611,2.1823348999023438,4.0164337158203125,-5.3321990966796875,-3.5001068115234375,-4.510131835937528,-6.388725280761719,0.5271987915039205,5.0,7.0,05-25,-1.1802620887756368
04-26,0.20303726196289062,-3.5704021453857457,-3.168415069580078,-1.6759986877441406,5.8683013916015625,2.8607864379882812,4.1534194946289205,-4.97686767578125,-2.9553909301757812,-4.338676452636733,-8.5986328125,-0.364959716796875,4.0,8.0,05-26,-1.3803165753682458
04-27,0.44281959533691406,-2.5619029998779297,-2.416271209716804,-1.8670120239257812,4.942634582519531,2.4910888671875,4.135169982910156,-3.941101074218764,-3.7149276733398438,-4.595855712890639,-7.920150756835966,0.7155380249023438,5.0,7.0,05-27,-1.1908308664957736
04-28,0.9107208251953125,-3.105203628540039,-2.6445999145507955,-1.6846847534179688,4.635810852050781,3.6226882934570312,3.0482711791992188,-3.7380142211914205,-2.3552474975585938,-2.6050796508789205,-9.535911560058608,8.947685241699219,5.0,7.0,05-28,-0.37529706954956527
04-29,0.07956695556640625,-3.6473255157470703,-2.868675231933601,-0.20046234130858664,4.622474670410142,2.6016311645507812,3.5115890502929688,-1.5410690307617188,-1.9989166259765625,-2.80596923828125,-8.63070678710939,6.9500274658203125,5.0,7.0,05-29,-0.3273196220397973
04-30,0.10722541809082031,-3.290027618408203,-2.6403541564941406,-0.6457138061523509,4.791687011718736,3.283332824707017,3.789215087890625,-2.3256988525390767,-2.0271530151367188,-1.9450531005859375,-9.242301940917955,11.927742004394531,5.0,7.0,05-30,0.14857498804727895
05-01,0.11906814575195312,-3.663755416870117,-2.738227844238274,-0.5889930725097656,5.548652648925781,3.723663330078111,2.428344726562514,-2.9001312255859375,-1.716590881347642,-5.193168640136719,-7.595924377441406,14.717231750488281,5.0,7.0,05-31,0.1783474286397316
05-02,-0.7486743927001989,-2.32651519775391,-2.440368652343743,-1.8938865661621094,4.0959320068359375,2.582397460937486,2.5203857421874716,-2.0662841796875,-2.4412155151367188,-3.66754150390625,-8.846260070800781,16.157958984375,4.0,8.0,06-01,0.07716067632039032
05-03,-0.5968132019043004,-2.74880409240723,-1.1991500854492188,-1.8982353210449219,2.4129104614257812,2.60150146484375,2.0957489013671733,-1.312477111816392,-2.3009490966796875,-2.953155517578125,-9.689498901367188,15.196418762207031,4.0,8.0,06-02,-0.03270864486694395
05-04,0.030593872070308947,-2.2281780242919957,-1.3016128540039062,-1.2340164184570312,2.291900634765625,2.8765182495117045,2.15966796875,-0.1945343017577983,-2.9479827880859375,-4.324798583984375,-8.33231353759767,16.88159942626953,5.0,7.0,06-03,0.30640363693237127
05-05,0.1551189422607422,-0.9108200073242188,-1.2382049560546875,-1.2528724670410156,1.0913009643554688,3.20111083984375,3.3737030029296733,-0.18528747558590908,-3.5762481689453125,-4.631675720214844,-10.85330200195314,19.576026916503906,5.0,7.0,06-04,0.3957374890645345
05-06,-0.3196945190429652,-0.008274078369140625,-1.5445480346679688,-3.2085647583007812,1.7716293334960795,3.1148147583007812,3.9542922973632812,-0.30574798583982954,0.68701171875,-3.589012145996108,-7.80670928955081,23.177345275878906,5.0,7.0,06-05,1.3268785476684537
05-07,0.3476829528808594,0.3891716003418004,-2.1742897033691335,-3.7280540466308594,0.4224548339843608,2.6103363037109375,2.319602966308608,0.7041473388671875,1.8728179931640483,-3.1872711181640625,-2.2076873779296733,21.639678955078125,8.0,4.0,06-06,1.5840492248535165
05-08,-0.047946929931640625,-1.2958393096923864,-2.701892852783203,-3.282783508300774,-2.2900238037109233,3.4173431396484375,0.42919921875,0.21309661865234375,-0.06588745117188921,-3.5680007934570312,-1.1582870483398438,19.52825164794922,4.0,8.0,06-07,0.7647690773010257
05-09,0.5834522247314453,-2.194225311279297,-3.0550575256347656,-1.8028945922851634,-1.7475814819335938,3.2640762329101562,0.6575241088867188,0.630035400390625,0.49880218505859375,-2.984466552734361,-0.5158767700195312,20.51953887939453,6.0,6.0,06-08,1.1544438997904465
05-10,0.5994453430175781,-2.7200145721435547,-2.5954818725585938,-1.7112312316894531,-1.8409194946289205,1.6861343383789062,0.593597412109375,-0.8894577026367188,0.0,-2.085304260253892,0.10706329345703125,23.32485961914064,5.0,7.0,06-09,1.2057242393493663
05-11,0.2997207641601598,-1.780227661132816,-2.357250213623047,-1.4755096435546804,-0.8626632690429688,2.4886474609375,0.35157012939453125,3.270545959472642,0.36704254150390625,3.3479766845703267,1.6936187744140625,22.779655456542955,8.0,4.0,06-10,2.3435939153035474
05-12,0.7313251495361328,-2.3722457885742223,-2.2380905151367188,-0.23573684692382102,0.7604064941406392,2.569793701171889,2.1735076904296875,3.2056808471679545,0.6870193481445312,0.11479949951171875,2.6669845581054688,23.582595825195312,9.0,3.0,06-11,2.637169996897381
05-13,1.342737197875973,-2.016202926635742,-1.7104911804199219,0.24446868896483664,0.47135162353514204,3.638275146484375,2.958892822265625,3.9376068115234375,-0.05646514892575283,1.128753662109375,3.0563201904296875,24.583793640136733,9.0,3.0,06-12,3.1315867106119804
05-14,1.1349315643310547,-1.3165378570556605,-1.4296646118164062,-0.506378173828125,-2.183319091796875,4.075599670410156,1.4063644409179688,2.1031570434570312,1.835189819335966,0.9183120727539205,5.149024963378906,22.86886596679689,8.0,4.0,06-13,2.8379621505737354
05-15,1.2188549041748047,-1.1592178344726562,-1.9189834594726562,0.8599891662597727,-2.4545974731445455,4.9456939697265625,0.0821990966796875,1.0006103515625,2.032829284667983,0.4782867431640767,4.915420532226548,21.92715454101564,9.0,3.0,06-14,2.660686651865643
05-16,0.5474815368652344,-0.5547561645507812,-2.0338783264160156,0.06985855102539773,-2.045494079589858,4.6165924072265625,1.397254943847642,-0.435455322265625,3.9150619506835795,-0.191314697265625,3.9615402221679688,7.642784118652344,7.0,5.0,06-15,1.4074729283650687
05-17,0.41960906982421875,-0.848709106445316,-0.8169479370117188,1.3358230590820384,-3.508453369140639,3.3993301391601562,1.059364318847642,0.064849853515625,5.6655502319335795,-1.0617752075195455,5.080902099609375,9.69473266601564,8.0,4.0,06-16,1.707022984822588
05-18,-0.0399627685546875,-0.020700454711917615,-2.1742706298828125,1.898956298828132,-0.7959365844726562,3.710418701171875,-0.03195953369139204,0.21309661865234375,5.750259399414034,-1.5783233642578267,8.925621032714844,11.251045227050781,6.0,6.0,06-17,2.2590203285217263
05-19,-0.6354045867919957,0.9025382995605504,-2.1104393005371094,0.9691162109375071,-1.4362716674804688,3.1468582153320312,0.9178085327148295,0.9079742431640625,4.489143371582017,-1.0235290527343892,8.575225830078125,11.439384460449205,8.0,4.0,06-18,2.1785337130228637
05-20,-0.9031543731689524,2.0617561340332067,-1.7360038757324219,2.0080718994140625,-0.42243194580078125,3.07470703125,2.013702392578125,0.37985992431640625,4.6114959716796875,0.3347930908203125,6.9983901977539205,8.80258178710936,9.0,3.0,06-19,2.2686473528544107
05-21,-0.3157005310058629,1.593923568725586,-1.0849990844726562,2.2874717712402344,-1.0538482666015767,2.8943710327148295,1.876716613769517,0.4910430908203125,4.4609222412109375,-0.0287017822265625,5.528633117675781,9.694740295410156,8.0,4.0,06-20,2.195381005605058
05-22,-0.5554828643798864,1.9168510437011754,-0.8126907348632812,3.0208663940429688,-1.5029830932617188,3.264068603515611,1.8949661254882812,1.621391296386733,4.413879394531236,1.2339706420898295,6.988662719726577,8.614242553710938,9.0,3.0,06-21,2.508145173390705
05-23,-0.8312187194824183,2.1238632202148473,-0.523345947265625,2.2874679565429688,-1.1961593627929688,2.1324691772460795,4.063911437988281,1.8437423706054688,3.8397979736328125,2.324455261230483,8.604423522949219,4.381462097167969,9.0,3.0,06-22,2.420905749003093
05-24,-0.8791656494140625,2.1859607696533203,0.7658958435058594,0.8032455444335866,-1.1828231811523295,2.2993087768554688,3.5981674194335938,0.2779388427734375,3.5197906494140625,2.5253448486328125,7.69921875,3.6875686645507812,10.0,2.0,06-23,2.1083709398905444
05-25,-1.342733383178711,1.3745040893554688,0.17443466186524148,1.2484970092773509,-3.2238616943359517,2.9079208374023438,4.3926849365234375,-0.4725189208984233,3.5480270385742188,1.6644287109375,7.475349426269517,3.638000488281264,9.0,3.0,06-24,1.7820611000061046
05-26,-1.4026775360107386,1.3413734436035192,0.272308349609375,-1.1699333190917969,-3.748565673828125,2.8177261352539062,4.50225830078125,0.1019134521484375,3.237464904785142,3.1183853149414205,8.331878662109375,3.6578292846679688,9.0,3.0,06-25,1.7549967765808112
05-27,-0.33568382263183594,0.004133224487311793,-0.02555084228515625,-0.397247314453125,-4.735755920410156,2.213623046875,3.1049957275390625,-0.73193359375,3.8491973876953125,4.189735412597656,9.1397705078125,-0.4658966064453125,6.0,6.0,06-26,1.3174489339192714
05-28,-0.44757843017578125,0.4264221191406321,-0.7190780639648366,-1.645751953125,-4.2243804931640625,1.902549743652358,2.794517517089858,3.2797927856445312,3.9527053833007812,3.8932113647460938,8.526550292968764,-0.7533721923828125,7.0,5.0,06-27,1.4154656728108772
05-29,-0.5994396209716797,0.23599052429199574,-0.6552543640136719,-0.9865875244140625,-3.6018447875976562,1.564422607421875,3.2191543579101562,-4.586204528808608,4.084465026855483,4.581932067871094,8.12746429443358,0.20816802978515625,7.0,5.0,06-28,0.9660221735636384
05-30,-0.8791751861572266,0.16974639892578125,-0.7403678894042969,0.5325965881347656,-3.2505264282226562,1.2894058227539205,2.9451751708984375,-8.32926177978517,3.773895263671875,3.5201568603515625,8.06906127929686,-0.5947799682617188,7.0,5.0,06-29,0.5421605110168445
05-31,-0.9870719909668004,0.14490699768066406,-0.10211181640625,0.0174713134765625,-2.0499267578125,0.11272430419921875,3.1917572021484375,-6.596702575683608,4.432662963867202,4.0080108642578125,10.59004974365233,-1.219276428222642,7.0,5.0,06-30,0.9618744850158688
06-01,-0.8711833953857457,-0.6375675201416016,1.0126876831054688,1.9731636047363281,-2.7169036865234233,0.7754745483398438,0.4246520996093608,-5.08649444580081,1.7975234985351562,2.9653472900390767,7.893882751464858,0.5650253295898295,8.0,4.0,07-01,0.6746339797973618
06-02,-0.6913528442382812,-1.7885112762451207,1.2637290954589773,2.501373291015632,-3.881935119628892,3.5255889892577983,0.5433731079101562,-5.2903213500976705,0.611717224121108,3.1471099853515625,8.692024230957045,-1.4472732543945312,7.0,5.0,07-02,0.5987935066223153
06-03,-0.2797412872314453,-1.4697189331054688,1.7913322448730469,3.6451148986816406,-2.979255676269503,3.2189788818359375,-0.25113677978517046,-4.799270629882827,1.2140426635742188,1.2435379028320312,10.560844421386719,-5.571006774902344,6.0,6.0,07-03,0.526976744333903
06-04,-0.43958282470703125,-0.5713329315185582,2.1444969177246094,3.6451148986816406,-2.276702880859361,2.254180908203125,0.30591583251953125,-5.216209411621108,1.2140426635742188,1.2435379028320312,6.735580444335909,-5.015892028808594,7.0,5.0,07-04,0.33526245752970113
06-05,-0.45557594299316406,-0.04554367065430043,2.8465499877929688,2.492645263671875,-0.4046478271484375,2.5742874145507812,0.369842529296875,-3.6782150268554688,1.5057830810546875,0.17218780517578125,5.587043762207031,-7.821212768554702,7.0,5.0,07-05,0.2619287172953273
06-06,-0.2038097381591797,0.21941947937012074,3.2975692749023438,1.3401718139648438,-0.97381591796875,1.7717742919921875,2.2374343872070312,-3.3354110717773438,2.0987014770507812,-1.8461761474609517,4.964103698730469,-6.988533020019517,7.0,5.0,07-06,0.2151190439860029
06-07,-0.8551979064941442,0.020702362060543322,2.472106933593743,1.004047393798821,-2.596885681152358,1.4426727294921733,1.6986236572265625,-4.743675231933608,2.6633682250976562,-1.04266357421875,3.9907379150390625,-4.292251586914034,7.0,5.0,07-07,-0.019867897033694366
06-08,-0.5075244903564489,-0.6499881744384695,3.429485321044929,0.5238418579101634,-2.0810775756835795,2.2767333984374716,0.9589157104492045,-7.393478393554673,2.5974884033202983,-2.0566177368164062,4.565025329589844,-3.4893112182617045,6.0,6.0,07-08,-0.15220896402994763
06-09,-1.5585384368896484,0.480249404907223,3.0848236083984446,1.5409889221191406,-0.8226623535156108,1.474250793457017,0.397247314453125,-6.911712646484375,0.7058334350585795,-1.0713577270508097,3.4748611450195312,-2.973846435546875,7.0,5.0,07-09,-0.18165524800618815
06-10,-1.3707122802734375,-0.10349082946777699,3.5741424560546946,1.5759010314941406,-0.4624481201171733,0.45084381103515625,-2.593597412109361,-5.809165954589844,-0.0847015380859375,-0.8896026611328267,1.9369735717773438,-2.547599792480483,4.0,8.0,07-10,-0.5269548098246254
06-11,-1.4506359100341797,-0.707952499389652,4.054981231689453,0.6155204772949219,2.058807373046875,1.0008621215820312,-3.5570602416991903,-4.3174972534179545,0.809356689453125,-0.00958251953126421,-0.8857345581054688,6.849754333496094,6.0,6.0,07-11,0.3717349370320659
06-12,-1.322763442993164,0.07452011108399148,3.523101806640625,-0.8774375915527415,2.2633819580078267,1.9115676879882812,-3.2191696166991903,-1.2693099975585938,0.79052734375,1.2148361206054688,-1.5378952026367188,4.797805786132798,7.0,5.0,07-12,0.5290970802307152
06-13,-0.7473011016845703,0.22770309448242543,2.735942840576172,-0.44963836669922586,0.34238433837890625,1.6004791259765625,-2.547935485839858,-1.0006179809570455,-0.5646591186523438,0.430450439453125,-1.46002197265625,1.863616943359375,6.0,6.0,07-13,0.03586689631143939
06-14,-0.8152389526367188,-0.12005996704100852,1.8509025573730469,-0.38414764404297586,0.9827194213867188,1.9701690673827983,-0.4840240478515767,1.5009307861328125,0.31996917724610796,-0.2008666992187358,-1.1096267700195312,3.8065261840820312,6.0,6.0,07-14,0.6097710927327474
06-15,-0.1638412475585973,-0.10350227355957031,2.5359573364257812,-1.4231033325195312,0.8537826538085938,2.2587203979492188,1.004554748535142,2.640533447265611,0.4893798828125,-1.5591888427734375,1.0414886474609233,6.126121520996094,8.0,4.0,07-15,1.1417419115702272
06-16,0.42359733581543324,-0.8362960815429759,2.4763870239257812,-1.7985382080078125,0.7203826904297017,2.2406768798827983,1.4702987670898438,2.325538635253892,0.63995361328125,-1.1095962524414062,2.053771972656236,6.899322509765639,9.0,3.0,07-16,1.2921249071756984
06-17,1.1429252624511754,-0.6789703369140696,2.2040786743164062,-0.6286163330078125,0.3913116455078125,1.3750457763671875,0.2830963134765625,1.1951904296874716,1.2140579223632812,-0.9661178588867188,2.7059173583984233,10.656280517578125,9.0,3.0,07-17,1.5745166142781537
06-18,1.2628173828124964,-0.8859825134277415,1.2849884033203125,-1.1568336486816406,-0.7693176269531108,0.991844177246108,-0.7579879760742188,0.1945648193359375,1.5904693603515625,-2.5157470703125,3.0855255126953267,11.102363586425781,7.0,5.0,07-18,1.1188920338948594
06-19,1.3107643127441406,-0.9149570465087891,1.8040924072265625,-0.8949241638183594,1.1961593627929688,1.1586227416992188,-0.29224395751953125,0.7875289916992188,1.7410507202148438,1.2244110107421875,0.9246749877929688,11.796257019042969,9.0,3.0,07-19,1.6534530321757
06-20,3.0411376953125,-1.800933837890625,1.3956222534179688,-0.8075981140136719,3.014854431152358,0.5500106811523438,-5.7990570068359375,0.8153305053710938,2.0422210693359375,1.5400543212890625,1.3821411132812642,11.488960266113281,9.0,3.0,07-20,1.4052286148071313
06-21,3.1570396423339844,-1.9292659759521449,0.6424827575683594,0.7726860046386719,3.5395584106445312,1.501312255859375,-5.817314147949219,0.29648590087890625,2.748077392578139,2.3435821533202983,0.5256118774414062,8.138420104980455,10.0,2.0,07-21,1.3265563646952303
06-22,3.5127086639404297,-0.3726062774658203,0.6850547790527344,0.0,5.923011779785156,2.3353729248046733,-6.684906005859375,2.0568161010742188,2.851585388183608,1.2722320556640625,0.09732818603515625,5.670135498046861,9.0,3.0,07-22,1.445561091105142
06-23,3.564661026000973,-0.12420082092285512,0.9956512451171804,4.640422821044922,5.54949951171875,1.9746856689453125,-9.205413818359375,-1.1025543212890625,2.748077392578139,1.224388122558608,0.59375,6.413597106933594,9.0,3.0,07-23,1.4393803278605155
06-24,3.1090774536132812,0.6996650695800746,0.9318275451660156,5.465484619140625,5.802986145019531,3.1919479370117188,-9.022781372070312,6.763442993164077,-3.8585968017578267,-0.10523223876953125,0.04865264892578125,9.714561462402344,9.0,3.0,07-24,1.8950862884521482
06-25,2.7614059448242188,0.7659091949462891,1.2850189208984375,4.112205505371101,5.0247802734375,2.6328964233398438,-8.81272125244142,9.17236328125,-4.1879959106445455,-0.6696014404296733,2.6183242797851562,8.832328796386719,9.0,3.0,07-25,1.9612428347269688
06-26,2.8693027496337926,1.2875652313232422,0.8424949645996094,2.497020721435554,3.5929489135742188,3.4849853515625,-9.05930328369142,8.301445007324247,-5.110298156738281,0.21044158935546875,2.5015106201172017,9.456825256347642,10.0,2.0,07-26,1.7395782470703145
06-27,3.440771102905277,1.9706726074218714,0.6765365600585938,1.7505226135253906,3.5795974731445312,2.822235107421875,-8.538742065429688,7.319366455078139,-3.1810073852539205,3.9888687133789062,2.1510848999023438,6.8299331665039205,10.0,2.0,07-27,1.9008199373881034
06-28,3.4767379760742223,2.1983776092529297,-0.7956886291503906,1.7418022155761648,4.74462890625,-0.05861663818357954,-10.712257385253906,5.744308471679702,-4.065635681152358,3.405364990234375,1.3529434204101562,6.562286376953139,8.0,4.0,07-28,1.1328543027242046
06-29,3.576646804809574,3.2292613983154297,-1.7615470886230469,0.5980606079101562,4.575637817382798,-0.5771102905273153,-11.497673034667969,3.3354034423828267,-2.7292556762695312,5.308937072753906,-0.47693634033201704,6.235168457031264,7.0,5.0,07-29,0.818049430847173
06-30,3.4567604064941406,3.4900741577148438,-2.4636001586914062,1.5409812927246094,3.8552856445312216,-0.6672668457031108,-7.12322998046875,1.7974090576171875,-3.02099609375,7.6333847045898295,-0.6715927124023295,2.4980316162109375,7.0,5.0,07-30,0.8604367574055978
07-01,3.236963272094723,3.2251110076904226,-2.9146194458007812,2.4970016479492188,5.660621643066392,-1.7447357177734375,-7.241943359375,1.4546051025390625,-4.1974029541015625,6.46636962890625,-0.19466400146482954,4.024604797363281,7.0,5.0,07-31,0.855992635091145
07-02,3.8883514404296875,3.423828125,-2.9529380798339773,2.7458419799804688,5.322685241699219,-1.7492523193359375,-6.703132629394531,2.6220169067382812,-4.310356140136719,6.753334045410156,0.8468170166015767,1.3283233642577983,8.0,4.0,08-01,0.9346265792846685
07-03,3.540678024291992,3.4196968078613246,-3.101867675781243,1.9993629455566406,4.824699401855469,-2.583312988281236,-5.963424682617173,1.9085845947265625,-5.0444183349609375,8.283851623535142,-1.64495849609375,0.5253829956054688,7.0,5.0,08-02,0.513689517974855
07-05,4.787504196166992,4.3719177246093714,-4.157081604003899,1.1219024658203125,3.5662841796875,-4.5174102783203125,-6.136947631835923,0.9635848999023438,-4.2068023681640625,6.619430541992202,-0.5547943115234375,-2.2105560302734375,6.0,6.0,08-04,-0.029414017995195902
07-06,5.514825820922852,3.91650390625,-4.199619293212905,1.0869903564453125,4.2376861572265625,-4.503883361816406,-6.602699279785142,1.2600555419922017,-3.6139068603515625,6.437675476074219,-0.6910858154296875,-2.47821044921875,6.0,6.0,08-05,0.03036101659139116
07-07,6.1622219085693395,3.2333908081054723,-4.565563201904304,1.864013671875,4.059844970703125,-3.4985427856445455,-7.7807769775390625,1.2044525146484375,-4.507965087890625,5.165458679199219,-2.1511077880859233,-0.6245040893554688,6.0,6.0,08-06,-0.11992311477661133
07-08,6.110271453857422,2.7448711395263636,-4.033683776855476,2.5450172424316406,3.850830078125,-3.8727188110351562,-5.945159912109389,-1.8437347412109233,-5.938468933105469,6.724639892578125,-5.275566101074219,5.1447601318359375,6.0,6.0,08-07,0.017588138580321377
07-09,5.994380950927734,2.5916881561279297,-5.356983184814446,2.8506011962890625,2.1744537353515625,-4.0260162353515625,-5.5250701904296875,-2.3255462646484375,-5.618484497070298,6.122016906738281,-4.827827453613281,6.522636413574219,6.0,6.0,08-08,-0.118679205576577
07-10,6.062318801879883,2.67862510681152,-5.271884918212891,4.094745635986328,2.2455825805664062,-3.8321456909179545,-7.588981628417969,-2.019783020019517,-5.4961395263671875,4.9358673095703125,-2.4820556640625,4.5797271728515625,6.0,6.0,08-09,-0.1745103200276672
07-11,5.241502761840824,2.616035461425774,-7.140707015991211,4.723773956298821,1.3606796264648438,-4.120697021484375,-10.01220703125,-1.6012420654296733,-6.705993652343764,5.2610931396484375,-3.05633544921875,2.0420455932617188,6.0,6.0,08-10,-0.9493376413981128
07-12,5.257638931274421,2.70782470703125,-5.093170166015625,4.81980895996093,1.4940795898437358,-4.509765624999986,-11.19430541992186,-3.6399459838867188,-7.553108215332031,5.174995422363281,-4.0686187744140625,4.8411102294921875,6.0,6.0,08-11,-0.9802880287170398
07-13,4.809904098510746,1.8867053985595703,-6.94890022277832,3.6498870849609304,2.4257354736328125,-3.1979217529296733,-8.729354858398438,-4.055717468261719,-8.08016967773436,5.031517028808594,-1.0317535400390625,6.863212585449219,6.0,6.0,08-12,-0.6147379875183084
07-14,4.610317230224609,1.2664985656738317,-6.319154739379883,4.292213439941413,2.3632583618164062,-3.6683502197265625,-11.731590270996094,-3.2774429321289205,-8.456581115722642,7.0038909912109375,-1.8236236572265625,9.673568725585909,6.0,6.0,08-13,-0.5055829683939631
07-15,3.976339340209961,1.2333755493164062,-6.838258743286133,4.05084228515625,2.2070159912109375,-2.4144821166992188,-11.504447937011719,-3.8704071044922017,-10.535308837890597,5.3225250244140625,-4.541419982910142,5.907173156738267,6.0,6.0,08-14,-1.4172544479370106
07-16,2.70953369140625,2.119352340698242,-5.6368255615234375,3.752410888671882,3.796905517578125,-1.3963241577148438,-6.792152404785156,-3.851715087890639,-11.102409362792955,3.9966278076172017,-4.149772644042983,6.264038085937472,6.0,6.0,08-15,-0.8575275739034035
07-17,2.5936317443847656,2.16422080993652,-5.572532653808594,2.1508140563964915,2.72454833984375,-2.2574310302734375,-6.773895263671875,-4.549247741699219,-9.372764587402315,1.8284759521484375,-5.748603820800781,9.614578247070298,6.0,6.0,08-16,-1.09985049565633
07-18,2.38720703125,1.938888549804684,-4.903858184814453,2.5415382385253906,1.3282852172851562,-3.091491699218736,-6.373649597167969,-4.1121368408203125,-9.004203796386719,0.7196426391601562,-6.128211975097656,9.911346435546875,6.0,6.0,08-17,-1.2322203318277987
07-19,1.8547611236572301,2.022342681884762,-5.7380104064941335,-0.8503799438476562,1.7017974853515625,-2.9298477172851562,-5.2923583984375,-4.013099670410156,-8.859786987304702,1.0640106201171733,-6.6246337890625,10.0806884765625,5.0,7.0,08-18,-1.4653763771057147
07-20,1.2053394317626953,1.504724502563473,-5.7419586181640625,-1.6754417419433594,-0.15854644775390625,-2.6131973266601562,-5.695533752441406,-5.597625732421875,-2.3848724365234375,2.3936309814453125,-6.666107177734361,10.020919799804702,4.0,8.0,08-19,-1.2840557098388652
07-21,1.2052688598632812,1.2340240478515625,-6.010036468505859,-0.054450988769538355,-0.23889923095703125,-1.9346313476562358,-3.0005569458007812,-4.263488769531236,-2.0554733276367188,3.793884277343736,-5.5907211303710795,9.028526306152344,4.0,8.0,08-20,-0.6572128931681297
07-22,1.2710113525390625,0.7372074127197266,-5.567512512207031,0.037712097167961645,-1.0334091186523295,-2.1587600708007812,-4.78778076171875,-3.392570495605483,-2.1350479125976705,4.293495178222642,-4.710853576660156,7.4719696044921875,5.0,7.0,08-21,-0.8312115669250518
07-23,0.5836544036865234,0.0541000366210973,-7.497562408447266,-0.44065093994141336,0.19753265380859375,-2.497741699218764,-2.5412368774414062,-2.2430801391601562,-2.7021484375,5.552124023437486,-7.9577713012695455,8.314559936523438,5.0,7.0,08-22,-0.9315183957417844
07-24,0.5476875305175781,-0.8662910461425781,-8.153377532958984,-0.22629928588867898,1.1716156005859375,-2.367004394531264,-0.3677215576171875,-1.3502044677734375,-2.4091567993164205,5.280418395996094,-6.7296295166015625,8.582206726074219,4.0,8.0,08-23,-0.5739796956380238
07-25,0.334833145141598,-0.9455680847168004,-8.127643585205075,1.8119125366210938,0.43792724609375,-1.8485107421875284,-1.9922561645507812,-0.9037704467773295,-1.9957580566406108,1.7295455932617188,-6.7685699462890625,8.510879516601562,5.0,7.0,08-24,-0.8130815823872887
07-26,0.8995475769042969,-1.108301162719723,-6.350688934326168,1.4888801574707031,1.1582794189453267,-1.30596923828125,-4.4296722412109375,0.08269500732421875,-2.5170822143554688,0.4094848632812642,-6.57391357421875,8.500923156738281,6.0,6.0,08-25,-0.8121514320373505
07-27,0.7381992340087891,-1.6905288696289027,-5.352699279785156,0.5328598022460938,-0.1828460693359375,-1.5457229614257812,-8.965538024902344,0.6569595336914205,-1.952423095703125,1.5764999389648438,-7.6374053955078125,11.339836120605469,5.0,7.0,08-26,-1.0402340888977035
07-28,0.8985729217529297,-1.3190135955810476,-5.161216735839844,-0.6200294494628906,0.7500381469726562,-0.7857513427734517,-14.211273193359375,1.2221069335937642,-1.8394699096679688,0.4920654296875,-11.117759704589844,11.720352172851562,5.0,7.0,08-27,-1.664281527201334
07-29,0.9444751739501953,-1.3107376098632777,-5.012287139892578,-0.5498123168945241,-0.1292724609375,0.9773635864257812,-13.839653015136719,1.935539245605483,-1.0297927856445312,1.3087463378906392,-10.50185394287108,10.03579711914064,5.0,7.0,08-28,-1.4309573173522894
07-30,-0.06657981872558594,-1.579843521118164,-5.231851577758789,-0.4488639831542969,-1.1963043212890625,0.6779556274414062,-13.793968200683594,2.3074111938476705,-1.0203399658203267,1.7987442016601562,-10.78311157226564,12.22653198242189,4.0,8.0,08-29,-1.4258516629536946
07-31,-0.3023509979248047,-2.1878547668456996,-4.691781997680664,0.003990173339836645,-1.8177947998046733,3.4145355224609375,-13.666130065917969,1.3773345947265625,-0.6139144897460795,-0.29190826416014204,-7.671211242675781,12.771736145019545,4.0,8.0,08-30,-1.1396125157674108
08-01,-0.4447879791259801,-1.4451026916503906,-3.3415870666503906,0.9750137329101491,-2.8494110107421733,3.4010086059570312,-11.285224914550781,3.0979537963867188,-0.7562561035156392,2.3175201416015625,-5.997032165527344,13.87612915039061,5.0,7.0,08-31,-0.20431470870971888
08-02,-0.14226150512694957,-2.1210823059081996,-1.9896583557128835,1.1583709716796804,-2.671569824218736,2.3956680297851705,-10.442207336425781,3.708282470703125,-1.8387603759765625,2.709716796875,-4.537010192871108,15.200950622558594,5.0,7.0,09-01,0.11920324961344579
08-03,-0.3600788116455078,-1.5196285247802805,-2.3339691162109233,0.47736740112303977,-2.462554931640611,2.4861297607422017,-11.193595886230469,1.8132629394531108,-0.38942718505859375,1.1505355834960938,-1.4125518798828125,13.487648010253892,5.0,7.0,09-02,-0.02140522003173828
08-04,-0.9804477691650426,-0.903427124023434,-0.2235107421875,0.1717834472656179,-2.2706146240234375,2.6761245727539205,-13.589324951171875,2.0263824462890767,-0.7094116210937642,1.7531585693359375,-0.327392578125,16.667198181152344,5.0,7.0,09-03,0.35754315058390357
08-05,-1.0689201354980433,-0.6426010131835902,-0.3086090087890554,-0.3636322021484304,-2.2616806030273295,3.459533691406264,-11.637413024902344,1.7206192016601562,-0.831756591796875,0.7923583984375,0.308074951171875,14.803230285644545,5.0,7.0,09-04,0.3307669957478894
08-06,-0.8995018005371058,-0.5800113677978445,1.560213088989265,0.307830810546875,-1.606361389160142,2.402076721191392,-10.702766418457031,1.3020782470703125,-0.3497161865234375,0.6770706176757812,-0.0633392333984375,15.021316528320327,6.0,6.0,09-05,0.5890741348266628
08-07,-0.9156379699707031,-0.6718006134033203,0.891550064086907,-1.2112503051757812,-0.687408447265625,2.8091888427734233,-9.52066802978517,1.3950958251953125,-0.09452056884765625,0.38729095458984375,-0.8276214599609375,12.222251892089858,5.0,7.0,09-06,0.3147058486938459
08-08,-0.4679031372070277,-0.35467720031738637,0.26575660705566406,-1.0269393920898366,-1.2899932861328125,1.4973449707031108,-11.985618591308594,2.380950927734375,0.03780364990235796,1.7582473754882812,-4.516632080078125,10.200149536132827,6.0,6.0,09-07,-0.29179255167643053
08-09,-0.3953056335449254,0.08764266967773082,-1.7616748809814453,-1.1410484313964915,-1.2275161743164062,2.008483886718764,-11.573257446289062,3.0226974487304688,0.7844696044921875,1.3355026245117188,-3.724761962890625,7.0225677490234375,6.0,6.0,09-08,-0.4635167121887207
08-10,-0.0806732177734375,-0.4423236846923828,0.8358173370361328,-0.8996772766113281,-0.34369659423828125,2.162284851074247,-12.18719482421875,1.8973083496094034,2.712615966796861,3.0168685913085938,0.7723083496093608,6.84326171875,7.0,5.0,09-09,0.3572416305542016
08-11,0.09682273864746094,0.855401992797848,0.04285430908203125,1.2551536560058523,-0.9328689575195312,2.144195556640639,-7.339775085449219,1.850814819335966,3.2797164916992188,5.6878509521484375,3.157722473144517,0.099609375,10.0,2.0,09-10,0.849791526794435
08-12,0.37513160705566406,0.9388656616210902,-0.0214385986328125,1.31658935546875,0.13391876220703125,0.8730545043945312,-7.266517639160156,2.5483474731445455,1.3704986572265625,5.217071533203111,3.8713836669921733,4.333068847656264,10.0,2.0,09-11,1.1408311525980628
08-13,0.22588729858398438,1.1641979217529261,-0.7629737854003977,2.479572296142571,0.424041748046875,0.20355987548828125,-6.799171447753906,0.78125,0.9735336303710795,5.774322509765611,4.086479187011719,6.504585266113281,10.0,2.0,09-12,1.2546070416768353
08-14,0.7583332061767543,1.1683731079101598,-1.5087947845458984,3.243194580078118,0.9150543212890625,0.4026031494140625,-7.880462646484375,-3.348236083984361,3.1568603515624716,5.514923095703125,7.2930831909179545,6.335243225097656,9.0,3.0,09-13,1.337514559427894
08-15,1.6215476989746094,1.777587890625,-1.5002098083496094,2.7823944091796804,2.52191162109375,0.0859527587890625,-6.982452392578125,-1.5811233520507812,3.5443878173828125,4.803924560546861,7.879653930664034,6.79345703125,9.0,3.0,09-14,1.8122526804606078
08-16,1.746591567993164,2.1406211853027344,-0.21860885620117188,2.5146827697753835,2.602264404296875,-1.0630798339844034,-6.909149169921875,-2.3158645629882812,1.2476119995117188,3.9680404663085795,6.804267883300753,8.14816284179686,8.0,4.0,09-15,1.5554617245991949
08-17,1.9926395416259766,1.5021839141845739,0.3000335693359446,2.4225196838378835,2.704933166503892,-1.8501968383789205,-9.254959106445312,-2.7064743041992188,2.2494888305664062,3.4684295654296733,6.4425506591796875,11.24606323242186,9.0,3.0,09-16,1.5431009928385373
08-18,2.605760574340824,1.8276538848876953,2.3960418701171946,4.134086608886719,2.5129852294921733,-1.8366088867187642,-9.429031372070312,-2.8738861083984375,2.816589355468736,3.093719482421875,7.586372375488281,11.186286926269531,9.0,3.0,09-17,2.0016641616821262
08-19,2.605764389038086,2.5203399658203125,3.0518569946289134,4.248180389404304,3.744964599609361,-1.859222412109375,-6.808311462402344,-3.7667617797851562,3.8657379150390625,2.3443069458007955,3.65631103515625,10.359527587890625,9.0,3.0,09-18,1.9968911806742362
08-20,2.7187099456787145,2.599617004394535,3.634780883789059,4.098976135253913,2.852264404296875,-1.017799377441392,-4.3983612060546875,-3.6923599243164205,3.6956100463867188,3.1321563720703125,6.7553939819335795,10.757972717285156,9.0,3.0,09-19,2.594746748606364
08-21,2.1539955139160156,3.0127162933349574,4.157711029052731,4.3798370361328125,3.8833084106445312,-1.470184326171875,-1.9609451293945312,-4.650321960449247,4.1681900024414205,2.1041107177734375,8.53466796875,10.767929077148438,9.0,3.0,09-20,2.9234178860982243
08-22,2.069284439086914,2.937606811523434,3.763378143310536,2.7165565490722656,3.419097900390625,-1.2304306030273438,2.0159530639648438,-3.8411636352539205,3.5916213989257812,4.275489807128906,9.121231079101562,8.138198852539091,10.0,2.0,09-21,3.081401983896891
08-23,2.2185287475585938,3.192142486572262,2.734653472900394,3.62060546875,2.4862136840820312,-1.388771057128892,0.8522109985351562,-4.8177337646484375,4.895957946777344,5.072959899902344,12.601585388183594,4.6717376708984375,10.0,2.0,09-22,3.0116742451985687
08-24,2.2346649169921875,3.3298435211181605,0.7072391510009801,3.5503883361816335,3.44586181640625,-1.5470886230468608,1.0904464721679688,-3.6551513671875284,4.820343017578125,4.2562789916992045,13.21749114990233,-0.9961090087890625,9.0,3.0,09-23,2.537850697835282
08-25,2.3516407012939453,2.895877838134762,1.0544319152832067,3.9453582763671875,2.6826171875,-2.9630050659179545,0.5223159790039062,-3.9899749755859517,4.8108901977539205,4.602165222167969,11.81948852539061,0.9961090087890625,10.0,2.0,09-24,2.3939929008483887
08-26,2.1418876647949254,2.820774078369137,0.5143623352050817,3.6030349731445312,1.4060211181640625,-3.7003326416015625,-2.8955764770507812,-3.0598983764648438,4.574600219726548,4.6598052978515625,10.929847717285156,-1.623649597167983,8.0,4.0,09-25,1.6142396926879863
08-27,1.5570030212402415,2.078022003173828,-2.310333251953125,3.2607345581054688,2.5487213134765625,-2.1260986328125,-4.81072998046875,-4.148078918457017,4.357208251953111,1.4988174438476562,8.622650146484375,-2.460388183593736,7.0,5.0,09-26,0.672293980916343
08-28,1.254476547241211,2.4911270141601527,-2.8589706420898438,2.6946067810058736,3.9637069702148295,-2.2165603637695312,-5.65374755859375,-4.027168273925753,4.73528289794919,1.6045379638671875,7.45928955078125,-3.7852096557617188,7.0,5.0,09-27,0.47178093592325815
08-29,1.258508682250973,3.10451507568359,-1.3073368072509766,2.1460304260253977,3.7717666625976562,-2.40655517578125,-6.579261779785156,-5.078132629394517,4.3950271606445455,-1.2201995849609375,6.3741302490234375,-1.4443664550781108,6.0,6.0,09-28,0.25117715199788765
08-30,0.9075794219970703,3.046100616455078,-0.8401260375976634,2.681446075439446,3.7628326416015483,-3.5193557739257955,-6.368522644042969,-4.4922027587890625,3.9507980346679688,-0.2593994140625,5.7386627197265625,-0.14942169189451704,6.0,6.0,09-29,0.3715325991312639
08-31,1.355316162109375,3.0502738952636754,-2.1817378997802805,2.0099830627441406,4.213638305664048,-3.0489349365234517,-9.878036499023438,-2.1484298706054688,3.4687576293945312,-0.14411163330078125,6.090606689453125,1.3347778320312642,7.0,5.0,09-30,0.34350856145222836
09-01,1.8796997070312536,1.9778804779052699,-1.5130748748779226,3.0983657836914062,3.597663879394517,-2.5920486450195455,-4.94818115234375,-2.2414474487304688,3.21356201171875,-0.8550872802734375,7.6157073974609375,-3.6557159423828125,6.0,6.0,10-01,0.4647769927978498
09-02,1.7264118194580043,1.660757064819336,-0.8872814178466797,2.9272079467773438,4.396644592285142,-3.8224639892578267,-5.351356506347656,-3.2273025512695312,5.113319396972642,-0.7205963134765625,7.8992156982421875,-3.8848190307617188,6.0,6.0,10-02,0.48581139246622335
09-03,1.653814315795902,1.2184371948242188,-0.3643321990966797,3.238800048828125,4.285072326660142,-5.591217041015611,-5.7637176513671875,-5.1711273193359375,4.933746337890625,-0.1248931884765625,6.2959060668945455,-0.7072372436523295,6.0,6.0,10-03,0.32527097066243754
09-04,1.339181900024414,1.8860855102539027,-1.0887107849121094,2.8350448608398438,3.4369964599609375,-5.631927490234375,-5.1497802734375,-3.9620437622070312,7.145454406738281,0.31705474853515625,2.825347900390625,-0.527931213378892,7.0,5.0,10-04,0.2853976885477711
09-05,0.47193336486816406,2.0070953369140625,-1.9374256134033203,3.4406890869140625,2.7094192504882812,-5.785728454589858,-5.74542236328125,-3.8876419067382812,8.081169128417969,-1.7966766357421875,1.0460739135742188,0.7869262695312642,7.0,5.0,10-05,-0.050799051920572914
09-06,0.3509197235107422,1.6524143218994176,-1.084426879882809,1.58428955078125,3.2985916137695312,-5.76763916015625,-3.427093505859375,-5.1804428100585795,7.618049621582031,-3.1417617797851705,-1.3393402099609375,2.2711257934570455,6.0,6.0,10-06,-0.2637761433919253
09-07,0.8672389984130895,2.386806488037106,-0.9644107818603516,1.5228538513183523,2.1648406982421875,-5.460029602050781,-1.6585693359375,-4.789817810058608,7.797622680664048,-2.6709823608398438,-1.8672561645507812,4.910812377929702,6.0,6.0,10-07,0.18659241994221828
09-08,1.0648918151855469,2.3617744445800817,-0.891550064086907,0.5397987365722656,4.133293151855469,-5.722404479980469,-2.7490005493164062,-3.4598312377929688,8.194587707519531,-3.487648010253892,0.1075439453125,3.5461502075195455,7.0,5.0,10-08,0.3031338055928581
09-09,0.5687503814697266,2.27414512634277,-0.14572906494140625,0.9435539245605469,2.798675537109375,-6.803520202636719,-1.6402206420898438,0.669654846191392,6.7390518188476705,-3.9103851318359375,-0.7821044921875,3.5859909057617188,7.0,5.0,10-09,0.35815525054931613
09-10,0.35495758056640625,1.6649303436279297,0.25289154052734375,0.8470039367675781,-0.40172576904296875,-5.849052429199219,-2.1350555419921875,-0.5301284790039062,6.975326538085952,-2.41156005859375,-4.8099212646484375,3.1875457763671733,6.0,6.0,10-10,-0.23789898554484049
09-11,0.22991371154785156,1.2142601013183558,0.15431594848632812,-0.07021713256835938,-0.8659210205078125,-5.378585815429673,-2.2083587646484375,-8.398452758789062,6.370422363281264,-13.479804992675781,-3.0306320190429545,1.8328399658203125,5.0,7.0,10-11,-1.9691850344339974
09-12,0.5284214019775391,1.4896678924560547,1.4230499267578196,-0.1799316406249858,-0.17407989501953125,-4.591468811035156,1.4752883911132812,-8.286849975585938,5.377983093261719,-11.942550659179673,-3.5487823486328125,4.761398315429659,6.0,6.0,10-12,-1.1389878590901688
09-13,0.7421970367431641,1.4020328521728551,0.651508331298821,-1.413135528564446,0.0178680419921875,-6.188316345214844,1.6585617065429688,-8.2403564453125,6.946983337402344,-12.826469421386719,-4.692604064941406,5.6479339599609375,7.0,5.0,10-13,-1.357816378275553
09-14,0.8874111175537074,1.7358474731445348,0.7544021606445241,-1.5272293090820312,-0.209808349609375,-7.3101654052734375,2.9139480590820312,-8.128738403320312,5.6048431396484375,-12.07705688476564,0.29329681396484375,5.817276000976591,7.0,5.0,10-14,-0.9371644655863438
09-15,0.4961433410644496,1.9236278533935547,0.14574432373046875,-1.3341407775879048,0.6918258666992188,-10.4586181640625,2.6573486328125,-8.649574279785156,5.774971008300781,-15.958641052246094,3.724754333496108,3.63580322265625,8.0,4.0,10-15,-1.4458963076273603
09-16,0.6615180969238317,1.6732616424560547,-0.3771858215332031,-1.8739471435546946,0.41509246826171875,-10.377204895019531,2.0617446899414062,-7.6916122436523295,6.238105773925753,-17.198059082031236,1.8086166381835795,5.528396606445284,7.0,5.0,10-16,-1.5942727724711139
09-17,0.907577514648441,1.7483711242675781,-0.021438598632805395,-1.0357208251953196,0.053558349609375,-9.648918151855469,2.6207122802734375,-8.3333740234375,6.332611083984361,-16.17961883544922,0.977622985839858,5.319213867187443,7.0,5.0,10-17,-1.4382836023966517
09-18,0.7583332061767614,1.5313949584960973,0.8529624938964915,0.16238784790039062,-0.7096939086914062,-10.25054931640625,3.784454345703125,-7.886955261230469,6.0207138061523295,-14.498237609863281,-0.4594879150390767,8.785675048828097,7.0,5.0,10-18,-0.9924168586730993
09-19,0.9640541076660156,1.7150001525878906,0.051422119140632105,0.7592353820800852,-0.7900314331054688,-10.092231750488281,5.323905944824219,-7.831146240234375,4.366676330566406,-16.26610565185547,-1.6912994384765767,16.595169067382812,7.0,5.0,10-19,-0.5746126174926758
09-20,0.6494216918945312,1.7609024047851562,1.3759193420410014,0.263317108154304,-0.02678680419921875,-8.074661254882812,6.680061340332031,-7.859039306640625,3.846832275390625,-17.10198974609375,-0.29329681396485796,17.013534545898438,7.0,5.0,10-20,-0.14714876810709812
09-21,0.9196834564208984,1.493831634521488,2.271741867065419,0.6056404113769602,4.932258605957031,-5.622856140136719,7.0832443237304545,-9.207633972167955,3.67669677734375,-17.159629821777344,2.8253402709960795,14.184585571289091,9.0,3.0,10-21,0.5002419153849296
09-22,0.4396781921386719,2.2449398040771555,3.7462425231933523,1.0006065368652344,5.5125274658203125,-3.8450851440429688,8.943389892578125,-9.840072631835938,3.8940887451171875,-13.162757873535156,5.7484359741210795,13.756263732910156,9.0,3.0,10-22,1.5365214347839344
09-23,0.25008964538573863,2.50781440734864,4.294879913330071,0.40375900268553977,5.8874969482421875,-1.0133056640625,9.804702758789077,-9.960983276367202,4.867614746093764,-10.856864929199219,6.188362121582017,15.648857116699219,9.0,3.0,10-23,2.335201899210611
09-24,0.4638748168945348,1.8944263458252024,3.531919479370117,0.3905830383300781,7.4319000244140625,-3.0896530151367188,11.48160552978517,-8.817008972167969,8.128425598144545,-10.597450256347656,8.837730407714844,15.021316528320312,9.0,3.0,10-24,2.8898057937622106
09-25,0.8148040771484375,1.623189926147461,4.817827224731445,0.22382354736327414,6.164215087890625,-1.6737594604492188,11.270866394042983,-9.077423095703125,7.306144714355483,-10.482185363769517,7.635261535644531,13.726371765136719,9.0,3.0,10-25,2.6957613627115915
09-26,0.7744674682617152,1.5230484008788991,5.126443862915039,1.1278800964355469,5.267066955566406,-2.1441802978515625,17.511062622070312,-8.277572631835938,8.440330505371094,-12.115509033203125,7.635261535644531,11.9134521484375,9.0,3.0,10-26,3.065145969390868
09-27,0.23395347595214844,1.898584365844716,3.4333343505859375,0.8513870239257812,5.8830413818359375,-2.0627517700195312,17.85011291503905,-10.444602966308594,9.19647216796875,-10.770401000976562,6.110160827636719,12.481246948242216,9.0,3.0,10-27,2.888378143310547
09-28,-0.22185325622558594,1.7358627319335938,5.726518630981445,1.0225448608398438,5.534873962402344,-1.6330184936523438,17.795120239257812,-10.2772216796875,8.38364410400392,-10.904891967773438,4.956558227539077,9.552688598632784,8.0,4.0,10-28,2.639235496520996
09-29,0.10487365722655895,1.614847183227539,5.362174987792969,0.7109527587890625,6.632926940917969,-3.103179931640625,15.559303283691406,-8.872817993164062,8.563217163085938,-5.803131103515611,5.406257629394531,7.032524108886719,9.0,3.0,10-29,2.7673290570576996
09-30,-0.38723182678222656,1.6565780639648473,6.086553573608398,0.7109527587890625,6.173187255859375,-0.6106948852539062,15.247726440429688,-10.081901550292969,7.249427795410156,-6.64862060546875,5.083648681640639,3.1178131103515483,8.0,4.0,10-30,2.2997865676879887
10-01,0.27832603454589844,1.5355682373046875,8.679801940917969,0.20627212524414062,8.346931457519531,0.3980865478515625,13.01190185546875,-9.38433837890625,6.54998779296875,-6.590980529785156,7.996978759765611,3.4166488647460938,10.0,2.0,10-31,2.8704320589701324
10-02,0.3993396759033203,1.819309234619137,8.868389129638672,0.6538963317871094,6.7043304443359375,0.3980865478515625,10.693572998046875,-9.830780029296875,4.877052307128906,-5.7550888061523295,11.311119079589844,1.9324493408203125,10.0,2.0,11-01,2.6726396878560394
10-03,0.3509254455566406,1.8610401153564418,7.599643707275391,0.20627212524414773,6.771293640136719,0.09047698974609375,8.879249572753892,-9.588943481445312,4.0169448852539205,-3.497276306152358,11.125373840332031,2.1715240478515625,10.0,2.0,11-02,2.4988770484924308
10-04,-0.4477424621582067,1.848520278930664,5.970823287963864,0.026344299316413355,4.8028411865234375,0.488555908203125,8.860931396484375,-8.65890502929689,3.459320068359389,-3.2378616333008097,9.15057373046875,3.7852096557617188,9.0,3.0,11-03,2.170717557271319
10-05,-0.020168304443359375,1.518875122070316,5.975107192993157,-0.3774108886718679,6.5481109619140625,5.6183624267578125,8.622657775878892,-8.556587219238281,2.731529235839858,-2.815124511718764,9.199462890625,9.223960876464844,8.0,4.0,11-04,3.139064629872639
10-06,-0.020170211791992188,1.3060665130615163,5.567901611328118,1.7905693054199219,6.623985290527344,4.11651611328125,9.887214660644517,-9.123916625976562,2.4952545166015767,-2.7286376953125,9.512306213378906,12.2620849609375,9.0,3.0,11-05,3.4740978876749664
10-07,-0.08470726013183594,1.3937034606933558,5.6664772033691335,0.9654998779296875,6.940910339355469,5.450958251953125,8.750968933105469,-1.2555923461914062,3.3269882202148438,-2.5653076171875,12.103004455566406,3.854934692382841,9.0,3.0,11-06,3.712319850921632
10-08,-0.6292629241943359,1.118295669555657,5.2378883361816335,1.7817802429199219,9.154853820800781,7.111152648925781,7.4131317138671875,-1.9531478881835938,3.676696777343736,-3.0072708129882812,16.169921875,-2.1715240478515057,8.0,4.0,11-07,3.658542950948082
10-09,-0.8430385589599609,1.723352432250973,5.1735877990722585,3.282684326171868,9.342445373535156,8.694412231445312,7.2298583984375,-0.9672775268554688,3.4971084594726562,8.454910278320312,14.850128173828125,-3.058059692382784,9.0,3.0,11-08,4.781675974527996
10-10,-0.3710975646972585,1.9486713409423793,5.340747833251946,2.571990966796868,8.338142395019531,9.816261291503906,5.378845214843764,0.4650421142578125,3.74285888671875,9.540580749511719,13.794288635253906,2.2013854980468466,11.0,1.0,11-09,5.230643113454181
10-11,-0.3100376129150355,1.936059951782216,5.892311096191406,2.528106689453132,7.4365081787109375,13.6500244140625,5.516792297363281,2.6445159912109375,3.506561279296875,12.634315490722656,10.362831115722642,2.699447631835909,11.0,1.0,11-10,5.7081197102864545
10-12,0.5326251983642614,1.3786888122558558,3.5195846557617188,3.067913055419922,6.29803466796875,14.017623901367188,4.348968505859361,3.4930267333984375,2.5708465576172017,13.873733520507798,12.33761596679689,6.349441528320284,12.0,0.0,11-11,5.982341925303139
10-13,0.3595390319824219,0.9690589904785156,3.5581703186035156,0.893524169921875,7.162384033203125,13.731719970703125,3.9346771240234375,3.3256301879882812,2.4763412475585938,12.488586425781264,11.945022583007827,9.769805908203125,12.0,0.0,11-12,5.884538332621259
10-14,0.08603858947753551,0.9314994812011683,2.6837692260742188,0.792083740234375,7.426628112792969,12.825492858886705,4.256935119628906,2.87921142578125,2.27587890625,11.562171936035156,12.219841003417983,8.583770751953153,12.0,0.0,11-13,5.543610095977786
10-15,-0.1358184814453125,0.747894287109375,3.8304290771484375,0.831787109375,7.8734893798828125,10.88739013671875,2.479248046875,4.299163818359375,1.839385986328125,9.3330078125,12.27276611328125,6.4421234130859375,11.0,1.0,11-14,5.0584055582682295
10-16,0.17881393432617188,0.7398147583007812,4.645763397216797,0.085662841796875,8.488143920898438,10.285736083984375,1.1230926513671875,3.271759033203125,1.7255401611328125,6.3307418823242045,11.608276367187514,6.0237579345703125,12.0,0.0,11-15,4.542258580525716
10-17,-0.4781761169433629,0.1809844970703196,4.292026519775391,-0.921733856201179,4.805694580078125,7.833930969238281,-1.4869689941406108,3.53326416015625,1.7342529296875,7.392005920410156,9.379280090332031,6.072708129882784,9.0,3.0,11-16,3.5281057357788073
10-18,-0.4252586364746129,0.21460342407226562,3.079143524169922,-0.9743995666503906,4.225425720214844,6.659751892089844,0.002685546875,3.5618896484375,0.89898681640625,6.556121826171875,6.456184387207031,9.022720336914034,10.0,2.0,11-17,3.2731545766194636
10-19,0.010322570800784803,0.13995361328124645,2.8452796936035227,-0.377552032470696,4.280387878417969,6.056159973144531,1.0325698852539205,3.91583251953125,-0.45261383056640625,4.2502288818359375,5.4568099975585795,10.472717285156222,10.0,2.0,11-18,3.135841369628905
10-20,0.24766921997070312,-0.35515403747559304,2.0566062927246094,-0.8318061828613281,3.9758453369140625,6.705146789550781,0.6285934448242188,3.8228225708007812,-3.7134246826171875,5.6602935791015625,5.2114334106445455,9.163925170898438,9.0,3.0,11-19,2.7143292427062993
10-21,0.5635547637939418,-0.02550315856933949,0.7706985473632812,-0.6686439514160156,3.8638992309570312,5.945335388183594,3.623939514160142,4.0832366943359375,-2.3028564453125,5.747146606445327,4.642173767089844,9.7615966796875,9.0,3.0,11-20,3.000381469726562
10-22,0.15615463256835938,0.0746383666992223,-0.49562835693359375,1.2848739624023438,2.346435546875,7.979637145996094,0.8932571411132812,3.5168685913085938,-2.4736557006835938,6.258605957031236,3.9377822875976562,10.090316772460938,10.0,2.0,11-21,2.7974405288696276
10-23,0.6966686248779261,0.316753387451179,-0.1116790771484375,2.2328109741210938,1.9453659057617188,7.441322326660156,0.5542068481445455,2.1905746459960938,-1.4773712158203125,7.24822235107419,2.4722824096679688,9.522521972656222,10.0,2.0,11-22,2.752639929453528
10-24,0.733184814453125,0.24532699584961648,-0.8752593994140625,2.1789283752441335,1.4945526123046875,7.011589050292969,-0.18158721923828125,3.1245956420898438,-1.9972000122070312,8.230133056640625,3.342376708984361,12.451080322265653,9.0,3.0,11-23,2.979810078938803
10-25,0.6395492553710938,0.23272323608399859,-0.07370376586914062,2.6836090087890554,0.3964996337890625,9.389450073242188,0.9678268432617188,5.003318786621094,-1.8253707885742188,2.5326690673827983,2.8926773071289062,12.451080322265653,10.0,2.0,11-24,2.9408607482910174
10-26,1.160614013671875,0.24523162841797586,-1.313995361328125,2.639739990234368,1.3578262329101562,10.610275268554688,1.7494354248046733,4.195869445800781,-2.7232894897460938,3.3781585693359375,2.410469055175753,12.451080322265653,10.0,2.0,11-25,3.0134512583414703
10-27,0.841949462890625,-0.13446044921875,-3.0585289001464844,2.3066024780273366,1.5638351440429688,10.710136413574205,2.665748596191392,3.4239044189453125,-2.0238494873046875,4.217987060546875,2.1454696655273295,16.375755310058594,9.0,3.0,11-26,3.2528791427612265
10-28,1.271032333374027,-0.06352043151855469,-3.2471160888671875,3.0209922790527273,1.747467041015625,9.448066711425767,1.40130615234375,3.8703460693359375,-0.4173431396484375,4.681190490722656,4.481391906738267,18.547271728515625,9.0,3.0,11-27,3.728423754374184
10-29,0.8031272888183594,-0.10525131225585938,-2.711742401123054,2.862243652343743,-0.31470489501953125,10.881782531738295,1.447105407714858,4.534515380859375,0.370208740234375,4.729423522949219,3.1713714599609375,15.668510437011719,9.0,3.0,11-28,3.4447158177693695
10-30,1.6017951965332067,0.6929931640625036,-2.7635231018066406,2.5888214111327983,1.8247528076171875,10.746078491210952,1.465423583984375,5.03887939453125,0.13298797607421875,1.9654769897460795,4.146636962890611,14.054824829101562,11.0,1.0,11-29,3.4579289754231755
10-31,1.5080337524414027,0.6257591247558629,-1.4261817932128906,2.3727569580078054,1.4141006469726562,5.616271972656264,2.595664978027358,4.310340881347656,1.4711608886718608,2.9052276611328267,4.987396240234361,8.616073608398438,11.0,1.0,11-30,2.9163837432861333
11-01,0.9625377655029297,0.6971817016601456,-0.39583587646484375,0.3013267517089844,1.338226318359375,7.8215713500976705,2.3657760620117188,5.280227661132798,1.4604797363281108,1.319915771484375,4.6745529174804545,8.616073608398438,11.0,1.0,12-01,2.8701694806416795
11-02,1.0032424926757777,0.3596687316894531,0.6927947998046946,1.1263961791992188,0.7570648193359375,8.6702880859375,1.933578491210966,3.681610107421875,1.2336502075195312,1.156585693359375,1.573478698730483,8.616073608398438,12.0,0.0,12-02,2.5670359929402706
11-03,1.0009918212890625,1.0536842346191477,-0.14735031127929688,0.6364402770996094,0.5420989990234375,9.146797180175781,2.6974029541015625,4.2675628662109375,0.8839416503906392,2.3995208740234375,1.229957580566392,6.9426116943359375,11.0,1.0,12-03,2.554471651713054
11-04,1.390615463256836,0.5362625122070312,-0.08304977416992188,1.3552169799804688,0.36295318603515625,9.670463562011719,1.6940231323242188,3.2816925048828125,0.9117126464843608,3.22943115234375,0.8962554931640625,10.976852416992159,11.0,1.0,12-04,2.851869106292721
11-05,0.7734603881835902,0.310943603515625,-0.7678909301757812,-0.11321640014648438,-0.47022247314453125,8.47781372070314,2.289649963378892,1.2048797607421875,0.03878784179688921,3.22943115234375,-0.41585540771484375,5.548065185546875,8.0,4.0,12-05,1.675487200419109
11-06,0.7124004364013672,0.46219253540039773,-1.4926338195800781,-1.0098266601562358,0.067169189453125,7.792503356933608,2.151702880859375,0.5884246826171875,1.5853805541992188,3.5420608520507812,-0.15726470947264204,5.0500030517578125,9.0,3.0,12-06,1.6076760292053265
11-07,-0.5210666656494105,0.7185020446777415,-1.36322021484375,-0.5203742980957031,1.4823760986328125,7.4249038696289205,2.363212585449247,1.9053955078125,0.81683349609375,-2.2388229370117188,-0.2159118652343608,1.4000091552734375,7.0,5.0,12-07,0.9376530647277889
11-08,-0.19946670532226562,0.3613548278808594,-1.6997032165527344,0.8157882690429688,0.6180267333984375,7.9150390625,3.8896484375,1.3823318481445312,0.49340057373048296,-1.8721160888672017,0.1766815185547017,1.4000091552734375,9.0,3.0,12-08,1.1067495346069347
11-09,-0.21982383728027344,0.9201812744140625,-0.32355499267578125,0.9172286987304688,-0.17018890380859375,7.524711608886719,2.9976959228515767,2.6993331909179688,1.005760192871108,-0.9457015991210938,1.8942642211914062,1.4000091552734375,8.0,4.0,12-09,1.474992911020917
11-10,-0.8670768737792969,0.7647171020507741,-0.6686744689941406,2.5311927795410156,2.543792724609375,7.520179748535156,1.4988479614257812,1.22357177734375,1.442253112792983,0.37635040283201704,3.2781295776367188,0.4499969482421875,10.0,2.0,12-10,1.6744400660196934
11-11,-0.7083225250244176,0.7268943786621023,-1.4840087890625,1.7198143005371094,2.0377197265625,9.272056579589844,-0.0551605224609375,2.2509765625,1.480194091796875,-2.0940780639648438,3.7099990844726562,0.6200103759765625,8.0,4.0,12-11,1.4563412666320792
11-12,-0.32159423828125,1.285724639892564,-2.01031494140625,2.809001922607429,2.1676025390625,7.692657470703111,2.1517181396484375,3.1383132934570455,1.2999114990234375,-1.8721313476562642,2.1788864135742188,3.4000091552734375,9.0,3.0,12-12,1.8266487121582013
11-13,-0.37451171875,1.3403472900390554,-1.4451866149902273,3.346996307373047,-1.0166015625,7.089065551757798,0.6620635986328267,3.0355911254882812,1.0721817016601562,-1.2255706787109233,1.9531402587890625,0.4499969482421875,8.0,4.0,12-13,1.2406260172526054
11-14,-0.9729270935058665,1.6975021362304688,-2.057788848876953,3.633625030517578,-1.446533203125,7.692657470703111,-0.9839248657226562,2.428459167480483,1.461219787597642,-1.8238677978515767,2.5125885009765767,-1.0,6.0,6.0,12-14,0.9284175237019839
11-15,-1.1886844635009801,1.5126190185546946,-2.5840797424316335,4.101055145263672,-1.1419906616210938,7.837898254394531,-2.960914611816392,0.7658843994140625,2.71368408203125,-3.493347167968764,2.757965087890611,-1.0,6.0,6.0,12-15,0.6100074450174965
11-16,-0.7083263397216832,2.416004180908203,-2.0405235290527415,3.9378929138183594,-0.32692718505859375,6.5762252807617045,-3.8804473876953125,-0.17746734619140625,2.125396728515625,-3.5802001953125284,4.7503509521484375,-1.0,5.0,7.0,12-16,0.6743315060933387
11-17,-0.9973487854003906,2.529447555541985,-1.0828132629394602,2.2754364013671875,-0.779266357421875,5.8001251220703125,-2.905731201171875,-0.41094970703125,2.2961959838867188,-6.562088012695298,4.014251708984375,0.0,5.0,7.0,12-17,0.34810495376586914
11-18,-0.5007114410400391,1.9117965698242116,-1.4667625427246165,4.356819152832031,-1.0076980590820312,3.703399658203125,-3.68731689453125,0.91534423828125,-1.0057754516601705,-7.295509338378892,4.249801635742159,0.0,5.0,7.0,12-18,0.01444896062214814
11-19,-0.08142089843750355,1.9832229614257741,-0.7376861572265554,4.475879669189453,-0.5150299072265625,5.264595031738281,-2.8965301513671875,-0.084075927734375,0.1992492675781108,-10.200210571289048,4.230194091796847,0.0,5.0,7.0,12-19,0.1365156173706028
11-20,0.012214660644527697,1.7269134521484304,-0.4141349792480469,4.8154296875,1.3569793701171875,4.356895446777344,-4.0459442138671875,-0.25218963623046875,1.1860656738281108,-8.858833312988281,5.054603576660156,0.0,7.0,4.0,12-20,0.41149997711181435
11-21,-0.9037265777587855,1.9580001831054616,-1.164764404296882,4.171623229980469,0.8553924560546875,3.1360702514648438,-6.648262023925753,0.0279998779296875,0.9203567504882812,-10.016853332519531,5.859420776367202,0.0,7.0,4.0,12-21,-0.15039523442585997
11-22,-1.1194744110107422,2.105060577392564,-0.21138763427734375,3.457233428955078,0.649383544921875,5.19196319580081,-8.441360473632798,-0.9153594970703125,0.8444671630859375,-10.480056762695312,6.124420166015625,0.0,6.0,5.0,12-22,-0.23292589187621834
11-23,-0.9362888336181641,2.756336212158203,1.1173171997070312,3.457233428955078,0.49710845947265625,5.595878601074247,-7.576972961425767,-1.6065216064453125,0.056915283203125,-10.480056762695312,4.54425048828125,0.0,7.0,4.0,12-23,-0.21456670761108043
11-24,-0.3989391326904297,1.970611572265618,1.169097900390618,5.018287658691406,1.0882720947265625,6.367424011230483,-6.1884765625,-2.1108856201171875,0.056915283203125,-9.910682678222656,4.59332275390625,0.0,7.0,4.0,12-24,0.13791227340698242
11-25,-0.732751846313473,2.0378456115722585,1.169097900390618,5.018287658691406,1.0882720947265625,6.444587707519517,-7.0804443359375,-2.1108856201171875,0.29413604736328125,-9.910682678222656,4.59332275390625,0.0,7.0,4.0,12-25,0.06756544113158973
11-26,-0.187255859375,2.0378456115722585,-0.1682434082031321,4.519977569580078,0.16568756103515625,6.408279418945298,-6.850555419921861,-1.3823471069335938,0.31311798095703125,-10.634437561035156,3.2388687133789205,0.0,6.0,5.0,12-26,-0.21158854166666666
11-27,-0.187255859375,2.0336456298828267,-0.08197021484375,5.666542053222663,1.3614578247070312,5.559562683105469,-6.850555419921861,-2.1949539184570312,0.32260894775392046,-9.843147277832045,4.2694320678710795,0.0,6.0,5.0,12-27,0.004613876342775214
11-28,-0.05291557312011719,2.1008758544921946,0.4141387939453125,5.662120819091797,1.5764236450195312,5.559562683105469,-5.0574722290039205,-2.4845123291015625,-1.005775451660142,-8.077163696289062,4.6129531860351705,0.0,6.0,5.0,12-28,0.27068630854288916
11-29,0.05699729919433594,2.193321228027358,0.3537406921386719,5.335796356201172,1.5764236450195312,5.10577392578125,-4.9195327758789205,-2.008155822753892,-0.493408203125,-8.878135681152344,4.6129531860351705,0.0,7.0,4.0,12-29,0.2446478207906111
11-30,0.14655494689941406,2.4748268127441406,-2.1397361755371094,4.6170196533203125,1.9794845581054688,5.319061279296889,-5.3701171875,-1.1768875122070312,-0.34159088134764204,-9.708045959472656,4.769989013671875,0.0,6.0,5.0,12-30,0.04754654566447177
12-01,-0.2238903045654297,1.8277435302734375,-1.6220550537109375,5.37104415893554,1.8451156616210938,5.713905334472642,-5.682769775390611,-0.5323944091796875,0.5313339233398295,-8.820236206054702,4.720916748046875,0.0,6.0,5.0,12-31,0.2607261339823375
12-02,-0.48443031311035156,1.6891059875488281,-0.8973121643066406,5.37104415893554,1.8451156616210938,6.049743652343736,-4.3769989013671875,0.0840606689453125,-1.0152587890625,-8.820236206054702,4.720916748046875,0.0,6.0,5.0,01-01,0.3471458752950003
12-03,-0.09362602233887074,1.4327964782714844,-1.0267257690429688,5.185855865478516,3.0498504638671875,3.812286376953111,-3.420684814453139,-1.23291015625,-0.3700408935546875,-9.00357055664061,4.868141174316406,0.0,5.0,6.0,01-02,0.2667810122172023
12-04,-0.4152259826660156,1.6386795043945384,-0.5090446472167969,6.632259368896477,3.0050888061523438,3.6080551147460938,-4.947120666503892,-0.6351394653320312,-0.7021331787109375,-4.342552185058608,4.308700561523452,0.0,5.0,6.0,01-03,0.6367972691853853
12-05,-0.4355812072753906,1.7311210632324219,-0.7247352600097656,8.418209075927734,3.5290603637695312,3.998382568359375,-4.79998779296875,-1.1488494873046875,1.18603515625,-3.956558227539034,2.316299438476591,0.0,6.0,5.0,01-04,0.8427829742431688
12-06,-0.7286796569824219,1.991638183593757,-0.13804244995116477,6.7645416259765625,0.8150787353515625,3.7714385986328267,-5.6735382080078125,-0.9059906005859375,1.897682189941392,-3.956558227539034,0.9324340820312784,0.0,6.0,5.0,01-05,0.3975003560384174
12-07,0.10990715026855469,1.2521247863769531,0.2717742919921946,7.575920104980469,0.998687744140625,2.9772262573242188,-6.464347839355469,-0.8499603271484375,1.9735870361328125,-1.4861297607421733,-1.35443115234375,0.0,7.0,4.0,01-06,0.4170298576354998
12-08,0.7327442169189453,1.7058982849121165,1.1518173217773509,6.133949279785149,1.2091827392578125,0.29045867919921875,-4.082756042480469,-1.998802185058608,2.15386962890625,-5.2979354858398295,-3.22906494140625,0.0,7.0,4.0,01-07,-0.1025532086690261
12-09,0.8752155303955114,1.617656707763679,0.5866889953613281,6.892421722412102,0.3627471923828125,-1.2526245117187358,-4.671241760253906,-1.8960800170898438,1.6984405517578125,-3.425796508789034,-3.8179702758789205,0.0,6.0,5.0,01-08,-0.2525451978047662
12-10,1.0380496978759801,1.2605018615722656,0.8714408874511719,6.358840942382805,0.41651153564453125,1.3932800292968892,-4.055137634277344,-2.830101013183608,3.0742645263671733,-3.107337951660142,-4.308692932128906,0.0,7.0,4.0,01-09,0.009301662445068063
12-11,1.2538070678710938,1.3193473815917898,0.9663429260253906,6.698421478271484,3.1886672973632812,0.5990524291992188,-2.078147888183608,-2.8581085205078267,2.884490966796875,-1.9010696411132812,-3.8277664184570312,0.0,7.0,4.0,01-10,0.5204197565714489
12-12,0.8874397277832067,0.7815208435058594,0.7808418273925781,7.430419921875,2.4855499267578125,1.8607254028320455,-2.2804641723632812,-2.148254394531264,2.2108001708984517,-1.8914260864257528,-5.250892639160156,0.0,7.0,4.0,01-11,0.4055217107137083
12-13,0.8385887145996058,0.8907623291015554,2.0620956420898438,7.1393585205078125,2.9378890991210938,5.341773986816392,-2.9792938232421875,-0.616455078125,0.34159088134765625,0.579002380371108,-4.514793395996094,0.0,8.0,3.0,01-12,1.0017099380493155
12-14,0.8101005554199219,0.29412078857422586,2.7609519958496165,5.057975769042969,3.4619064331054688,4.0210647583007955,-3.0161056518554688,0.4296417236328125,2.647277832031264,1.3124237060547017,-4.504974365234347,0.0,9.0,2.0,01-13,1.1061986287434966
12-15,0.8223037719726562,0.3823547363281321,2.7954559326171804,5.102077484130859,3.6634445190429688,3.694313049316392,-3.1540069580078125,0.4950408935546875,1.442253112792983,5.326881408691406,-5.064430236816378,0.0,9.0,2.0,01-14,1.2921406428019229
12-16,0.8915081024169993,0.6512680053710938,2.471904754638672,5.247581481933594,2.4005050659179688,4.688201904296875,-6.593101501464844,0.6631546020507812,0.45543670654298296,4.56451416015625,-3.9553527832030966,0.0,9.0,2.0,01-15,0.957135041554773
12-17,1.2863845825195312,0.4201812744140625,3.222534179687507,4.775737762451179,3.2603302001953125,2.137603759765639,-4.772392272949233,0.382965087890625,1.3663330078125284,4.661041259765611,-3.111305236816378,0.0,9.0,2.0,01-16,1.1357844670613655
12-18,1.502132415771488,0.27312088012696023,3.8264961242675852,3.38226318359375,2.449737548828125,-0.01815032958984375,-2.9792938232421875,0.6071319580078125,1.935630798339858,4.149559020996094,-0.8931274414062216,0.0,8.0,3.0,01-17,1.1862916946411184
12-19,1.3189468383789098,0.07563400268555398,3.6194305419921946,3.492504119873047,2.4183807373046875,-0.42206573486328125,-3.8436813354492188,0.09343719482421875,0.31311798095701704,5.896240234375,-1.648880004882784,0.0,8.0,3.0,01-18,0.9427553812662787
12-20,1.8563003540039098,0.3277435302734375,3.131946563720703,2.090198516845703,1.8272171020507812,-1.193611145019517,-3.3655319213867188,0.30823516845703125,-1.5750732421875,5.278633117675781,-1.697952270507784,0.0,7.0,4.0,01-19,0.5823421478271523
12-21,1.555063247680664,0.2983207702636719,3.3390083312988352,2.5885086059570312,2.328826904296875,-1.5430679321289205,-4.901153564453125,0.7658843994140625,-1.59405517578125,6.002388000488281,-2.227951049804659,0.0,7.0,4.0,01-20,0.5509810447692889
12-22,2.1819667816162074,0.06302642822264914,3.252735137939453,1.7153663635253906,0.9718475341796875,0.35400390625,-6.583892822265625,1.5784912109375,-1.6035461425781392,6.697204589843764,-5.49627685546875,0.0,8.0,3.0,01-21,0.2609105110168448
12-23,1.5591278076171875,-0.00420379638671875,2.7566261291503906,2.9721755981445384,1.782440185546875,-1.3206710815429688,-6.179298400878906,1.8680496215820312,2.021034240722642,11.348571777343764,-4.436279296875,0.0,7.0,4.0,01-22,1.030631065368653
12-24,1.4492149353027344,-0.0966491699218821,1.639312744140625,3.3028793334960938,1.08380126953125,-1.40240478515625,-6.317237854003906,1.541130065917983,2.049499511718736,9.486076354980483,-7.508323669433608,0.0,7.0,4.0,01-23,0.43560822804768823
12-26,-0.2808856964111328,-0.36556243896485796,1.8852119445800781,3.8232383728027344,-0.41199493408203125,-1.6156921386718892,-7.3378982543945455,4.100349426269531,0.920387268066392,2.6827392578125,-7.0666427612304545,0.0,5.0,6.0,01-25,-0.3055624961853063
12-27,0.05291748046874645,0.1218414306640554,1.9585418701171875,4.53764724731446,-0.27762603759765625,-0.5037384033202983,-6.1976699829101705,5.557441711425781,2.3246841430664062,0.6079711914062642,-7.0175704956054545,0.0,7.0,4.0,01-26,0.09703667958577682
12-28,0.5251388549804688,-0.1134490966796804,2.8601646423339844,4.722835540771484,-0.707611083984375,-2.110382080078111,-8.082725524902358,5.987083435058608,1.6794662475585938,0.7913055419921733,-6.536651611328125,0.0,6.0,5.0,01-27,-0.08206876118977806
12-29,0.24832153320312145,0.24370574951171875,2.3424835205078125,3.805591583251953,-3.0767593383789062,-2.105842590332017,-7.356300354003906,5.389312744140639,2.0115585327148438,-0.00965118408201704,-6.9783172607421875,0.0,6.0,5.0,01-28,-0.45715808868407876
12-30,0.10177421569824219,0.3949699401855469,2.5581741333007812,3.90704345703125,-2.3646697998046875,-2.5869064331054688,-6.4091796875,5.9030227661132955,2.096954345703139,1.2255630493164205,-9.775543212890625,0.0,7.0,4.0,01-29,-0.41239976882934215
12-31,0.39487266540527344,0.30252838134766336,1.6004714965820312,2.0505332946777344,-3.2379684448242188,-4.270660400390639,-5.5356292724609375,6.164558410644531,3.2924957275390625,1.4185485839843892,-9.284820556640653,0.0,7.0,4.0,01-30,-0.5920891761779803
