,2009,2010,2011,2012,2013,2014,2015,2016,2017,2018,2019,2020,ups,downs,end_day_sum,avg
01-02,-1.3199996948242223,-0.7950000762939489,-0.7299995422363352,2.174999237060547,0.8399963378906392,-2.8700027465820312,-3.8299942016601562,-5.870002746582031,6.779998779296875,0.34999847412109375,3.3600006103515625,-8.180007934570312,5.0,7.0,02-01,-0.8408344586690267
01-03,-1.9499988555908274,-0.9599990844726598,-0.2050018310546946,2.229999542236328,1.2399978637695312,-3.1050033569335938,1.1150054931640767,-2.839996337890611,4.760002136230483,0.540000915527358,7.080001831054673,-6.270004272460909,6.0,6.0,02-02,0.13625033696492958
01-04,-2.8499984741210973,-0.5399990081787109,1.2900009155273366,2.779998779296875,0.37999725341796875,-1.4250030517578267,-0.29999542236328125,-2.3700027465820312,3.290000915527358,1.2600021362304688,5.139999389648423,-5.9799957275390625,6.0,6.0,02-03,0.05625041325886837
01-05,-2.8949985504150426,-0.3500003814697301,0.625,3.1599998474121094,-0.19499969482421875,-2.5800018310547017,0.125,-5.2699966430664205,4.939994812011719,-0.18999481201171875,5.200004577636719,-9.25,5.0,7.0,02-04,-0.5566660563151071
01-06,-4.014999389648441,-1.1900005340576172,0.7750015258789062,3.049999237060554,1.1500015258789205,-5.325004577636733,1.9850006103515767,-1.3600006103515625,4.970001220703139,-1.0999984741210795,5.529998779296889,-7.75,6.0,6.0,02-05,-0.2733333905537873
01-07,-3.33499908447266,-1.3299999237060582,1.4150009155273438,2.7350006103515625,0.34000396728514204,-5.519996643066406,1.7649993896484375,-0.1399993896484375,4.230003356933594,-3.1100006103515625,6.020004272460966,-5.550003051757841,6.0,6.0,02-06,-0.20666551589965998
01-08,-3.8599987030029297,-1.2700004577636719,1.5099983215332031,3.4449996948242188,-0.9300003051757812,-6.125,-1.215003967285142,0.6200027465820455,4.590003967285142,-6.739997863769531,5.940002441406264,-3.5500030517578125,5.0,7.0,02-07,-0.6320830980936663
01-09,-3.420000076293949,-1.9750003814697266,1.6349983215332031,3.2749977111816335,-1.5349960327148438,-6.455001831054673,0.23999786376953125,1.25,3.5699996948242188,-4.260002136230469,4.599998474121094,-3.8000030517578125,6.0,6.0,02-08,-0.5729176203409828
01-10,-2.4600009918212926,-1.6700000762939453,1.7549972534179688,2.5649986267089844,-1.720001220703125,-6.680000305175781,2.059997558593764,-1.5799942016601562,3.6200027465820455,-2.480003356933608,3.4499969482421875,-3.2299957275390625,5.0,7.0,02-09,-0.5308335622151684
01-11,-1.7300014495849574,-2.0,2.3500022888183594,2.5050010681152344,-1.8850021362304688,-4.419998168945298,2.3050003051757812,-4.7999954223632955,3.470001220703139,-3.440002441406264,4.239997863769531,-4.8600006103515625,5.0,7.0,02-10,-0.6887497901916501
01-12,-1.6600017547607422,-0.8350009918212926,1.7399978637695455,1.8050003051757812,-1.529998779296875,-2.6100006103515483,0.285003662109375,-4.130004882812528,3.2299957275390483,-4.040000915527358,2.8899993896484375,-6.6100006103515625,5.0,7.0,02-11,-0.9554176330566433
01-13,-2.155000686645508,-0.860000610351559,1.9749984741211009,2.045001983642578,-1.0749969482421875,-1.9150009155273295,0.625,-1.7100067138671733,3.779998779296875,-6.339996337890639,2.9000015258789062,-8.330001831054688,5.0,7.0,02-12,-0.921666940053302
01-14,-1.4549999237060582,-1.5200004577636719,1.674999237060554,1.9949989318847656,-0.839996337890625,-2.8649978637695312,0.625,-2.2300033569335938,4.1599960327148295,-4.269996643066392,2.7600021362304688,-7.97999572753902,5.0,7.0,02-13,-0.8287494977315228
01-15,-2.02499961853027,-1.1499996185302734,2.164997100830071,1.3950004577636719,-1.8450012207031108,-2.470001220703139,1.0100021362304688,-0.5600051879882812,4.569999694824219,-2.6599960327148438,6.6100006103515625,-8.3800048828125,5.0,7.0,02-14,-0.2783339818318688
01-16,-2.0349998474121094,-2.240001678466804,2.594997406005845,1.5200004577636719,-0.01000213623046875,-0.9550018310547017,-1.0800018310546733,-0.26000213623046875,4.839996337890639,-2.0800018310546733,5.349998474121094,-5.0500030517578125,4.0,8.0,02-15,0.04958152770996153
01-17,-1.1199989318847656,-2.00000190734864,2.6499977111816406,1.2399978637695312,-1.43499755859375,-1.8600006103515625,0.029998779296875,-2.3300018310546875,5.599998474121094,1.8199996948242188,0.529998779296875,-6.1300048828125,6.0,6.0,02-16,-0.2504178682963059
01-18,-1.3400001525878906,-1.9350013732910227,2.5799980163574148,0.02000045776367898,-1.80999755859375,-2.1200027465820455,2.43499755859375,0.18000030517578125,4.809997558593764,-2.0900039672851562,2.4599990844726562,-3.529998779296875,6.0,6.0,02-17,-0.028334299723307883
01-19,-1.6949996948242188,-1.4050025939941477,2.954998016357422,1.0900001525879048,-1.8300018310546875,-1.385002136230483,4.3050003051757955,2.0200042724609517,4.0,-2.120002746582017,3.5400009155273438,-5.430000305175781,6.0,6.0,02-18,0.33708286285400685
01-20,-2.6099987030029332,-0.6599998474121023,3.6699981689453125,0.5100021362304759,-1.8850021362304688,-0.5500030517577983,3.845001220703111,1.4800033569335938,2.5,-0.45999908447265625,2.910003662109389,-5.739997863769531,6.0,6.0,02-19,0.2508339881896993
01-21,-3.184999465942383,1.355001449584961,3.2749977111816406,0.8050003051757884,-1.69000244140625,-1.7050018310546875,4.105003356933608,3.0800018310546875,1.260002136230483,-0.5899963378906392,4.760002136230469,-6.55999755859375,7.0,5.0,02-20,0.4091676076253273
01-22,-2.6000003814697266,0.9450016021728551,2.6949996948242116,1.5349998474121094,-3.529998779296861,-0.0500030517578125,2.444999694824247,1.839996337890625,1.5299987792968892,-0.6199951171875,4.3800048828125,-6.640007019042969,7.0,5.0,02-21,0.16083304087321407
01-23,-2.559999465942383,0.5149993896484375,3.0699996948242116,1.895000457763679,-5.950004577636719,0.08499908447265625,4.2150039672851705,3.5800018310546733,2.1300048828125284,-1.8499984741210938,7.689994812011719,-6.740005493164077,8.0,4.0,02-22,0.5066663424174003
01-24,-2.7099990844726562,0.6999988555908203,3.4150009155273366,1.7350006103515625,-6.2350006103515625,2.7299957275390767,3.839996337890625,4.519996643066392,1.1999969482422017,-3.3199996948241903,7.519996643066392,-6.290000915527358,8.0,4.0,02-23,0.5920818646748867
01-25,-3.090000152587894,0.4949989318847656,1.7399978637695384,1.190002441406243,-6.350006103515625,2.779998779296875,4.409996032714844,5.6100006103515625,1.7299957275390767,-4.589996337890611,6.239997863769517,-3.5999984741210938,8.0,4.0,02-24,0.5470822652180999
01-26,-3.8849992752075195,0.7399997711181712,0.8800010681152344,1.4850006103515554,-4.959999084472656,3.339996337890639,4.3349990844726705,2.290000915527358,0.9599990844726705,-5.8499984741210795,6.430000305175753,-4.049995422363281,8.0,4.0,02-25,0.14291707674662626
01-27,-3.3250007629394496,1.2950000762939489,1.31500244140625,1.370002746582017,-3.839996337890611,2.665000915527358,5.404998779296889,2.879997253417983,0.790000915527358,-3.7099990844726562,7.740005493164034,-7.69000244140625,8.0,4.0,02-26,0.40791749954223927
01-28,-4.465000152587887,1.5450000762939489,1.6599998474121094,1.3649978637695312,-4.849998474121108,4.170005798339858,6.964996337890611,3.5900039672851562,0.5699996948242188,-2.1100006103515625,8.620002746582017,-14.40000152587892,8.0,4.0,02-27,0.22166713078816436
01-29,-3.7000007629394496,1.7099990844726598,0.8349990844726562,1.0999984741210938,-4.190002441406264,4.965003967285142,4.9799957275390625,0.5599975585937358,1.2799987792968892,-2.0400009155273438,6.989997863769531,-14.330001831054688,8.0,4.0,02-28,-0.15333461761474787
01-30,-2.8000011444091797,0.7700004577636719,1.5750007629394531,1.7350006103515696,-2.7849960327148438,4.2300033569335795,6.3949966430664205,1.420005798339858,0.4199981689453267,-3.0400009155273295,7.119995117187514,-14.020004272460938,8.0,4.0,02-29,0.08499987920125858
01-31,-3.0250005722045916,1.0100002288818324,2.0499992370605398,1.6749992370605469,-1.6049957275390625,5.3850021362304545,6.0550003051757955,2.57000732421875,2.4199981689452983,-6.290000915527358,6.729995727539077,-10.75,8.0,4.0,03-01,0.51875042915344
02-01,-3.2150011062622053,1.4300003051757741,0.8649978637695455,0.19499969482421875,-2.9499969482422017,8.410003662109375,5.825004577636719,0.94000244140625,2.7300033569335795,-5.18000030517581,6.400001525878906,-17.75,8.0,4.0,03-02,-0.1916654109954874
02-02,-3.7250003814697266,1.3299999237060618,1.4300003051757741,0.7249984741210938,-2.1399993896484233,10.475006103515625,6.985000610351577,6.540000915527344,2.7099990844726562,-3.1699981689453267,5.709999084472642,-16.889999389648423,8.0,4.0,03-03,0.8316672643025728
02-03,-3.6000003814697266,1.8649997711181605,1.2050018310546804,0.0149993896484375,-2.0650024414062216,10.095001220703125,3.8199996948242045,4.220001220703125,2.349998474121108,-0.8700027465820312,6.5,-16.02999877929686,8.0,4.0,03-04,0.6254164377848334
02-04,-2.7750005722045863,2.6049995422363246,1.0800018310546804,0.8900032043457102,-1.6750030517577983,11.474998474121094,3.9449996948242188,3.630004882812486,2.459999084472642,-1.7300033569335938,5.0999984741210795,-18.139999389648438,8.0,4.0,03-05,0.572083234786985
02-05,-3.3699998855590785,2.2999992370605433,1.8250007629394602,0.8100013732910227,-1.0749969482421875,11.159996032714844,2.4850006103515483,6.459999084472642,2.1399993896484517,0.7799987792968892,3.739997863769517,-16.900001525878906,9.0,3.0,03-06,0.8629162311553955
02-06,-4.099999427795414,2.6149997711181605,1.2400016784667969,0.37000274658204546,-1.4400024414062358,10.30999755859375,2.2399978637695312,10.650001525878892,1.2799987792968892,1.1100006103515625,4.4500045776367045,-16.400001525878906,9.0,3.0,03-07,1.0270834763844814
02-07,-5.3899993896484375,2.8050003051757812,0.7150001525878906,-0.4299964904785156,-1.2600021362304545,8.5,4.314994812011719,12.83999633789061,0.769996643066392,0.8899993896484517,5.7000045776367045,-14.650001525878906,8.0,4.0,03-08,1.2337493896484364
02-08,-4.919999122619629,2.934999465942383,1.0499992370605469,-0.5299987792968821,-1.715003967285142,8.105003356933594,2.5749969482421875,13.72000122070314,6.730003356933594,4.719993591308608,5.690002441406236,-18.23999786376953,8.0,4.0,03-09,1.6766666571299254
02-09,-4.879999160766602,1.8850002288818395,0.7800025939941335,-0.7399978637695384,-1.94000244140625,8.07000732421875,2.7349929809570312,10.520004272460966,6.700004577636733,2.649993896484361,5.1199951171875,-19.440002441406236,8.0,4.0,03-10,0.9549999237060574
02-10,-2.3500003814697266,1.9750003814697301,0.2650032043457031,-0.1399993896484446,-1.0050048828125,8.185005187988281,-0.2850036621093892,10.94000244140625,6.290000915527344,1.4199981689453125,4.9099960327148295,-23.479995727539062,7.0,5.0,03-11,0.5604168574015272
02-11,-2.2250003814697266,1.735000610351566,-0.16499710083007102,0.9300003051757884,-0.785003662109375,6.174995422363267,-1.5200042724609375,13.010002136230469,2.120002746582017,3.6699981689453125,6.580001831054673,-19.969993591308608,7.0,5.0,03-12,0.7962501843770312
02-12,-2.0049991607666016,1.6700000762939489,-1.020000457763679,0.8449974060058594,1.3450012207031108,5.725006103515639,-3.9250030517578125,10.5,1.2799987792968608,2.4799957275390625,3.5400009155273438,-25.389999389648438,8.0,4.0,03-13,-0.41291681925455875
02-13,-1.6499996185302734,0.9350013732910156,-0.49499893188477273,1.0049972534179688,1.2050018310546875,4.990005493164077,-5.795005798339858,9.29000091552733,1.870002746582017,1.5100021362304545,3.44000244140625,-23.48999786376953,8.0,4.0,03-14,-0.5987490018208863
02-14,-0.020000457763668322,1.3700027465820384,-0.32500076293946023,1.895000457763679,1.2600021362304688,4.155006408691392,-3.0750045776367045,11.389999389648438,0.160003662109375,-1.279998779296875,4.0699996948242045,-23.18000030517578,7.0,5.0,03-15,-0.29833253224690787
02-15,-0.6900005340576136,1.5349998474121165,-0.7749977111816406,1.8699989318847585,1.06500244140625,4.160003662109375,-3.970001220703111,11.119995117187472,2.5400009155273438,-1.150001525878892,2.220001220703125,-29.43000030517578,7.0,5.0,03-16,-0.9587499300638832
02-16,-0.7200012207031214,1.6100006103515625,-1.5900001525878906,1.1399993896484375,3.2599945068359233,3.9950027465820312,-2.8850021362304545,11.139999389648438,2.2700042724609375,-1.1200027465820312,0.9499969482421875,-25.13999938964845,7.0,5.0,03-17,-0.5908339818318694
02-17,-0.20499992370605113,2.0450000762939347,-1.9650001525878906,0.7799987792968679,2.7949981689452983,4.685005187988281,-4.295005798339844,11.610000610351562,1.6699981689452983,-1.1200027465820312,1.2999954223632812,-36.910003662109375,7.0,5.0,03-18,-1.6341679890950556
02-18,0.4500007629394567,1.8950004577636648,-2.3100013732910156,0.8349990844726562,2.6949996948242045,5.685005187988281,-3.3000030517578267,11.919998168945327,0.6200027465820455,-0.470001220703125,2.219993591308608,-36.709999084472656,8.0,4.0,03-19,-1.3725004196166983
02-19,0.7800006866455114,1.710000991821282,0.050003051757805395,0.80999755859375,2.579994201660142,4.0500030517578125,-2.9300003051757812,10.980003356933608,1.489997863769517,-2.1800003051757812,2.1699981689453125,-46.599998474121094,9.0,3.0,03-20,-2.2575000127156595
02-20,1.1600017547607493,1.3349990844726634,0.20000076293944602,1.2449989318847656,4.75,3.2050018310546875,-3.5,12.680000305175781,2.5699996948242188,-1.5500030517578125,1.0800018310547017,-46.44000244140625,9.0,3.0,03-21,-1.9387501080830873
02-21,2.0099992752075195,1.4300003051757812,0.75,0.9799995422363281,5.464996337890625,2.6450042724609233,-5.160003662109389,12.180000305175781,1.4800033569335938,-1.6700057983398438,0.6900024414062642,-45.99000549316406,9.0,3.0,03-22,-2.0991674264272064
02-22,1.8149995803833008,1.7050018310546946,0.5149993896484304,1.1699981689453196,4.3449935913085795,3.1100006103515625,-3.7150039672851705,12.169998168945312,1.4400024414062358,-1.9100036621093608,-0.620002746582017,-38.709999084472656,8.0,4.0,03-23,-1.5570846398671474
02-23,2.9600000381469727,2.300001144409176,0.8649978637695312,0.970001220703125,3.4949951171875,3.2999954223632812,-5.0300064086914205,14.96999359130858,1.6500015258789062,-3.5100021362304545,0.31999969482421875,-35.54999542236328,9.0,3.0,03-24,-1.1050015290578221
02-24,2.0550003051757812,1.6650009155273402,1.1650009155273438,1.2350006103515625,2.8349990844726705,2.345001220703111,-5.6399993896484375,14.159996032714844,0.9400024414062358,-6.220001220703111,-5.629997253417983,-42.769996643066406,8.0,4.0,03-25,-2.8216660817464203
02-25,2.4500007629394496,2.1849994659423793,0.4249992370605469,0.00999832153319602,1.7949981689453267,1.0499954223632812,-6.6049957275390625,12.829994201660142,2.1700057983398438,-8.049995422363281,-5.2600021362304545,-27.579994201660142,8.0,4.0,03-26,-2.0483330090840646
02-26,2.720000267028807,1.9449996948242188,0.15000152587891336,0.354999542236321,0.6800003051757812,-1.3600006103515483,-6.689994812011719,11.67999267578125,1.340003967285142,-5.599998474121094,-3.1100006103515625,-23.37999725341797,7.0,5.0,03-27,-1.7724994818369548
02-27,2.9100008010864205,1.1550006866455114,0.5300025939941548,1.2350006103515554,-0.31000518798829546,-1.6399993896484375,-6.459999084472642,12.610000610351562,1.370002746582017,-3.399993896484389,-2.089996337890625,-17.87999725341797,6.0,6.0,03-28,-0.997498591740928
02-28,4.334999084472656,1.8449993133544957,0.5,1.404998779296882,-0.31000518798829546,-3.7050018310546875,-8.199996948242188,12.419998168945327,2.5400009155273438,-0.5299987792968608,-1.8899993896484375,-18.739997863769545,6.0,6.0,03-29,-0.8608336448669425
02-29,0.0,0.0,0.0,1.7649993896484375,0.0,0.0,0.0,12.870002746582031,0.0,0.0,0.0,-15.549995422363295,2.0,1.0,03-30,-0.0762494405110689
03-01,3.3799991607666016,1.6900005340576207,1.4249992370605398,1.05999755859375,-0.38500213623049717,-3.7649993896484375,-7.3699951171875,10.989997863769531,2.4799957275390625,0.8000030517578125,-2.6800003051757955,-20.309997558593764,7.0,5.0,03-31,-1.0570834477742563
03-02,3.4149990081787145,1.7250022888183558,3.9599990844726634,1.1399993896484375,-1.0849990844726562,-3.125,-6.604995727539048,12.569999694824219,3.3899993896484517,1.660003662109375,0.3600006103515625,-19.38999938964845,8.0,4.0,04-01,-0.16541592280069808
03-03,3.5500011444091797,1.5550022125244176,3.095001220703118,2.0349998474121094,-0.8249969482422017,-1.7999954223632812,-4.5,11.599998474121108,3.709999084472642,-2.790000915527358,1.510002136230483,-20.790000915527344,7.0,5.0,04-02,-0.3041658401489273
03-04,4.275000572204586,1.5700016021728551,3.6800003051757812,2.0900001525878764,-0.714996337890625,-1.7750015258789062,-4.900001525878906,9.41000366210939,4.030006408691392,-1.1600036621093892,2.8600006103515625,-28.06999969482422,7.0,5.0,04-03,-0.7254157861073836
03-05,5.495000839233395,1.3800010681152344,3.845001220703125,3.029998779296868,-1.2649993896484517,-1.1399993896484517,-4.9550018310546875,8.119995117187472,3.880004882812486,-4.5,3.489997863769517,-22.76000213623047,7.0,5.0,04-04,-0.4483335812886636
03-06,5.025000572204586,0.9250011444091726,3.7900009155273438,2.634998321533203,-1.3649978637695455,-1.4400024414062642,-3.2150039672851562,9.739997863769517,3.880004882812486,-4.8899993896484375,4.029998779296889,-21.559997558593764,7.0,5.0,04-05,-0.20374989509583083
03-07,6.274999618530273,1.4750003814697266,4.48500061035157,2.5649986267089915,-1.375,-1.4050064086914205,-3.9149932861328125,8.81999969482419,3.9899978637695312,-4.2299957275390625,4.7400054931640625,-16.68000030517578,7.0,5.0,04-06,0.395417213439939
03-08,7.530000686645508,1.6849994659423828,3.759998321533203,1.3699989318847585,-2.30999755859375,-1.465003967285142,-4.3549957275390625,9.919998168945298,-1.8300018310546875,-4.6100006103515625,4.950004577636733,-16.980003356933594,6.0,6.0,04-07,-0.19458357493082623
03-09,7.3850002288818395,2.3349990844726634,4.180000305175781,1.4550018310546875,-1.94000244140625,-1.2700042724609517,-4.034996032714844,9.800003051757812,2.0699996948242188,-6.8600006103515625,3.6999969482422017,-10.780006408691406,7.0,5.0,04-08,0.5033326148986825
03-10,5.055000305175781,1.8749980926513565,4.980003356933594,0.41500091552734375,-3.0250015258789062,-3.6149978637695312,-1.3850021362304545,9.169998168945312,2.910003662109375,-4.790000915527344,3.659996032714858,-10.890007019042969,7.0,5.0,04-09,0.363332589467368
03-11,4.944999694824219,2.0799980163574148,4.4550018310546875,1.6000022888183594,-3.1650009155273295,-2.5049972534179545,0.4750061035156108,7.0699996948242045,2.589996337890625,-7.069999694824219,3.099998474121108,-5.8800048828125,8.0,4.0,04-10,0.6412499745686855
03-12,4.229999542236328,1.644996643066392,4.115001678466797,0.5800018310546875,-3.2450027465820312,-0.7600021362304688,-1.784996032714858,5.8700027465820455,3.370002746582017,-6.849998474121094,3.1299972534179688,1.1899948120117188,8.0,4.0,04-11,0.9574998219807919
03-13,4.899999618530273,1.720001220703118,3.75,-1.1100006103515696,-3.4300003051757812,0.3899993896484375,-0.8899993896484517,7.0900039672851705,3.1100006103515625,-5.709999084472656,3.5699996948242188,-3.100006103515611,7.0,5.0,04-12,0.857499917348226
03-14,4.965000152587894,2.095001220703118,3.5500030517578196,0.43000030517578125,-3.7849960327148438,0.5550003051757812,-0.8700027465820312,6.940002441406264,4.3299942016601705,-5.760002136230469,5.220001220703125,10.930000305175781,9.0,3.0,04-13,2.3833335240681994
03-15,6.015001296997067,2.200000762939446,3.479999542236321,0.4500007629394531,-3.3199996948242188,-3.0,-0.29000091552734375,8.180000305175753,2.0199966430664205,-5.0,4.870002746582031,14.75,8.0,4.0,04-14,2.5295834541320774
03-16,6.0950012207031214,2.345001220703125,3.375,0.4750022888183594,-1.7450027465820312,-4.069999694824219,-0.24500274658203125,7.620002746582031,2.4399948120117188,-5.650001525878906,3.5699996948242045,11.260002136230469,8.0,4.0,04-15,2.12249978383382
03-17,5.079999923706051,1.8050003051757884,2.5549964904785156,1.1850013732910156,-2.4250030517578125,-3.7000045776367188,0.3500061035156392,4.8300018310546875,1.5699996948242472,-3.1800003051757812,4.650001525878892,10.169998168945312,9.0,3.0,04-16,1.907499790191653
03-18,4.724998474121087,2.3850021362304616,2.404998779296875,0.6300010681152344,-4.830001831054702,-4.715003967285156,-1.1849975585937358,5.3300018310546875,-0.5100021362304545,-3.220001220703125,5.520004272460923,15.560005187988281,7.0,5.0,04-17,1.841250419616698
03-19,4.670000076293942,2.2900009155273438,1.9650001525878906,1.220001220703125,-3.159996032714858,-3.31500244140625,0.5500030517578267,5.6200027465820455,-1.1500015258789062,-1.4500045776367188,7.5,11.920005798339844,8.0,4.0,04-18,2.221667448679607
03-20,4.8649997711181605,2.125,2.045001983642571,2.204998016357422,-4.305000305175781,-3.105003356933608,-0.894996643066392,6.459999084472656,-0.18000030517578125,-0.7699966430664062,7.5800018310546875,8.760002136230469,7.0,5.0,04-19,2.0654171307881666
03-21,4.555000305175781,1.8400001525878906,1.4150009155273366,2.1650009155273438,-2.4449996948242045,-3.2949981689453267,0.160003662109375,6.8600006103515625,0.2599945068359233,-0.7599945068359659,5.760002136230469,16.400001525878906,9.0,3.0,04-20,2.7429176966349242
03-22,4.145000457763672,2.3599967956542827,2.5250015258789062,2.7550010681152344,-1.785003662109375,-0.790000915527358,0.09000396728515625,6.710006713867173,0.75,1.8800048828124716,11.70999908447267,20.809997558593764,10.0,2.0,04-21,4.26333395640055
03-23,3.0949993133544886,2.1800003051757812,2.4300003051757812,2.4099998474121094,3.3799972534179688,3.125,0.625,6.930000305175781,0.37999725341795454,3.709999084472642,10.330001831054673,18.599998474121094,12.0,0.0,04-22,4.766249497731523
03-24,3.5249996185302734,2.529998779296882,2.229999542236328,2.7949981689453125,3.8499984741210938,1.6649932861328125,0.7799987792968608,7.120002746582017,1.2099990844726562,-2.2900009155273438,12.800003051757798,5.959999084472656,11.0,1.0,04-23,3.5145824750264456
03-25,3.60000038146973,2.8999977111816477,1.8499984741210866,2.9399986267089844,4.8300018310546875,1.745002746582017,1.969993591308608,6.6699981689453125,2.5500030517578267,-3.059997558593736,10.180000305175753,4.3600006103515625,11.0,1.0,04-24,3.3779164950052896
03-26,2.6850013732910156,2.2099990844726634,2.5800018310546946,2.7999992370605398,5.380004882812514,2.9449996948242188,2.5499954223632955,0.8600006103515767,2.120002746582017,-3.0500030517578267,9.260002136230483,0.30999755859375,11.0,1.0,04-25,2.5541667938232453
03-27,3.6400012969970703,2.2449989318847656,2.6300010681152415,3.1300010681152273,5.779998779296875,3.3850021362304688,1.719993591308608,3.7900009155273295,4.190002441406264,-6.140007019042969,6.55999755859375,5.069999694824219,11.0,1.0,04-26,2.999999205271404
03-28,3.29000091552734,2.7549972534179688,2.0250015258789134,4.694999694824219,5.5199966430664205,2.7450027465820312,0.6949996948241903,3.1999969482421875,5.849998474121094,-2.0900039672851705,4.9199981689453125,4.599998474121094,11.0,1.0,04-27,3.183748881022133
03-29,4.295000076293942,2.479999542236328,1.69000244140625,4.239997863769524,5.409996032714844,0.5249938964843608,-0.5900039672851705,2.9800033569335795,4.7100067138671875,-3.720001220703139,3.769996643066392,6.8199996948242045,10.0,2.0,04-28,2.7174992561340248
03-30,3.5799999237060547,1.4549980163574219,-1.1650009155273438,4.184997558593757,6.375,-0.2400054931640767,-1.8199996948242472,1.0899963378906108,5.25,-0.3800048828125284,1.30999755859375,10.080001831054688,8.0,4.0,04-29,2.476665019989007
03-31,3.1700000762939453,2.2599983215332102,-0.8050003051757812,3.770000457763672,5.3849945068359375,-0.9950027465820312,-2.3899993896484517,1.5,5.400001525878906,-0.5600051879882812,3.589996337890639,7.889999389648423,8.0,4.0,04-30,2.351248582204182
04-01,2.3249988555908274,1.7099990844726562,-0.75,3.990001678466797,6.430000305175781,-1.8199996948242188,-1.1450042724609375,-0.12000274658204546,6.209999084472656,-0.29000091552735796,2.8899993896484375,15.989997863769517,7.0,5.0,05-01,2.951665719350176
04-02,1.034999847412113,1.5,-1.174999237060554,3.779998779296882,6.724998474121108,-1.8199996948241903,-0.7050018310546875,0.5799942016601705,4.7599945068359375,-2.3800048828125284,3.260002136230483,15.14999389648436,8.0,4.0,05-02,2.559164683024091
04-03,-0.22000122070312145,2.1599998474121165,-0.9099998474121165,5.680000305175781,6.239997863769531,-1.875,-1.0250015258789062,-1.8000030517577983,4.379997253417969,-3.2600021362304688,0.8899993896484375,15.449996948242173,6.0,6.0,05-03,2.1424986521402998
04-04,-0.11000061035156605,1.7250022888183594,-1.1800003051757955,6.635002136230476,5.650001525878906,-2.0699996948241903,-1.3300018310546875,-0.9500045776367188,4.700004577636719,-5.0800018310546875,0.470001220703125,4.200004577636719,6.0,6.0,05-04,1.0550006230672215
04-05,-0.125,2.1800003051757812,-2.125,5.45000076293946,6.7350006103515625,-0.21500396728515625,0.16500091552734375,-1.9300003051757812,4.199996948242202,-5.959999084472656,0.5100021362304688,1.3700027465820312,7.0,5.0,05-05,0.8545834223429379
04-06,1.1149997711181605,0.4350013732910014,-3.0100021362304688,6.470001220703132,8.514999389648423,1.05499267578125,0.404998779296875,-3.4900054931640625,3.9300003051757955,-3.6800003051757812,2.3600006103515767,0.20000457763671875,9.0,3.0,05-06,1.1920825640360517
04-07,1.485000610351566,0.01000213623046875,-2.8400001525878906,6.474998474121094,10.41500091552733,1.4099960327148438,-1.659996032714858,-2.0200042724609375,3.1499938964844034,-4.650001525878906,3.2299957275390483,-2.8199996948242188,7.0,5.0,05-07,1.0154155095418285
04-08,1.5300006866455043,-0.22999954223633523,-2.4749984741210938,5.709999084472656,10.15499877929686,1.4850006103515625,-2.0400009155273295,-3.2400054931640625,4.099998474121094,-3.2099990844726562,1.8899993896484375,-4.549995422363281,6.0,6.0,05-08,0.7604165077209464
04-09,0.4799995422363317,-0.6049995422363352,-2.3500022888183594,6.325000762939453,10.285003662109375,1.5250015258789205,-3.1449966430664062,-3.0999984741210938,4.7699966430664205,-3.4000015258789062,0.18000030517578125,-8.3699951171875,6.0,6.0,05-09,0.21625073750814008
04-10,0.399999618530277,-2.0699996948242188,-2.2750015258789134,7.210002899169915,10.239997863769531,4.389999389648452,-3.7249984741210938,-3.370002746582017,2.6399993896484375,-3.6800003051757812,-0.8800048828125,-4.879997253417969,5.0,7.0,05-10,0.3333328564961766
04-11,-0.7000007629394496,-2.549999237060547,-1.8300018310546946,5.70000076293946,8.764999389648438,5.4599990844726705,-2.339996337890625,-4.2399978637695455,1.7900009155273295,-2.2299957275390767,-0.5,-3.3199996948242188,4.0,8.0,05-11,0.3337507247924784
04-12,-0.2049999237060547,-0.9000015258789134,-0.9900016784667898,4.555000305175788,9.444999694824219,3.8600006103515625,-0.26999664306640625,-4.209999084472642,2.7900009155273295,-2.9899978637695455,-1.5800018310546875,-1.6999969482421875,4.0,8.0,05-12,0.6504171689351393
04-13,-0.7950000762939418,-1.4500007629394531,-1.1399993896484304,5.11000061035157,11.239997863769545,4.029998779296889,-1.1299972534179688,-6.810005187988281,3.4300003051757812,-2.9499969482422017,-3.5900039672851705,-3.2600021362304688,4.0,8.0,05-13,0.22374931971232245
04-14,-0.220001220703125,-0.9350013732910156,-1.25,4.415000915527344,11.34500122070314,5.4250030517578125,-1.7350006103515483,-7.0900039672851705,2.4599990844726562,-5.659996032714844,-4.230003356933608,-5.160003662109375,4.0,8.0,05-14,-0.21958382924397787
04-15,-1.2749996185302699,-1.0450019836425852,-1.3300018310546804,4.145000457763679,10.885002136230483,4.5999984741210795,-0.9350051879882812,-7.930000305175781,2.0699996948242188,-11.339996337890625,-5.220001220703125,-4.2400054931640625,4.0,8.0,05-15,-0.9679176012674958
04-16,-2.1100006103515625,-0.7600021362304759,-0.8400001525878906,3.1100006103515696,11.129997253417983,2.464996337890639,-0.6750030517577983,-8.260002136230483,1.730003356933608,-8.799995422363281,-6.840003967285142,-4.660003662109375,4.0,8.0,05-16,-1.209167798360184
04-17,-1.7000007629394531,-1.709999084472642,-1.4599990844726562,1.9200019836425781,12.035003662109375,-1.4500045776367188,-0.6050033569335795,-9.050003051757798,2.5900039672851562,-10.050003051757812,-5.449996948242202,-9.069999694824233,3.0,9.0,05-17,-1.999999999999999
04-18,-0.3899993896484375,-2.5550003051757812,-1.3849983215332031,1.6399993896484375,7.910003662109375,0.01000213623046875,0.5600051879882812,-7.589996337890625,2.670005798339858,-9.690002441406236,-7.919998168945327,-5.129997253417969,5.0,7.0,05-18,-1.822498003641763
04-19,-0.4949989318847621,-2.039997100830071,-2.8600006103515625,0.375,7.44000244140625,-0.9549942016601705,2.0100021362304688,-9.540000915527315,0.48000335693359375,-6.1399993896484375,-5.299995422363281,-4.180000305175781,4.0,8.0,05-19,-1.767081578572589
04-20,0.4450016021728551,-2.390003204345703,-2.729999542236328,0.22999954223632812,6.0,-0.589996337890625,1.625,-9.680000305175781,-0.8899993896484517,-5.3700027465820455,-4.3199996948242045,0.75,5.0,7.0,05-20,-1.4100000063578297
04-21,0.5100002288818324,-3.0649986267089915,-2.779998779296875,-1.0800018310546804,7.644996643066406,-0.25,1.4700012207031392,-3.8700027465820455,-0.45999908447264204,-4.4699935913085795,-5.470001220703111,5.209999084472656,4.0,8.0,05-21,-0.5508332252502409
04-22,0.7099990844726562,-2.9449996948242188,-2.174999237060547,-1.7250022888183452,6.754997253417969,-0.33499908447265625,1.2649993896484233,-6.800003051757798,-2.6200027465820455,-3.930000305175753,-9.5,5.919998168945298,4.0,8.0,05-22,-1.2816677093505848
04-23,1.0249996185302734,-3.454998016357422,-2.25,-0.7350006103515554,7.069999694824219,0.43499755859375,1.5249938964843892,-6.959999084472656,-1.2799987792968892,-3.8499984741210795,-8.620002746582045,5.470001220703111,5.0,7.0,05-23,-0.9687504768371588
04-24,0.020000457763671875,-4.579999923706051,-2.6899986267089844,-1.3699989318847727,6.285003662109375,1.3300018310547017,2.80999755859375,-6.3899993896484375,-1.5900039672851705,-2.9300003051757812,-8.159996032714844,3.25,5.0,7.0,05-24,-1.1679161389668786
04-25,0.735000610351559,-4.015001296997074,-3.384998321533203,-1.684997558593757,5.319999694824219,2.095001220703139,4.039993286132827,-6.1699981689453125,-4.120002746582017,-5.169998168945298,-7.049995422363281,-0.01000213623048296,4.0,8.0,05-25,-1.6179165840148901
04-26,0.0,-4.5950012207031214,-4.020000457763672,-2.2099990844726634,6.310005187988281,2.8499984741210938,4.189994812011719,-5.790000915527315,-3.540000915527358,-4.9899978637695455,-9.32999420166017,-0.910003662109375,3.0,9.0,05-26,-1.8362499872843439
04-27,0.3000011444091726,-3.369998931884769,-3.134998321533203,-2.4300003051757884,5.2649993896484375,2.440002441406236,4.169998168945327,-4.669998168945298,-4.349998474121108,-5.260002136230469,-8.629997253417969,0.18000030517578125,5.0,7.0,05-27,-1.6241660118103043
04-28,0.889999389648441,-4.029998779296875,-3.404998779296875,-2.2199974060058736,4.9199981689453125,3.6949996948242188,2.980003356933608,-4.4499969482421875,-2.899993896484389,-3.1699981689452983,-10.290000915527344,8.510002136230483,5.0,7.0,05-28,-0.7891651789347316
04-29,-0.15499877929687855,-4.6899986267089915,-3.6699981689453125,-0.520000457763679,4.904998779296875,2.559997558593764,3.4850006103515625,-2.0699996948242188,-2.5199966430664205,-3.3799972534179545,-9.360000610351562,6.470001220703139,4.0,8.0,05-29,-0.7454160054524731
04-30,-0.11999893188476562,-4.255001068115234,-3.3999977111816335,-1.029998779296882,5.095001220703125,3.315002441406236,3.7900009155273438,-2.9199981689452983,-2.5499954223632812,-2.4799957275390483,-9.989997863769517,11.519996643066406,4.0,8.0,05-30,-0.25208187103271246
05-01,-0.10499954223633168,-4.709999084472656,-3.5149993896484304,-0.970001220703125,5.950004577636719,3.8050003051757812,2.2949981689453125,-3.5400009155273153,-2.220001220703139,-5.879997253417969,-8.290000915527344,14.349998474121094,4.0,8.0,05-31,-0.23583316802978369
05-02,-1.2049999237060547,-3.095001220703132,-3.164997100830071,-2.465000152587905,4.310005187988281,2.535003662109375,2.3950042724609375,-2.6399993896484233,-2.9899978637695312,-4.279998779296875,-9.580001831054702,15.80999755859375,4.0,8.0,06-01,-0.3641654650370292
05-03,-1.014999389648441,-3.604999542236328,-1.7000007629394531,-2.4699974060058665,2.410003662109375,2.5550003051757812,1.9300003051757812,-1.8199996948242188,-2.839996337890639,-3.529998779296875,-10.449996948242173,14.839996337890625,4.0,8.0,06-02,-0.47458235422770273
05-04,-0.22999954223632812,-2.9650001525878835,-1.8149986267089915,-1.704998016357429,2.2750015258789062,2.8600006103515625,2.0,-0.6099929809570312,-3.529998779296875,-4.970001220703125,-9.050003051757827,16.540000915527358,4.0,8.0,06-03,-0.09999910990397194
05-05,-0.06999969482422586,-1.3699989318847514,-1.7399978637695455,-1.729999542236321,0.9250030517578125,3.220001220703125,3.3349990844726562,-0.5999984741210938,-4.199996948242202,-5.290000915527344,-11.639999389648438,19.25,4.0,8.0,06-04,0.007500966389972774
05-06,-0.6650009155273438,-0.00999832153319602,-1.8149986267089915,-3.970001220703125,1.69000244140625,3.125,3.970001220703139,-0.32999420166017046,0.7300033569335938,-4.199996948242173,-8.510002136230469,22.87999725341797,5.0,7.0,06-05,1.0745843251546237
05-07,0.4349994659423828,0.4700012207031321,-2.5550003051757812,-4.56500244140625,0.1699981689453125,2.559997558593736,2.540000915527358,0.7599945068359659,1.9899978637695312,-3.779998779296875,-2.75,21.31999969482422,8.0,4.0,06-06,1.3829156557718942
05-08,-0.06000137329101207,-1.5649986267089773,-3.174999237060547,-3.7600021362304545,-2.5749969482421875,3.7900009155273438,0.4700012207031392,0.2299957275390767,-0.06999969482421875,-4.180000305175781,-1.6699981689453125,19.699996948242188,4.0,8.0,06-07,0.5945831934611047
05-09,0.7299995422363281,-2.6499977111816335,-3.5900001525878906,-2.06500244140625,-1.964996337890625,3.620002746582017,0.7200012207031392,0.6800003051758097,0.5299987792968608,-3.120002746582017,-0.5299987792968608,20.700004577636733,6.0,6.0,06-08,1.0883340835571342
05-10,0.75,-3.284997940063466,-3.049999237060547,-1.9600028991699148,-2.0699996948242188,1.8699951171875142,0.650001525878892,-0.9600067138671875,0.0,-2.1800003051757812,0.11000061035157671,23.52999877929689,5.0,7.0,06-09,1.1170824368794798
05-11,0.375,-2.149999618530277,-2.770000457763679,-1.69000244140625,-0.970001220703125,2.7599945068359375,0.38500213623045454,3.529998779296889,0.3899993896484375,3.5,1.739997863769517,22.980003356933594,8.0,4.0,06-10,2.3399993578592917
05-12,0.9150009155273509,-2.8649997711181676,-2.6300010681152344,-0.270000457763679,0.8549957275390625,2.8499984741210938,2.3799972534179545,3.4599990844726847,0.7299957275390483,0.1199951171875,2.739997863769517,23.790000915527344,9.0,3.0,06-11,2.6729149818420397
05-13,1.6800003051757812,-2.4349994659423935,-2.0100021362304688,0.2799987792968679,0.529998779296875,4.035003662109389,3.240005493164034,4.25,-0.06000518798828125,1.1800003051757812,3.1399993896484375,24.800003051757812,9.0,3.0,06-12,3.2191669146219866
05-14,1.4200000762939489,-1.5899982452392543,-1.6800003051757884,-0.5800018310546946,-2.4550018310546875,4.520004272460923,1.5400009155273295,2.2699966430664062,1.9499969482421875,0.9599990844726562,5.2900009155273295,23.06999969482422,8.0,4.0,06-13,2.8929163614908813
05-15,1.5249996185302734,-1.4000015258789062,-2.2550010681152344,0.9850006103515625,-2.7600021362304688,5.4850006103515625,0.09000396728514204,1.079994201660142,2.1599960327148438,0.5,5.049995422363281,22.12000274658203,9.0,3.0,06-14,2.7149990399678523
05-16,0.6849994659423864,-0.670001983642571,-2.390003204345703,0.0800018310546875,-2.3000030517578125,5.120002746582017,1.5300064086914205,-0.4700012207031392,4.159996032714844,-0.1999969482422017,4.0699996948242045,7.7099990844726705,7.0,5.0,06-15,1.4437499046325668
05-17,0.5249996185302699,-1.0250015258789062,-0.9599990844726562,1.5300025939941406,-3.9449996948242188,3.7700042724609375,1.160003662109375,0.06999969482420454,6.019996643066406,-1.1100006103515767,5.220001220703111,9.77999877929686,8.0,4.0,06-16,1.7529171307881624
05-18,-0.05000114440917969,-0.024997711181640625,-2.5550003051757812,2.1750030517578054,-0.8949966430664062,4.115005493164077,-0.03499603271484375,0.23000335693360796,6.1100006103515625,-1.6499938964844034,9.170005798339858,11.349998474121108,6.0,6.0,06-17,2.328335920969647
05-19,-0.7950000762939418,1.0900001525878906,-2.479999542236328,1.1100006103515554,-1.6149978637695312,3.4900054931640767,1.0049972534179545,0.980003356933608,4.769996643066406,-1.0699996948242188,8.810005187988281,11.540000915527358,8.0,4.0,06-18,2.2362510363260926
05-20,-1.1299991607666016,2.4899997711181605,-2.0400009155273438,2.299999237060547,-0.47499847412109375,3.4099960327148295,2.2050018310546875,0.4100036621093892,4.900001525878906,0.34999847412107954,7.190002441406264,8.880004882812528,9.0,3.0,06-19,2.3741674423217796
05-21,-0.3949985504150426,1.9250011444091832,-1.2750015258789062,2.6199989318847656,-1.18499755859375,3.2099990844726562,2.0550003051757955,0.529998779296875,4.7400054931640625,-0.029998779296875,5.680000305175781,9.78000640869142,8.0,4.0,06-20,2.3045845031738303
05-22,-0.6949996948242152,2.3150024414062536,-0.9550018310546875,3.4599990844726634,-1.69000244140625,3.619995117187514,2.0749969482421875,1.75,4.69000244140625,1.2900009155273295,7.180000305175781,8.690002441406264,9.0,3.0,06-21,2.6441663106282576
05-23,-1.0400009155273509,2.5650024414062536,-0.6150016784667969,2.6199989318847727,-1.345001220703125,2.3649978637695312,4.449996948242202,1.9899978637695312,4.080001831054673,2.4300003051757812,8.840003967285156,4.4199981689453125,9.0,3.0,06-22,2.5633328755696616
05-24,-1.1000003814697301,2.639999389648434,0.9000015258789062,0.9200019836425781,-1.3300018310546875,2.5500030517577983,3.940002441406236,0.29999542236328125,3.7399978637695455,2.6399993896484375,7.910003662109375,3.720001220703125,10.0,2.0,06-23,2.2358336448669416
05-25,-1.6800003051757884,1.659999847412113,0.20499801635742898,1.4300003051757812,-3.625,3.225006103515611,4.80999755859375,-0.5100021362304545,3.7699966430664062,1.7399978637695312,7.680000305175753,3.6699981689453125,9.0,3.0,06-24,1.8645826975504536
05-26,-1.755001068115238,1.6199989318847727,0.31999969482422586,-1.3400001525878906,-4.215003967285156,3.125,4.930000305175781,0.1100006103515625,3.440002441406264,3.2600021362304545,8.559997558593736,3.690002441406236,9.0,3.0,06-25,1.812083244323729
05-27,-0.42000007629394887,0.005001068115248586,-0.03000259399413352,-0.45499801635741477,-5.325004577636719,2.4550018310546733,3.4000015258789062,-0.7900009155273295,4.089996337890625,4.379997253417969,9.389999389648423,-0.4700012207031392,6.0,6.0,06-26,1.35249916712443
05-28,-0.5599994659423864,0.5149993896484446,-0.8449974060058665,-1.8849983215332031,-4.75,2.1100006103515625,3.05999755859375,3.5400009155273438,4.1999969482421875,4.069999694824219,8.759994506835923,-0.760002136230483,7.0,5.0,06-27,1.4545826911926243
05-29,-0.75,0.2849998474121094,-0.7699966430664062,-1.1300010681152344,-4.0500030517578125,1.7350006103515625,3.5250015258789062,-4.9499969482421875,4.339996337890625,4.790000915527344,8.349998474121094,0.20999908447264204,7.0,5.0,06-28,0.9654165903727202
05-30,-1.1000003814697266,0.20499992370605824,-0.8699989318847656,0.6100006103515696,-3.654998779296875,1.4300003051757812,3.2249984741210795,-8.989997863769545,4.009994506835923,3.6800003051757812,8.290000915527358,-0.6000061035156392,7.0,5.0,06-29,0.5195827484130833
05-31,-1.2350006103515625,0.17499923706054688,-0.11999893188476562,0.02000045776366477,-2.3050003051757812,0.125,3.4950027465820455,-7.120002746582017,4.709999084472656,4.19000244140625,10.879997253417969,-1.230003356933608,7.0,5.0,06-30,0.9654162724812831
06-01,-1.0900001525878906,-0.7700004577636719,1.1899986267089915,2.2600021362304688,-3.0550003051757812,0.8600006103515625,0.46500396728515625,-5.490005493164077,1.9099960327148438,3.0999984741210795,8.110000610351562,0.5699996948241903,8.0,4.0,07-01,0.6716661453247029
06-02,-0.8649997711181605,-2.160001754760753,1.4850006103515625,2.865001678466797,-4.364997863769531,3.909996032714858,0.595001220703125,-5.709999084472685,0.6500015258789062,3.2900009155273438,8.930000305175781,-1.459999084472642,7.0,5.0,07-02,0.5970837275187169
06-03,-0.34999847412109375,-1.774999618530277,2.104999542236328,4.17500305175782,-3.3499984741210938,3.5699996948242188,-0.27500152587892046,-5.1800003051757955,1.2900009155273438,1.3000030517578125,10.84999847412108,-5.620002746582017,6.0,6.0,07-03,0.561666965484617
06-04,-0.5499992370605469,-0.6900005340576207,2.520000457763672,4.17500305175782,-2.55999755859375,2.5,0.33499908447264204,-5.630004882812528,1.2900009155273438,1.3000030517578125,6.919998168945298,-5.060005187988281,7.0,5.0,07-04,0.37916644414265505
06-05,-0.5699996948242188,-0.055000305175788355,3.345001220703125,2.854999542236321,-0.4550018310546875,2.8550033569335795,0.4049987792968892,-3.970001220703139,1.5999984741210938,0.18000030517578125,5.739997863769531,-7.8899993896484375,7.0,5.0,07-05,0.3366664250691708
06-06,-0.2550010681152308,0.26499938964843395,3.875,1.5349998474120952,-1.095001220703125,1.9650039672851562,2.4499969482422017,-3.600006103515639,2.230003356933608,-1.9300003051757812,5.099998474121108,-7.0500030517578125,7.0,5.0,07-06,0.29083251953125117
06-07,-1.0699996948242188,0.024999618530269885,2.904998779296882,1.1499977111816335,-2.9199981689453125,1.5999984741210938,1.8600006103515767,-5.1199951171875,2.8300018310546875,-1.089996337890625,4.099998474121108,-4.3300018310546875,7.0,5.0,07-07,-0.0049996376037576935
06-08,-0.6350002288818324,-0.7849998474121023,4.0300025939941335,0.5999984741210866,-2.3400039672851562,2.5250015258789062,1.0499954223632955,-7.979995727539077,2.7600021362304688,-2.1500015258789062,4.69000244140625,-3.5200042724609517,6.0,6.0,07-08,-0.14625024795532374
06-09,-1.9500007629394531,0.5799999237060582,3.625,1.7649993896484446,-0.9250030517578125,1.6350021362304545,0.4349975585937642,-7.459999084472656,0.75,-1.120002746582017,3.5699996948242188,-3.0,7.0,5.0,07-09,-0.17458391189574987
06-10,-1.7150001525878906,-0.125,4.200000762939446,1.8050003051757812,-0.5200042724609375,0.5,-2.840003967285142,-6.269996643066392,-0.08999633789063921,-0.9300003051757812,1.989997863769517,-2.5699996948242188,4.0,8.0,07-10,-0.5470835367838548
06-11,-1.8150005340576207,-0.8549995422363352,4.76500320434571,0.7050018310546946,2.31500244140625,1.1100006103515767,-3.8950042724609517,-4.660003662109361,0.8600006103515625,-0.01000213623046875,-0.909996032714858,6.910003662109361,6.0,6.0,07-11,0.37666718165079666
06-12,-1.6550006866455043,0.09000015258789062,4.14000320434571,-1.0050010681152344,2.5449981689453125,2.1200027465820312,-3.5250015258789062,-1.370002746582017,0.8400039672851562,1.2700042724609233,-1.579994201660142,4.8400039672851705,7.0,5.0,07-12,0.5591680208841993
06-13,-0.9349994659423828,0.27500152587890625,3.2150001525878906,-0.5150032043457102,0.3849945068359375,1.775001525878892,-2.7900009155273438,-1.0800018310546733,-0.5999984741210938,0.4499969482422017,-1.5,1.8800048828124858,6.0,6.0,07-13,0.04666630427042584
06-14,-1.0200004577636754,-0.14500045776366832,2.174999237060547,-0.44000244140625,1.1049957275390625,2.184997558593736,-0.529998779296875,1.6199951171875142,0.339996337890625,-0.20999908447265625,-1.1399993896484233,3.840003967285142,6.0,6.0,07-14,0.6483322779337565
06-15,-0.2049999237060547,-0.125,2.979999542236328,-1.6300010681152415,0.9599990844726562,2.5049972534179545,1.0999984741210938,2.8499984741210795,0.5199966430664062,-1.6299972534179545,1.0699996948242188,6.180000305175753,8.0,4.0,07-15,1.21458260218302
06-16,0.5300006866455043,-1.0100021362304759,2.9099998474121094,-2.05999755859375,0.80999755859375,2.4850006103515625,1.6100006103515625,2.5100021362304688,0.67999267578125,-1.160003662109375,2.1100006103515625,6.959999084472642,9.0,3.0,07-16,1.3645825386047343
06-17,1.429998397827152,-0.8200035095214986,2.5900001525878906,-0.720001220703125,0.44000244140625,1.5250015258789205,0.31000518798828125,1.2900009155273438,1.2900009155273438,-1.010002136230483,2.779998779296875,10.75,9.0,3.0,07-17,1.6545834541320792
06-18,1.5799999237060618,-1.0700035095214986,1.5099983215332031,-1.3250007629394602,-0.8650054931640625,1.0999984741210938,-0.8299942016601705,0.20999908447264204,1.6900024414062358,-2.6299972534179545,3.1699981689453125,11.200004577636733,7.0,5.0,07-18,1.1449999809265112
06-19,1.639999389648441,-1.104999542236321,2.1199989318847656,-1.0250015258789134,1.345001220703125,1.2849960327148438,-0.31999969482420454,0.8499984741210938,1.8499984741210938,1.2800064086914205,0.9499969482421875,11.90000152587892,9.0,3.0,07-19,1.730833053588871
06-20,3.8050003051757884,-2.174999237060547,1.6399993896484375,-0.9249992370605398,3.3899993896484375,0.6099929809570312,-6.349998474121094,0.8800048828124858,2.1699981689453267,1.6100006103515625,1.4199981689453267,11.59000396728517,9.0,3.0,07-20,1.4720834096272821
06-21,3.9500007629394602,-2.3299980163574254,0.7549972534179759,0.8850021362304759,3.9800033569335938,1.6650009155273295,-6.369995117187514,0.31999969482419033,2.9199981689453125,2.4499969482422017,0.5400009155273438,8.209999084472642,10.0,2.0,07-21,1.4145838419596322
06-22,4.395000457763679,-0.4500007629394531,0.8050003051757741,0.0,6.660003662109375,2.590003967285142,-7.319999694824219,2.220001220703111,3.029998779296875,1.3300018310546875,0.09999847412109375,5.720001220703125,9.0,3.0,07-22,1.5900007883707659
06-23,4.460000991821289,-0.14999771118164773,1.1699981689453196,5.314998626708984,6.2400054931640625,2.190002441406236,-10.080001831054688,-1.19000244140625,2.9199981689453125,1.279998779296875,0.6100006103515767,6.470001220703139,9.0,3.0,07-23,1.6029168764750175
06-24,3.889999389648441,0.845001220703125,1.0949974060058594,6.259998321533203,6.525001525878906,3.5400009155273438,-9.8800048828125,7.299995422363281,-4.099998474121094,-0.1100006103515625,0.04999542236329546,9.800003051757827,9.0,3.0,07-24,2.101249059041344
06-25,3.4549999237060547,0.9250011444091761,1.5100021362304688,4.709999084472656,5.650001525878906,2.9199981689453125,-9.650001525878892,9.89999389648439,-4.449996948242173,-0.6999969482421875,2.69000244140625,8.910003662109375,9.0,3.0,07-25,2.1558338801066115
06-26,3.5900001525878906,1.5550003051757812,0.990001678466804,2.8600006103515696,4.040000915527344,3.8649978637695312,-9.920005798339858,8.95999908447267,-5.430000305175781,0.2200012207031108,2.5699996948242188,9.540000915527344,10.0,2.0,07-26,1.903333028157552
06-27,4.305000305175778,2.3800010681152273,0.7950019836425781,2.004997253417976,4.025001525878906,3.1299972534179688,-9.35000610351564,7.899993896484389,-3.3799972534179545,4.1699981689453125,2.2099990844726562,6.889999389648452,10.0,2.0,07-27,2.0899988810221375
06-28,4.35000038146973,2.654998779296868,-0.9350013732910156,1.9949989318847727,5.334999084472656,-0.06499481201171875,-11.730003356933594,6.200004577636719,-4.319999694824219,3.55999755859375,1.3899993896484375,6.619995117187528,8.0,4.0,07-28,1.254582881927493
06-29,4.47500038146973,3.9000015258789062,-2.0699996948242188,0.68499755859375,5.144996643066406,-0.6399993896484375,-12.590003967285156,3.599998474121108,-2.9000015258789062,5.549995422363281,-0.48999786376951704,6.290000915527358,7.0,5.0,07-29,0.9129157066345254
06-30,4.32499885559082,4.214998245239254,-2.895000457763672,1.7650032043457031,4.334999084472656,-0.7399978637695455,-7.8000030517578125,1.9399948120117188,-3.2099990844726562,7.980003356933594,-0.6899948120117188,2.5200042724609233,7.0,5.0,07-30,0.9787505467732721
07-01,4.050001144409173,3.894998550415032,-3.424999237060547,2.8600006103515625,6.364997863769531,-1.9349975585937358,-7.930000305175781,1.5699996948242188,-4.459999084472656,6.7600021362304545,-0.1999969482421733,4.060005187988281,7.0,5.0,07-31,0.9675010045369467
07-02,4.8649997711181605,4.134998321533196,-3.4699974060058665,3.145000457763679,5.9850006103515625,-1.94000244140625,-7.340003967285156,2.8300018310546875,-4.5800018310546875,7.059997558593736,0.8700027465820312,1.3400039672851562,8.0,4.0,08-01,1.074999968210854
07-03,4.430000305175774,4.129999160766598,-3.645000457763679,2.290000915527351,5.4250030517578125,-2.8650054931640625,-6.529998779296875,2.05999755859375,-5.3600006103515625,8.660003662109375,-1.69000244140625,0.5300064086914205,7.0,5.0,08-02,0.619583606719971
07-05,5.9899997711181605,5.280000686645504,-4.88499832153321,1.2849998474121094,4.010002136230469,-5.0100021362304545,-6.720001220703139,1.0400009155273295,-4.470001220703125,6.9200057983398295,-0.5699996948242188,-2.2299957275390483,6.0,6.0,08-04,0.053334236145017165
07-06,6.89999961853027,4.729997634887685,-4.9350013732910085,1.2449989318847727,4.7649993896484375,-4.995002746582017,-7.229995727539048,1.3600006103515625,-3.840003967285142,6.730003356933594,-0.709999084472642,-2.5,6.0,6.0,08-05,0.12666638692220525
07-07,7.7100009918212855,3.904998779296875,-5.365001678466804,2.134998321533196,4.56500244140625,-3.8800048828124716,-8.51999664306642,1.3000030517578125,-4.790000915527344,5.400001525878906,-2.209999084472642,-0.6299972534179688,6.0,6.0,08-06,-0.03166627883911044
07-08,7.645000457763672,3.3149986267089844,-4.740001678466804,2.914997100830071,4.3300018310546875,-4.2949981689453125,-6.510002136230469,-1.9899978637695312,-6.310005187988281,7.029998779296889,-5.419998168945298,5.19000244140625,6.0,6.0,08-07,0.09666633605957149
07-09,7.5,3.1299972534179688,-6.2949981689453125,3.2649993896484304,2.4449996948242188,-4.465003967285156,-6.0500030517578125,-2.5100021362304688,-5.970001220703111,6.400001525878906,-4.959999084472642,6.5800018310546875,6.0,6.0,08-08,-0.07750066121419093
07-10,7.585000991821293,3.235000610351559,-6.194999694824226,4.689998626708984,2.5250015258789062,-4.25,-8.310005187988281,-2.1800003051757812,-5.840003967285156,5.159996032714858,-2.5500030517578125,4.620002746582031,6.0,6.0,08-09,-0.12583430608113547
07-11,6.295000076293942,2.885002136230465,-8.65999984741211,5.115001678466804,1.529998779296875,-4.569999694824219,-11.319999694824219,-2.1299972534179688,-7.569999694824219,5.5,-3.1399993896484375,2.0600051879882812,6.0,6.0,08-10,-1.1670823097229004
07-12,6.315000534057621,2.994998931884755,-6.270000457763665,5.224998474121094,1.6800003051757812,-5.3349990844726705,-12.610000610351562,-4.329994201660156,-8.46999359130858,5.410003662109375,-4.180000305175781,4.330001831054702,6.0,6.0,08-11,-1.2699987093607572
07-13,5.760000228881836,2.0049972534179616,-8.435001373291009,3.8850021362304688,2.4199981689453125,-3.885002136230483,-9.919998168945312,-4.779998779296889,-9.02999877929686,5.260002136230483,-1.05999755859375,6.3600006103515625,6.0,6.0,08-12,-0.9516663551330566
07-14,5.510000228881836,1.2650032043457102,-7.694999694824212,4.6200027465820455,2.3499984741210938,-4.4050064086914205,-13.199996948242188,-3.9399948120117188,-9.430000305175753,6.839996337890611,-2.3799972534179688,9.169998168945312,6.0,6.0,08-13,-0.9412496884663876
07-15,4.715000152587891,1.2250022888183523,-8.305000305175774,4.345001220703132,2.1749954223632812,-3.0149993896484375,-12.950004577636719,-4.5799942016601705,-11.629997253417969,5.089996337890611,-5.159996032714858,5.369995117187472,6.0,6.0,08-14,-1.893333435058599
07-16,3.1299991607666016,2.295001983642578,-6.899997711181641,4.0050010681152415,3.9599990844726562,-1.8899993896484517,-7.790000915527344,-4.560005187988281,-12.229995727539062,3.709999084472642,-4.760002136230469,5.729995727539034,6.0,6.0,08-15,-1.2750004132588746
07-17,2.9849987030029297,2.3499984741211044,-6.825000762939446,2.1750030517578196,2.7549972534179688,-2.845001220703139,-7.770004272460923,-5.310005187988281,-10.400001525878892,1.4399948120117188,-6.3899993896484375,9.110000610351562,6.0,6.0,08-16,-1.5604182879130013
07-18,2.7250003814697195,2.0799980163574254,-6.0449981689453125,2.6199989318847585,1.18499755859375,-3.7700042724609517,-7.3300018310546875,-4.840003967285142,-10.009994506835966,0.279998779296875,-6.779998779296875,9.419998168945327,6.0,6.0,08-17,-1.7054174741109234
07-19,2.0650005340576136,2.180000305175785,-7.020000457763679,-1.2649993896484375,1.6049957275390625,-3.589996337890625,-6.150001525878892,-4.729995727539048,-9.860000610351577,0.6399993896484375,-7.290000915527358,9.590003967285156,5.0,7.0,08-18,-1.9854162534077968
07-20,1.2600002288818288,1.549999237060554,-7.024997711181641,-2.2099990844726562,-0.4799957275390625,-3.239997863769517,-6.589996337890611,-6.44000244140625,-2.980003356933608,2.029998779296875,-7.329994201660156,9.529998779296875,4.0,8.0,08-19,-1.8270824750264474
07-21,1.2600002288818395,1.2249984741210938,-7.340000152587891,-0.3549995422363281,-0.5699996948242188,-2.489997863769517,-3.6399993896484375,-5.0,-2.6300048828125284,3.4899978637695312,-6.229995727539077,8.52999877929686,4.0,8.0,08-20,-1.145833492279056
07-22,1.3400001525878906,0.625,-6.819999694824226,-0.25,-1.4599990844726562,-2.7399978637695455,-5.589996337890625,-4.060005187988281,-2.7099990844726562,4.0099945068359375,-5.329994201660156,6.959999084472656,4.0,8.0,08-21,-1.3354164759318052
07-23,0.4799995422363317,-0.20000076293944602,-9.069999694824219,-0.7949981689453125,-0.0800018310546875,-3.1149978637695312,-3.1299972534179545,-2.8199996948242188,-3.30999755859375,5.319999694824219,-8.659996032714858,7.80999755859375,3.0,9.0,08-22,-1.464166005452473
07-24,0.43499946594237926,-1.3050003051757812,-9.835002899169922,-0.5449981689453196,1.0149993896484375,-2.970001220703139,-0.75,-1.8599929809570312,-3.0,5.029998779296889,-7.400001525878892,8.080001831054673,4.0,8.0,08-23,-1.0920831362406422
07-25,0.1700000762939382,-1.3999977111816406,-9.805000305175781,1.7800025939941264,0.19000244140625,-2.3949966430664205,-2.519996643066392,-1.3799972534179688,-2.5699996948242188,1.3199996948242188,-7.440002441406236,8.009994506835923,5.0,7.0,08-24,-1.3366659482320167
07-26,0.8699989318847621,-1.5949974060058523,-7.724998474121094,1.4099998474121023,1.0,-1.7949981689453125,-5.180000305175781,-0.31999969482424717,-3.1200027465820455,-0.06000518798828125,-7.240005493164034,8.0,4.0,8.0,08-25,-1.3129173914591485
07-27,0.6700000762939382,-2.295001983642578,-6.555000305175781,0.3150024414062429,-0.5100021362304688,-2.05999755859375,-10.129997253417955,0.3000030517578125,-2.5200042724609517,1.159996032714858,-8.330001831054688,10.849998474121094,5.0,7.0,08-26,-1.5920837720235188
07-28,0.8700008392333984,-1.8499984741210866,-6.3300018310546875,-1.0,0.535003662109375,-1.2200012207031392,-15.869995117187514,0.9099960327148438,-2.4000015258789205,0.02999877929688921,-11.889999389648438,11.239997863769531,5.0,7.0,08-27,-2.2479166984558123
07-29,0.9300003051757848,-1.8400001525878906,-6.154998779296875,-0.9199981689453196,-0.4499969482421875,0.7350006103515483,-15.470001220703125,1.6800003051757812,-1.5400009155273438,0.8800048828125284,-11.260002136230469,9.539993286132827,5.0,7.0,08-28,-1.9891665776570615
07-30,-0.3349990844726527,-2.1650009155273366,-6.409999847412109,-0.8050003051757955,-1.6450042724609375,0.40500640869142046,-15.419998168945312,2.0800018310546875,-1.529998779296875,1.3899993896484375,-11.549995422363281,11.75,4.0,8.0,08-29,-2.019582430521646
07-31,-0.6299991607666016,-2.9000015258789062,-5.780002593994141,-0.2849998474121094,-2.3400039672851562,3.440002441406264,-15.27999877929686,1.0800018310546875,-1.0999984741210938,-0.7900009155273295,-8.360000610351562,12.299995422363295,3.0,9.0,08-30,-1.7204171816507927
08-01,-0.8150005340576207,-2.0100021362304616,-4.20500183105468,0.825000762939446,-3.5,3.4250030517578267,-12.68000030517581,2.9300003051757812,-1.25,1.9300003051757812,-6.6399993896484375,13.41000366210939,5.0,7.0,08-31,-0.7149996757507321
08-02,-0.44000053405762074,-2.8199996948242116,-2.6199989318847656,1.0349998474121094,-3.3000030517578125,2.3100051879882812,-11.760002136230483,3.589996337890639,-2.400001525878892,2.3400039672851562,-5.1399993896484375,14.740005493164091,5.0,7.0,09-01,-0.3720828692118288
08-03,-0.7099990844726598,-2.0949974060058523,-3.0250015258789062,0.2550010681152344,-3.06500244140625,2.410003662109361,-12.580001831054702,1.549995422363267,-0.8600006103515483,0.7100067138671733,-1.9300003051757812,13.020004272460952,5.0,7.0,09-02,-0.526666005452476
08-04,-1.4799995422363281,-1.3599967956542898,-0.5450019836425781,-0.095001220703125,-2.8499984741210938,2.620002746582017,-15.19000244140625,1.7799987792968608,-1.2000045776367188,1.3400039672851562,-0.8199996948242188,16.209999084472656,4.0,8.0,09-03,-0.13250001271565934
08-05,-1.5900001525878906,-1.0449981689453054,-0.6450004577636648,-0.7050018310546804,-2.839996337890625,3.4899978637695312,-13.05999755859375,1.4499969482421733,-1.3300018310546733,0.34000396728515625,-0.1699981689453125,14.319999694824219,4.0,8.0,09-04,-0.14874966939290188
08-06,-1.1149997711181605,-0.6949996948242116,1.8199996948242188,0.05999755859375,-2.1049957275390625,2.3199996948242188,-11.680000305175781,1.3999938964843608,-0.8199996948242188,0.220001220703125,-0.5500030517578125,14.540000915527358,6.0,6.0,09-05,0.282916227976482
08-07,-1.1350002288818395,-0.8049964904785014,1.0400009155273438,-1.6749992370605469,-1.0749969482421875,3.1049957275390625,-10.389999389648438,1.5,-0.5500030517578125,-0.08000183105470171,-1.3400039672851562,12.270004272460938,4.0,8.0,09-06,0.07208331425984671
08-08,-0.5799999237060547,-0.42499923706053977,0.3100013732910156,-1.1700019836425781,-1.4449996948242188,1.654998779296875,-13.080001831054688,2.55999755859375,0.04000091552732954,1.3499984741210938,-5.1300048828125,10.240005493164077,6.0,6.0,09-07,-0.4729170799255365
08-09,-0.48999977111816406,0.10500335693360796,-2.0550003051757884,-1.3000030517578196,-1.375,2.220001220703139,-12.629997253417969,3.25,0.8299942016601562,1.3899993896484375,-3.8100051879882812,7.050003051757827,6.0,6.0,09-08,-0.5679170290629045
08-10,-0.10000038146972656,-0.5299987792968608,0.9750022888183452,-1.0250015258789062,-0.3849945068359375,2.3900070190429688,-13.300003051757798,2.040000915527358,2.869995117187514,3.1399993896484375,0.7899932861328267,6.8700027465820455,7.0,5.0,09-09,0.31125020980835555
08-11,0.11999893188476918,1.0249977111816477,0.04999923706053977,1.4300003051757812,-1.0449981689453125,2.3700027465820312,-8.010002136230469,1.9900054931640767,3.469993591308608,5.9199981689453125,3.2299957275390767,0.09999847412107954,10.0,2.0,09-10,0.8874991734822618
08-12,0.4650001525878871,1.125,-0.024997711181654836,1.5,0.15000152587890625,0.9650039672851562,-7.930000305175781,2.7400054931640767,1.4500045776367188,5.4300003051757955,3.9599990844726847,4.349998474121108,10.0,2.0,09-11,1.1816679636637415
08-13,0.27999877929687855,1.395000457763679,-0.8900032043457031,2.825000762939453,0.475006103515625,0.2250061035156392,-7.4199981689453125,0.840003967285142,1.0299987792968608,6.0099945068359375,4.180000305175781,6.529998779296861,10.0,2.0,09-12,1.2900005976359035
08-14,0.9399986267089844,1.3999977111816406,-1.7600021362304688,3.694999694824226,1.0250015258789062,0.44499969482421875,-8.599998474121108,-3.5999984741210938,3.340003967285142,5.739997863769531,7.459999084472656,6.359992980957031,9.0,3.0,09-13,1.370416005452472
08-15,2.0100002288818395,2.1299972534179688,-1.75,3.1699981689453125,2.8249969482421875,0.09500122070311079,-7.6200027465820455,-1.6999969482421733,3.75,5.0,8.059997558593736,6.8199996948242045,9.0,3.0,09-14,1.8991659482320118
08-16,2.1649990081787145,2.5649986267089844,-0.25499725341796164,2.8649978637695312,2.9150009155273438,-1.1750030517578267,-7.540000915527358,-2.4899978637695312,1.3199996948242472,4.129997253417969,6.959999084472656,8.180000305175781,8.0,4.0,09-15,1.636666138966879
08-17,2.469999313354492,1.7999992370605398,0.34999847412109375,2.759998321533203,3.029998779296875,-2.045005798339858,-10.099998474121108,-2.9099960327148438,2.379997253417983,3.6100006103515625,6.589996337890611,11.290008544921903,9.0,3.0,09-16,1.602083047231038
08-18,3.229999542236321,2.1899986267089844,2.7949981689453125,4.709999084472656,2.81500244140625,-2.029998779296889,-10.290000915527344,-3.089996337890625,2.9799957275390767,3.219993591308608,7.759994506835909,11.229995727539048,9.0,3.0,09-17,2.126665115356442
08-19,3.229999542236328,3.020000457763679,3.5600013732910156,4.839996337890625,4.194999694824219,-2.055000305175753,-7.430000305175781,-4.0500030517578125,4.090003967285156,2.4399948120117188,3.739997863769517,10.399993896484347,9.0,3.0,09-18,2.1649986902872715
08-20,3.369998931884769,3.1149978637695384,4.239997863769531,4.6699981689453125,3.1949996948242188,-1.125,-4.800003051757827,-3.970001220703139,3.910003662109361,3.2599945068359233,6.909996032714858,10.799995422363267,9.0,3.0,09-19,2.797914822896318
08-21,2.6700000762939453,3.6100006103515625,4.849998474121094,4.989997863769531,4.349998474121094,-1.625,-2.1399993896484375,-5.0,4.410003662109361,2.1899948120117188,8.73000335693358,10.80998992919919,9.0,3.0,09-20,3.1537489891052197
08-22,2.5649986267089915,3.520000457763672,4.3899993896484375,3.0949974060058736,3.8300018310546875,-1.3600006103515625,2.1999969482421733,-4.129997253417969,3.7999954223632812,4.4500045776367045,9.330001831054688,8.169998168945312,10.0,2.0,09-21,3.3216663996378575
08-23,2.75,3.825000762939453,3.1899986267089844,4.125,2.7849960327148438,-1.5349960327148295,0.9300003051757528,-5.180000305175753,5.18000030517581,5.280006408691392,12.889999389648438,4.689994812011719,10.0,2.0,09-22,3.244166692097984
08-24,2.769998550415039,3.990001678466804,0.8250007629394531,4.04499816894532,3.8600006103515625,-1.709999084472642,1.1899948120117188,-3.9300003051757812,5.099998474121108,4.430000305175753,13.520004272460923,-1.0,9.0,3.0,09-23,2.757499853769938
08-25,2.9149990081787145,3.470001220703125,1.2299995422363281,4.4950027465820455,3.0049972534179688,-3.275001525878892,0.5699996948242472,-4.290000915527344,5.089996337890639,4.790000915527358,12.09000396728517,1.0,10.0,2.0,09-24,2.59083318710328
08-26,2.654998779296875,3.3800010681152344,0.6000022888183594,4.104999542236335,1.5749969482421875,-4.090003967285156,-3.1599960327148438,-3.2900009155273438,4.839996337890611,4.850006103515639,11.180000305175781,-1.629997253417983,8.0,4.0,09-25,1.751250267028808
08-27,1.9300003051757848,2.4900016784667898,-2.6949996948242188,3.715000152587905,2.8550033569335938,-2.350006103515639,-5.249999999999986,-4.459999084472656,4.610000610351577,1.5600051879882812,8.819999694824219,-2.470001220703125,7.0,5.0,09-26,0.7295837402343771
08-28,1.5550003051757848,2.9849967956542898,-3.3349990844726634,3.0699996948242188,4.44000244140625,-2.4500045776367188,-6.1699981689453125,-4.3300018310546875,5.010002136230469,1.6699981689452983,7.6300048828125,-3.8000030517578267,7.0,5.0,09-27,0.5229164759318001
08-29,1.55999946594239,3.7199974060058523,-1.5249977111816406,2.4449996948242188,4.224998474121094,-2.660003662109375,-7.180000305175781,-5.459999084472656,4.6500015258789205,-1.2700042724609375,6.5200042724609375,-1.4500045776367045,6.0,6.0,09-28,0.2979159355163598
08-30,1.125,3.6499977111816335,-0.9800033569335938,3.055000305175774,4.214996337890625,-3.8899993896484375,-6.950004577636719,-4.830001831054673,4.180000305175753,-0.2700042724609375,5.870002746582031,-0.15000152587890625,6.0,6.0,09-29,0.41874853769937914
08-31,1.679998397827152,3.654998779296875,-2.5449981689453125,2.2900009155273438,4.719993591308594,-3.3700027465820312,-10.779998779296875,-2.309997558593736,3.6699981689452983,-0.15000152587890625,6.230003356933594,1.3399963378906108,7.0,5.0,09-30,0.3691658973693839
09-01,2.3299999237060547,2.3699989318847585,-1.7649993896484375,3.5300025939941406,4.029998779296875,-2.8649978637695312,-5.400001525878906,-2.410003662109375,3.400001525878892,-0.8899993896484375,7.790000915527344,-3.6699981689453125,6.0,6.0,10-01,0.5375002225240054
09-02,2.1399993896484375,1.9900016784667969,-1.0349998474121094,3.3349990844726562,4.924995422363281,-4.2249984741210795,-5.839996337890625,-3.470001220703125,5.409996032714858,-0.75,8.080001831054702,-3.9000015258789062,6.0,6.0,10-02,0.5549996693929072
09-03,2.049999237060547,1.4599990844726491,-0.4249992370605469,3.690002441406243,4.799995422363281,-6.180000305175781,-6.290000915527344,-5.560005187988281,5.220001220703139,-0.12999725341795454,6.440002441406264,-0.7099990844726562,6.0,6.0,10-03,0.36374982198079664
09-04,1.6599998474121094,2.2600021362304616,-1.2699966430664062,3.229999542236321,3.8499984741210938,-6.224998474121108,-5.619995117187514,-4.260002136230483,7.559997558593764,0.3300018310547017,2.8900070190429688,-0.529998779296875,7.0,5.0,10-04,0.3229179382324195
09-05,0.5850009918212926,2.404998779296868,-2.259998321533203,3.920001983642578,3.0349960327148438,-6.3950042724609375,-6.270004272460952,-4.18000030517581,8.549995422363281,-1.8699951171875,1.07000732421875,0.790000915527358,7.0,5.0,10-05,-0.05166673660278587
09-06,0.4349994659423828,1.9799995422363281,-1.2649993896484375,1.8050003051757812,3.6949996948242188,-6.375,-3.7399978637695312,-5.569999694824247,8.060005187988281,-3.2699966430664062,-1.3699951171875,2.279998779296889,6.0,6.0,10-06,-0.2779154777526867
09-07,1.0750007629394531,2.8600006103515554,-1.125,1.7350006103515625,2.4250030517578125,-6.034996032714858,-1.8100051879882812,-5.150001525878906,8.25,-2.779998779296889,-1.9100036621093892,4.9300003051757955,6.0,6.0,10-07,0.20541667938232125
09-08,1.3199996948242223,2.8300018310546733,-1.0399971008300852,0.6149978637695312,4.629997253417969,-6.324996948242173,-3.0,-3.720001220703111,8.670005798339858,-3.6299972534179688,0.1100006103515625,3.5600051879882812,7.0,5.0,10-08,0.33500130971272996
09-09,0.7049999237060582,2.7250022888183523,-0.1699981689453196,1.0750007629394602,3.1350021362304688,-7.5200042724609375,-1.7900009155273295,0.720001220703125,7.129997253417969,-4.069999694824219,-0.8000030517578267,3.6000061035155966,7.0,5.0,10-09,0.3950002988179498
09-10,0.4399986267089879,1.9950027465820241,0.2949981689453125,0.9650001525878906,-0.45000457763671875,-6.465003967285156,-2.3300018310546733,-0.5699996948242472,7.379997253417969,-2.5099945068359375,-4.9199981689453125,3.2000045776367045,6.0,6.0,10-10,-0.24750010172526307
09-11,0.2849998474121129,1.4550018310546875,0.18000030517578125,-0.0800018310546946,-0.970001220703125,-5.944999694824219,-2.410003662109361,-9.02999877929689,6.739997863769531,-14.02999877929686,-3.0999984741210938,1.8400039672851278,5.0,7.0,10-11,-2.0887498855590834
09-12,0.6550006866455078,1.7849998474121094,1.6599998474121165,-0.20499801635742188,-0.19499969482421875,-5.0749969482421875,1.6099929809570312,-8.91000366210939,5.689994812011719,-12.430000305175781,-3.6299972534179688,4.779998779296847,6.0,6.0,10-12,-1.1887507438659697
09-13,0.9200000762939489,1.6800003051757812,0.759998321533196,-1.6100006103515625,0.01999664306640625,-6.840003967285156,1.80999755859375,-8.860000610351577,7.350006103515611,-13.349998474121108,-4.799995422363267,5.669998168945284,7.0,5.0,10-13,-1.4375001589457244
09-14,1.1000003814697301,2.0800018310546875,0.8800010681152273,-1.7399978637695312,-0.2350006103515625,-8.080001831054688,3.17999267578125,-8.739997863769545,5.930000305175781,-12.569999694824219,0.3000030517578125,5.839996337890568,7.0,5.0,10-14,-1.0045835177103741
09-15,0.6149997711181676,2.3050003051757884,0.17000198364257102,-1.5200004577636719,0.7750015258789062,-11.560005187988281,2.9000015258789062,-9.299995422363281,6.110000610351577,-16.610000610351562,3.80999755859375,3.6500091552734943,8.0,4.0,10-15,-1.5545824368794696
09-16,0.8199996948242223,2.004997253417976,-0.4399986267089915,-2.134998321533203,0.46500396728515625,-11.47000122070314,2.25,-8.26999664306642,6.599998474121108,-17.900001525878892,1.8499984741210938,5.550003051757841,7.0,5.0,10-16,-1.7229162851969375
09-17,1.125,2.0949974060058665,-0.02500152587890625,-1.1800003051757812,0.05999755859375,-10.665000915527344,2.8600006103515625,-8.959999084472642,6.699996948242202,-16.83999633789061,1.0,5.339996337890625,7.0,5.0,10-17,-1.5408341089884399
09-18,0.9399986267089915,1.8349990844726562,0.9949989318847656,0.18500137329101562,-0.7949981689453125,-11.330001831054688,4.129997253417983,-8.480003356933594,6.369995117187514,-15.089996337890625,-0.470001220703125,8.819999694824219,7.0,5.0,10-18,-1.07416756947835
09-19,1.1950016021728551,2.0549964904785156,0.05999755859375,0.8650016784667898,-0.8850021362304688,-11.154998779296875,5.810005187988281,-8.419998168945312,4.620002746582031,-16.930000305175753,-1.7300033569335795,16.660003662109375,7.0,5.0,10-19,-0.6545828183491992
09-20,0.8050003051757848,2.1099967956542898,1.6050033569335938,0.29999923706053977,-0.029998779296875,-8.924995422363281,7.290000915527315,-8.450004577636719,4.06999969482419,-17.799995422363267,-0.3000030517578267,17.080001831054688,7.0,5.0,10-20,-0.1870829264322973
09-21,1.1400012969970703,1.789997100830071,2.6499977111816406,0.69000244140625,5.525001525878906,-6.214996337890625,7.7300033569335795,-9.900001525878892,3.8899993896484375,-17.86000061035155,2.8899993896484233,14.240005493164091,9.0,3.0,10-21,0.5475007692972836
09-22,0.5450000762939418,2.6899986267089844,4.3699989318847585,1.1399993896484304,6.1750030517578125,-4.25,9.759994506835909,-10.580001831054673,4.119995117187472,-13.700004577636719,5.8800048828125,13.810005187988281,9.0,3.0,10-22,1.6633327802022249
09-23,0.3099994659423828,3.0050010681152344,5.009998321533203,0.46000289916991477,6.595001220703125,-1.1200027465820312,10.699996948242188,-10.709999084472642,5.149993896484389,-11.300003051757798,6.3300018310546875,15.709999084472656,9.0,3.0,10-23,2.5116658210754426
09-24,0.5749988555908168,2.270000457763672,4.1199989318847585,0.44499969482421164,8.324996948242188,-3.4149932861328125,12.529998779296875,-9.479995727539062,8.599998474121108,-11.02999877929686,9.039993286132812,15.080001831054673,9.0,3.0,10-24,3.0883332888285318
09-25,1.0099983215332067,1.9449996948242188,5.6199989318847585,0.2550010681152344,6.904998779296875,-1.8499984741210938,12.300003051757812,-9.760002136230483,7.7299957275390625,-10.91000366210939,7.80999755859375,13.779998779296875,9.0,3.0,10-25,2.9029156366984026
09-26,0.9600009918212891,1.8250007629394531,5.979999542236321,1.2849998474121094,5.900001525878906,-2.3699951171875,19.110000610351577,-8.90000152587892,8.930000305175753,-12.610000610351562,7.80999755859375,11.959999084472699,9.0,3.0,10-26,3.323333581288656
09-27,0.29000091552734375,2.2750015258789062,4.005001068115234,0.9699974060058594,6.589996337890625,-2.280006408691392,19.47999572753905,-11.229995727539077,9.730003356933608,-11.209999084472642,6.25,12.53000640869142,9.0,3.0,10-27,3.1166667938232444
09-28,-0.27499961853027344,2.0800018310546875,6.680000305175781,1.1650009155273438,6.200004577636719,-1.8050003051757955,19.419998168945312,-11.050003051757812,8.870002746582031,-11.34999847412108,5.0699996948242045,9.590003967285199,8.0,4.0,10-28,2.8829175631205266
09-29,0.12999916076660156,1.93499755859375,6.255001068115234,0.8099975585937571,7.430000305175781,-3.4300003051757955,16.980003356933594,-9.540000915527358,9.05999755859375,-6.040000915527344,5.529998779296861,7.05999755859375,9.0,3.0,10-29,3.014999230702715
09-30,-0.4799995422363281,1.9849967956542969,7.099998474121094,0.8099975585937571,6.915000915527344,-0.6750030517578267,16.639999389648438,-10.840003967285156,7.6699981689453125,-6.9199981689453125,5.199996948242173,3.1299972534179688,8.0,4.0,10-30,2.54458173116048
10-01,0.34499931335448863,1.8400001525878906,10.125,0.23499679565430398,9.34999847412108,0.44000244140625,14.200004577636733,-10.090003967285142,6.930000305175781,-6.8600006103515625,8.180000305175753,3.4300003051757812,10.0,2.0,10-31,3.177083174387613
10-02,0.49500083923339844,2.180000305175774,10.345001220703125,0.7450027465820455,7.510002136230469,0.44000244140625,11.669998168945312,-10.56999969482419,5.160003662109375,-5.989997863769531,11.569999694824219,1.94000244140625,10.0,2.0,11-01,2.9579180081685412
10-03,0.43499946594237926,2.229999542236321,8.865001678466797,0.2350006103515625,7.584999084472656,0.09999847412110796,9.69000244140625,-10.310005187988281,4.25,-3.6400070190429688,11.3800048828125,2.1800079345703125,10.0,2.0,11-02,2.7500001589457193
10-04,-0.5550003051757812,2.2150001525878835,6.965000152587891,0.030002593994140625,5.3800048828125,0.5400009155273153,9.670005798339858,-9.310005187988281,3.6599960327148295,-3.3700027465820312,9.360000610351548,3.8000030517578125,9.0,3.0,11-03,2.365417162577307
10-05,-0.024999618530273438,1.8199996948242188,6.9699974060058665,-0.43000030517578836,7.334999084472656,6.209999084472642,9.410003662109375,-9.200004577636733,2.8899993896484375,-2.9300003051757812,9.41000366210939,9.259994506835909,8.0,4.0,11-04,3.393332640329993
10-06,-0.02499961853027699,1.5649986267089915,6.494998931884766,2.0400009155273366,7.4199981689453125,4.549995422363281,10.79000091552733,-9.810005187988281,2.6399993896484375,-2.8400039672851705,9.73000335693358,12.309997558593764,9.0,3.0,11-05,3.738748709360756
10-07,-0.10499954223633523,1.6699981689453125,6.609996795654297,1.0999984741210938,7.775001525878906,6.025001525878906,9.550003051757798,-1.3500061035156392,3.5200042724609375,-2.6699981689453125,12.379997253417969,3.869995117187557,9.0,3.0,11-06,4.031249364217124
10-08,-0.7800006866455078,1.3400001525878906,6.110000610351555,2.029998779296875,10.2550048828125,7.8600006103515625,8.090003967285156,-2.0999984741210938,3.8899993896484375,-3.130004882812486,16.540000915527344,-2.180007934570284,8.0,4.0,11-07,3.993749777475996
10-09,-1.0450000762939489,2.0649986267089773,6.034999847412095,3.740001678466804,10.160003662109375,9.610000610351562,7.8899993896484375,-1.0400009155273295,3.6999969482421875,8.800003051757798,15.19000244140625,-3.0700073242187216,9.0,3.0,11-08,5.169583161671958
10-10,-0.4600009918212926,2.3349990844726562,6.229999542236321,2.6399993896484375,9.035003662109375,10.849998474121094,5.870002746582031,0.5,3.9599990844726705,9.930000305175781,14.110000610351562,2.2099914550781534,11.0,1.0,11-09,5.600832780202232
10-11,-0.6550006866455078,2.0449981689453125,6.584999084472649,2.5900001525878906,8.025001525878906,14.75,5.660003662109375,2.4399948120117188,3.7099990844726705,13.15000152587892,10.600006103515625,2.7099914550781534,11.0,1.0,11-10,5.967499574025477
10-12,0.3799991607666051,1.3800010681152273,3.829998016357429,3.204998016357422,6.754997253417969,15.15499877929689,4.390007019042969,3.349998474121108,2.720001220703139,14.44000244140625,12.62000274658206,5.819992065429716,12.0,0.0,11-11,6.170416355133065
10-13,0.1650009155273402,0.8899993896484304,3.875,0.7350006103515625,7.720001220703125,14.84000396728517,3.940002441406264,3.1699981689452983,2.6200027465820455,12.519996643066406,11.709999084472628,9.249999999999972,12.0,0.0,11-12,5.95291709899902
10-14,-0.17499923706055043,0.8449974060058594,2.854999542236328,0.6199989318847585,8.014999389648438,13.83999633789061,4.290000915527344,2.69000244140625,1.959999084472642,11.55999755859375,11.98999786376956,8.05999755859375,11.0,1.0,11-13,5.545832316080728
10-15,-0.4500007629394531,0.625,4.19000244140625,0.6650009155273438,8.514999389648423,11.699996948242202,2.3499984741210795,4.2099990844726705,1.5,9.25,12.040000915527344,5.9099884033203125,11.0,1.0,11-14,5.042082150777181
10-16,-0.05999946594238281,0.615001678466804,5.135002136230469,-0.18500137329101562,9.199996948242202,11.034996032714858,0.8700027465820455,3.1099929809570312,1.3800048828124858,6.129997253417983,11.360008239746122,5.489990234375,10.0,2.0,11-15,4.506666024525967
10-17,-0.8700008392333949,-0.04999923706053977,4.725002288818359,-1.3300018310546804,5.074996948242202,8.324996948242202,-1.970001220703125,3.3899993896484233,1.3899993896484375,7.229995727539048,9.080009460449261,5.549987792968722,8.0,4.0,11-16,3.378748734792076
10-18,-0.8050003051757777,-0.00999832153319602,3.30999755859375,-1.3899993896484304,4.4249954223632955,7.025001525878892,-0.34999847412109375,3.4200057983398295,0.510002136230483,6.360000610351577,6.090003967285185,8.499999999999972,8.0,4.0,11-17,3.0904175440470403
10-19,-0.2700004577636683,-0.09499740600585938,3.045001983642578,-0.7100028991699148,4.4850006103515625,6.360000610351577,0.7699966430664205,3.8000030517577983,-0.9199981689453267,3.9599990844726562,5.069999694824219,9.949996948242159,8.0,4.0,11-18,2.9537499745686837
10-20,0.024999618530273438,-0.6899986267089844,2.125,-1.2249984741210938,4.1449966430664205,7.075004577636719,0.3300018310547017,3.6999969482421875,-4.3700027465820455,5.4199981689453125,4.819999694824219,8.639999389648438,9.0,3.0,11-19,2.499583085378012
10-21,0.4200000762939453,-0.2949981689453125,0.625,-1.039997100830071,4.0199966430664205,6.230003356933594,3.5900039672851562,3.980003356933608,-2.8799972534179545,5.5099945068359375,4.239997863769503,9.240005493164062,9.0,3.0,11-20,2.8033343950907406
10-22,-0.08500099182128906,-0.17499923706054688,-0.845001220703125,1.1750030517578054,2.3199996948242045,8.474998474121094,0.6100006103515483,3.3700027465820455,-3.05999755859375,6.039993286132827,3.519996643066378,9.570007324218722,8.0,4.0,11-21,2.5762502352396592
10-23,0.5849990844726562,0.1100006103515625,-0.40000152587890625,2.2550010681152273,1.875,7.880004882812486,0.2400054931640767,1.9500045776367188,-2.010002136230483,7.069999694824247,2.029998779296875,9.0,10.0,2.0,11-22,2.5487508773803715
10-24,0.6350002288818359,0.02499771118163352,-1.2849998474121094,2.190002441406243,1.3699951171875,7.404998779296889,-0.5599975585937358,2.9500045776367188,-2.5600051879882812,8.09999847412108,2.9199981689453125,11.940002441406222,9.0,3.0,11-23,2.7608329455057756
10-25,0.5200004577636719,0.009998321533203125,-0.34999847412109375,2.765003204345696,0.1399993896484375,10.02999877929689,0.6900024414062642,4.970001220703111,-2.3800048828125,2.1699981689452983,2.4599990844726562,11.940002441406222,10.0,2.0,11-24,2.747083346048988
10-26,1.159999847412113,0.024997711181640625,-1.7950019836425781,2.7150001525878764,1.2150039672851562,11.375,1.5400009155273438,4.100006103515639,-3.3300018310546875,3.049995422363267,1.970001220703125,11.940002441406222,10.0,2.0,11-25,2.8304169972737596
10-27,0.764999389648441,-0.4249992370605469,-3.8300018310546875,2.3349990844726562,1.4449996948242188,11.485000610351577,2.5400009155273438,3.2700042724609517,-2.5900039672851562,3.9199981689453267,1.7000045776367188,15.8800048828125,9.0,3.0,11-26,3.0412505467732784
10-28,1.2999992370605504,-0.3400001525878906,-4.0500030517578125,3.145000457763679,1.6500015258789062,10.090003967285156,1.1599960327148295,3.75,-0.8900070190429688,4.400001525878906,4.0800018310546875,18.06000518798828,9.0,3.0,11-27,3.529583295186361
10-29,0.7199993133544993,-0.3899993896484375,-3.420001983642578,2.9650001525878835,-0.6599960327148295,11.674995422363295,1.209999084472642,4.4599990844726705,-0.06000518798828125,4.4499969482421875,2.7399978637695455,15.169998168945312,8.0,4.0,11-28,3.2383319536844923
10-30,1.7099990844726598,0.5600013732910156,-3.4800033569335938,2.654998779296875,1.7350006103515483,11.524993896484403,1.229995727539034,5.0,-0.31000518798828125,1.5800018310546733,3.730003356933622,13.550003051757812,10.0,2.0,11-29,3.2904157638549805
10-31,1.5899982452392578,0.479999542236321,-1.9300003051757812,2.4099998474121094,1.275001525878892,5.854995727539077,2.4599990844726562,4.220001220703139,1.099998474121108,2.5500030517578125,4.5900039672851705,8.090011596679716,11.0,1.0,11-30,2.72416766484579
11-01,0.9200000762939453,0.56500244140625,-0.7299995422363281,0.04999923706055398,1.1900024414062358,8.29000091552733,2.2099990844726562,5.260002136230483,1.0900039672851705,0.9000015258789205,4.27000427246098,8.090011596679716,11.0,1.0,12-01,2.675419012705493
11-02,0.9699993133544922,0.15999984741210938,0.5250015258789062,0.9900016784667969,0.5399932861328125,9.22500610351561,1.739997863769517,3.5500030517578267,0.849998474121108,0.7299957275390625,1.1000061035155966,8.090011596679716,12.0,0.0,12-02,2.3725012143452964
11-03,0.9650001525878871,0.9850006103515625,-0.4550018310546875,0.43000030517578125,0.29999542236328125,9.75,2.569999694824247,4.180000305175781,0.48000335693360796,2.0200042724609233,0.75,6.410003662109375,11.0,1.0,12-03,2.3654171625773133
11-04,1.4449996948242223,0.365001678466804,-0.38000106811522727,1.2449989318847656,0.09999847412109375,10.330001831054673,1.4799957275390625,3.120002746582017,0.5100021362304688,2.880004882812486,0.410003662109375,10.460006713867159,11.0,1.0,12-04,2.663751284281408
11-05,0.6800003051757848,0.095001220703125,-1.1749992370605469,-0.4199981689453054,-0.8300018310546875,9.004997253417955,2.1299972534179688,0.8899993896484233,-0.40999603271484375,2.880004882812486,-0.9300003051757812,5.010009765625,7.0,5.0,12-05,1.4104178746541314
11-06,0.875,0.5500030517578196,-2.0149993896484375,-1.44000244140625,0.0749969482421875,8.584999084472642,2.339996337890625,0.23000335693359375,1.2200012207031392,3.1999969482422017,-0.6699981689453125,4.510009765625,9.0,3.0,12-06,1.4550005594889341
11-07,-0.639999389648441,0.8550033569335938,-1.8650016784667969,-0.5900001525878906,1.654998779296875,8.180000305175753,2.5699996948242045,1.6399993896484233,0.410003662109375,-2.7999954223632812,-0.7299957275390909,1.4000091552734375,7.0,5.0,12-07,0.8404184977213468
11-08,-0.24499893188477273,0.43000030517578125,-1.9699974060058452,0.9249992370605469,0.6899948120117188,8.72000122070311,4.2299957275390625,1.480003356933608,0.06999969482419033,-1.9399948120117188,0.18000793457034092,1.4000091552734375,9.0,3.0,12-08,1.1641683578491218
11-09,-0.2699985504150426,1.0949974060058665,-0.375,1.0400009155273509,-0.19000244140625,8.290000915527315,3.2599945068359233,2.8899993896484375,1.0600051879882812,-0.9799957275390625,1.930007934570284,1.4000091552734375,8.0,4.0,12-09,1.5958348910013784
11-10,-1.0650005340576136,0.9099998474121094,-0.7750015258789062,2.8699989318847656,2.839996337890625,8.28499603271483,1.6299972534179545,1.3099975585937358,1.5200042724609233,0.3899993896484375,3.339996337890568,0.4499969482421875,10.0,2.0,12-10,1.808748404184968
11-11,-0.870000839233402,0.8649978637695312,-1.720001220703125,1.9500007629394602,2.2750015258789062,10.21500396728517,-0.05999755859376421,2.410003662109375,1.5599975585937642,-2.1699981689453125,3.7799987792968466,0.6200103759765625,8.0,4.0,12-11,1.571251392364501
11-12,-0.3950004577636754,1.529998779296875,-2.3300018310546946,3.18499755859375,2.4200057983398438,8.475006103515597,2.340003967285142,3.3600006103515767,1.3699951171875142,-1.94000244140625,2.220001220703125,3.4000091552734375,9.0,3.0,12-12,1.9695844650268535
11-13,-0.4600009918212926,1.595001220703125,-1.6749992370605398,3.795001983642578,-1.134994506835966,7.810005187988281,0.7200012207031108,3.25,1.129997253417983,-1.2699966430664205,1.989990234375,0.4499969482421875,8.0,4.0,12-13,1.350000222524004
11-14,-1.1949996948242188,2.020000457763672,-2.3850021362304688,4.120002746582017,-1.6149978637695455,8.475006103515597,-1.0699996948242472,2.599998474121108,1.5400009155273438,-1.8899993896484375,2.5599975585937784,-1.0,6.0,6.0,12-14,1.01333395640055
11-15,-1.460000991821289,1.7999992370605469,-2.9949989318847656,4.650001525878899,-1.2749938964844034,8.635002136230455,-3.219993591308608,0.8199996948242045,2.8600006103515625,-3.6200027465820312,2.8099975585937784,-1.0,6.0,6.0,12-15,0.6670842170715291
11-16,-0.870000839233402,2.875,-2.365001678466797,4.465000152587876,-0.36499786376954546,7.245002746582031,-4.219993591308608,-0.19000244140625,2.239997863769517,-3.7099990844726562,4.839996337890653,-1.0,5.0,7.0,12-16,0.7454168001810683
11-17,-1.2249984741210902,3.009998321533203,-1.2550010681152344,2.579998016357429,-0.8699951171875142,6.3899993896484375,-3.159996032714858,-0.44000244140625,2.4199981689453125,-6.7999954223632955,4.089996337890653,0.0,5.0,7.0,12-17,0.39500013987223276
11-18,-0.6149997711181605,2.2749977111816406,-1.7000007629394531,4.939994812011712,-1.125,4.0800018310546875,-4.010002136230469,0.9799957275390767,-1.0599975585937358,-7.559997558593764,4.330001831054716,0.0,5.0,7.0,12-18,0.04458284378052083
11-19,-0.10000038146972301,2.3600006103515696,-0.8549995422363281,5.074996948242209,-0.5749969482421733,5.799995422363267,-3.1500015258789205,-0.09000396728514204,0.20999908447267046,-10.569999694824247,4.310012817382841,0.0,5.0,7.0,12-19,0.20125023523966856
11-20,0.014999389648441053,2.0550003051757812,-0.4799995422363281,5.459999084472663,1.5149993896484233,4.799995422363267,-4.4000015258789205,-0.2700042724609233,1.25,-9.180000305175753,5.149993896484375,0.0,7.0,4.0,12-20,0.49291515350341886
11-21,-1.1099987030029297,2.3300018310546804,-1.3500022888183665,4.730003356933608,0.954994201660142,3.4549942016601562,-7.230003356933608,0.02999877929688921,0.9700012207031392,-10.379997253417983,5.969993591308594,0.0,7.0,4.0,12-21,-0.13583453496297318
11-22,-1.375,2.5050010681152344,-0.24499893188476562,3.9200019836425852,0.7249984741210795,5.7199935913085795,-9.180000305175781,-0.980003356933608,0.8900070190429688,-10.860000610351562,6.239990234375,0.0,6.0,5.0,12-22,-0.22000090281168916
11-23,-1.149999618530277,3.2800025939941406,1.2950019836425781,3.9200019836425852,0.5550003051757812,6.164993286132827,-8.239997863769531,-1.7199935913085795,0.06000518798828125,-10.860000610351562,4.62999725341794,0.0,7.0,4.0,12-23,-0.17208242416381805
11-24,-0.48999977111816406,2.345001220703125,1.3550033569335938,5.6899986267089915,1.2149963378906392,7.014999389648423,-6.729995727539034,-2.259994506835909,0.06000518798828125,-10.269996643066406,4.680000305175781,0.0,7.0,4.0,12-24,0.21750148137411016
11-25,-0.8999996185302699,2.4250030517578196,1.3550033569335938,5.6899986267089915,1.2149963378906392,7.100006103515597,-7.699996948242173,-2.259994506835909,0.31000518798828125,-10.269996643066406,4.680000305175781,0.0,7.0,4.0,12-25,0.13708543777466206
11-26,-0.23000144958495738,2.4250030517578196,-0.19499969482421875,5.1249961853027415,0.1849975585937642,7.060005187988281,-7.449996948242173,-1.4799957275390483,0.3300018310546875,-11.019996643066406,3.2999877929687216,0.0,6.0,5.0,12-26,-0.1624999046325657
11-27,-0.23000144958495738,2.4199981689453125,-0.095001220703125,6.4250030517578125,1.5200042724609375,6.125,-7.449996948242173,-2.3499984741210938,0.34000396728514204,-10.200004577636705,4.3499908447265625,0.0,6.0,5.0,12-27,0.07124980290730942
11-28,-0.06500053405761719,2.5,0.479999542236321,6.420001983642578,1.7600021362304688,6.125,-5.5,-2.659996032714858,-1.05999755859375,-8.370002746582031,4.699996948242159,0.0,6.0,5.0,12-28,0.3608336448669392
11-29,0.06999969482421875,2.609996795654297,0.4099998474121094,6.0500030517578125,1.7600021362304688,5.625,-5.3499984741210795,-2.1500015258789062,-0.5200042724609659,-9.200004577636719,4.699996948242159,0.0,7.0,4.0,12-29,0.3337491353352829
11-30,0.18000030517578125,2.9449996948242188,-2.479999542236328,5.235004425048828,2.2099990844726562,5.860000610351548,-5.839996337890611,-1.2600021362304688,-0.3600006103515767,-10.060005187988281,4.8600006103515625,0.0,6.0,5.0,12-30,0.10750007629394413
12-01,-0.2749996185302699,2.174999237060547,-1.8800010681152344,6.089996337890618,2.05999755859375,6.2950057983398295,-6.1800003051757955,-0.5699996948242045,0.5599975585937358,-9.139999389648452,4.809997558593778,0.0,6.0,5.0,12-31,0.32874949773152523
12-02,-0.5949993133544922,2.009998321533196,-1.0400009155273438,6.089996337890618,2.05999755859375,6.665000915527358,-4.7599945068359375,0.089996337890625,-1.0699996948242472,-9.139999389648452,4.809997558593778,0.0,6.0,5.0,01-01,0.4266661008199044
12-03,-0.11499977111816406,1.7049980163574219,-1.1899986267089844,5.879997253417976,3.404998779296875,4.200004577636733,-3.720001220703111,-1.3199996948242045,-0.3899993896484517,-9.32999420166017,4.959999084472628,0.0,5.0,6.0,01-02,0.34041706720987897
12-04,-0.5100002288818324,1.9500007629394531,-0.5900001525878835,7.52000427246093,3.3550033569335938,3.9749984741210938,-5.379997253417969,-0.6800003051757528,-0.7399978637695455,-4.5,4.3899993896484375,0.0,5.0,6.0,01-03,0.7325008710225438
12-05,-0.5350017547607422,2.0600013732910156,-0.8400001525878835,9.545001983642564,3.94000244140625,4.404998779296889,-5.220001220703111,-1.229995727539034,1.25,-4.099998474121108,2.3600006103515625,0.0,6.0,5.0,01-04,0.9695839881897003
12-06,-0.8950004577636719,2.3700027465820384,-0.15999984741211648,7.670001983642564,0.910003662109375,4.154998779296889,-6.169998168945298,-0.970001220703125,2.0,-4.099998474121108,0.9500122070312784,0.0,6.0,5.0,01-05,0.4800017674764021
12-07,0.13499832153320668,1.4900016784667969,0.31500244140625,8.59000015258787,1.1149978637695312,3.279998779296889,-7.029998779296861,-0.910003662109375,2.0800018310546733,-1.540000915527358,-1.3799896240234375,0.0,7.0,4.0,01-06,0.5120840072631822
12-08,0.8999996185302734,2.0300025939941406,1.335002899169929,6.9550018310546875,1.3499984741210938,0.31999969482420454,-4.440002441406236,-2.1400070190429688,2.2700042724609233,-5.489997863769531,-3.289993286132841,0.0,7.0,4.0,01-07,-0.01666593551636038
12-09,1.0750007629394567,1.9249992370605469,0.6800003051757741,7.81500244140625,0.4049987792968892,-1.3800048828125,-5.080001831054673,-2.030006408691392,1.7900009155273438,-3.5499954223632812,-3.8899993896484375,0.0,6.0,5.0,01-08,-0.18666712443033529
12-10,1.2749996185302734,1.5,1.0100021362304688,7.209999084472656,0.4649963378906392,1.534996032714858,-4.4099960327148295,-3.029998779296861,3.2399978637695312,-3.220001220703139,-4.389999389648409,0.0,7.0,4.0,01-09,0.09874963760376569
12-11,1.5400009155273438,1.5699996948242188,1.1200027465820241,7.594997406005859,3.559997558593764,0.659996032714858,-2.2600021362304688,-3.0600051879882812,3.0400009155273438,-1.970001220703125,-3.8999938964844034,0.0,7.0,4.0,01-10,0.6579160690307612
12-12,1.0900001525878977,0.9300003051757812,0.9050025939941406,8.424995422363288,2.7750015258789062,2.0499954223632812,-2.4800033569335938,-2.3000030517578125,2.3300018310546875,-1.9599990844726562,-5.3499908447265625,0.0,7.0,4.0,01-11,0.5345834096272798
12-13,1.0300006866455114,1.0600013732910156,2.3899993896484375,8.09499740600586,3.279998779296875,5.8850021362304545,-3.2400054931640767,-0.6600036621093608,0.3600006103515625,0.5999984741210938,-4.5999908447265625,0.0,8.0,3.0,01-12,1.1833332379659007
12-14,0.995000839233402,0.34999847412109375,3.200000762939453,5.735000610351577,3.865005493164034,4.430000305175781,-3.280006408691392,0.45999908447264204,2.7900009155273438,1.3600006103515625,-4.589996337890625,0.0,9.0,2.0,01-13,1.2762503623962393
12-15,1.0100002288818324,0.4550018310546804,3.2399978637695312,5.785003662109361,4.090003967285142,4.069999694824219,-3.430000305175753,0.5299987792968608,1.5200042724609375,5.520004272460952,-5.160003662109375,0.0,9.0,2.0,01-14,1.4691675504048656
12-16,1.095001220703118,0.7750015258788991,2.8649978637695312,5.9500045776367045,2.680000305175753,5.165000915527358,-7.169998168945327,0.709999084472642,0.48000335693360796,4.730003356933608,-4.029998779296875,0.0,9.0,2.0,01-15,1.1041679382324183
12-17,1.5799999237060476,0.5,3.7350006103515696,5.4150009155273295,3.6399993896484375,2.355003356933608,-5.189994812011719,0.40999603271482954,1.4400024414062642,4.830001831054702,-3.1700134277344034,0.0,9.0,2.0,01-16,1.2954163551330555
12-18,1.845001220703118,0.325000762939446,4.435001373291023,3.8349990844726562,2.7350006103515767,-0.01999664306639204,-3.2399978637695455,0.6500015258789205,2.040000915527358,4.300003051757798,-0.9099884033203125,0.0,8.0,3.0,01-17,1.3329188028971373
12-19,1.6200008392333949,0.09000015258789062,4.194999694824226,3.959999084472642,2.6999969482421875,-0.4649963378906392,-4.1800003051757955,0.09999847412109375,0.3300018310546733,6.1100006103515625,-1.6799926757812216,0.0,8.0,3.0,01-18,1.0650006930033344
12-20,2.280000686645508,0.3899993896484375,3.6300010681152344,2.3700027465820312,2.0400009155273295,-1.3150024414062358,-3.660003662109375,0.3300018310546875,-1.660003662109375,5.470001220703125,-1.7299957275390625,0.0,7.0,4.0,01-19,0.678750197092692
12-21,1.9099998474121094,0.35499954223633523,3.8699989318847656,2.9350051879882812,2.5999984741210938,-1.7000045776367045,-5.3300018310546875,0.8199996948241903,-1.6800003051757812,6.220001220703125,-2.269989013671875,0.0,7.0,4.0,01-20,0.644167264302571
12-22,2.6800022125244176,0.07500076293945312,3.770000457763672,1.9449996948242188,1.0849990844726562,0.3899993896484375,-7.160003662109389,1.6900024414062358,-1.6900024414062358,6.94000244140625,-5.5999908447265625,0.0,8.0,3.0,01-21,0.3437507947285961
12-23,1.9150009155273402,-0.005001068115234375,3.194999694824226,3.3699951171875,1.989997863769517,-1.4550018310546875,-6.720001220703111,2.0,2.1300048828125,11.760002136230469,-4.519989013671875,0.0,7.0,4.0,01-22,1.1383339564005537
12-24,1.7800006866455043,-0.11499786376953125,1.9000015258788991,3.7449951171875,1.2099990844726562,-1.5449981689453267,-6.870002746582031,1.6500015258789062,2.160003662109361,9.830001831054688,-7.649993896484347,0.0,7.0,4.0,01-23,0.5079175631205232
12-26,-0.34500122070312145,-0.43499755859375,2.1850013732910156,4.334999084472656,-0.45999908447265625,-1.779998779296875,-7.980003356933594,4.389999389648423,0.970001220703125,2.780006408691392,-7.1999969482421875,0.0,5.0,6.0,01-25,-0.29499912261963096
12-27,0.06499862670898438,0.14500045776367898,2.270000457763672,5.1450042724609375,-0.30999755859375,-0.5550003051757955,-6.739997863769531,5.9500045776367045,2.4500045776367188,0.6300048828124858,-7.149993896484403,0.0,7.0,4.0,01-26,0.15833568572997514
12-28,0.6450004577636719,-0.13499832153320312,3.3149986267089844,5.3550033569335795,-0.7900009155273438,-2.3250045776367188,-8.790000915527344,6.410003662109375,1.7700042724609233,0.8199996948242045,-6.659996032714801,0.0,6.0,5.0,01-27,-0.032082557678222656
12-29,0.3050003051757777,0.29000091552734375,2.7150001525878835,4.314994812011719,-3.434997558593764,-2.3199996948242188,-8.0,5.770004272460923,2.120002746582017,-0.01000213623046875,-7.11000061035152,0.0,6.0,5.0,01-28,-0.446666399637859
12-30,0.125,0.470001220703125,2.9650001525878835,4.430000305175781,-2.6399993896484375,-2.8499984741210938,-6.969993591308608,6.3199996948242045,2.2099990844726562,1.2699966430664062,-9.959999084472628,0.0,7.0,4.0,01-29,-0.3858327865600592
12-31,0.4849987030029297,0.3600006103515625,1.8549995422363281,2.3249969482421875,-3.6150054931640625,-4.704994201660156,-6.0199966430664205,6.599998474121094,3.470001220703125,1.469993591308608,-9.460006713867188,0.0,7.0,4.0,01-30,-0.6029178301493326
