,2009,2010,2011,2012,2013,2014,2015,2016,2017,2018,2019,2020,ups,downs,avg
01-02,-6.453188461244755,-2.694458901564982,-1.7541740064714813,4.861963132637709,1.198026618388717,-3.133190823570665,-3.4544909414446905,-6.374202388980665,6.64510326415158,0.29573170987207564,3.1984774038474812,-6.627781604220238,5.0,7.0,-1.1910154165499927
01-03,-9.903498236162728,-3.2719805026585336,-0.4864780114473677,4.978788784671032,1.7685201476848,-3.3897417125075844,0.9879982809779191,-2.985698334615177,4.759526081947841,0.45481420050496696,6.739649334009423,-5.08021744083817,6.0,6.0,-0.4523597840361316
01-04,-15.167633503231853,-1.8145127823441556,2.999653257731853,6.11930169628494,0.5419628681388358,-1.5432967627520773,-0.26919904503862074,-2.4793418112545664,3.2716795897000273,1.0612331345115615,4.892907415829357,-4.857441067250098,6.0,6.0,-0.6037239174728996
01-05,-15.444110006950726,-1.1678358007628369,1.4679976248973974,6.9557557256984985,-0.2828747395812582,-2.8295698864000216,0.11174183380598321,-5.66422677473009,4.912485015856637,-0.16002257781509904,4.931718946541564,-7.7186250689790485,5.0,7.0,-1.2406304757015836
01-06,-21.702699403505086,-4.01959315135232,1.820320638851349,6.713623633220781,1.6363140948398656,-6.02137697138351,1.7496700429680643,-1.4299238793228892,4.942324325144544,-0.9352137803389439,5.228324624003285,-6.387011895417308,6.0,6.0,-1.5337701435243474
01-07,-18.28899902849174,-4.492484189397125,3.3235487731548536,6.091315183531111,0.4894255956682144,-6.228838266741428,1.5519889323630771,-0.14719733860794473,4.205610737648201,-2.6900792266522116,5.66535305047616,-4.5295055146083865,6.0,6.0,-1.2541551076381017
01-08,-21.16807553497807,-4.289817522043229,3.5280335244158008,7.553167394701477,-1.3442225019783383,-6.912312332480074,-1.0683701768187974,0.6518796578732918,4.547259615878802,-6.018929864009691,5.550885265700926,-2.843186796735846,5.0,7.0,-1.8178074392061456
01-09,-18.755141002586527,-6.8421978074840615,3.8089652896757182,7.207301518835515,-2.219324820930121,-7.284732859262151,0.21103351680777943,1.3061651409205814,3.57285804668255,-3.7381556427292963,4.335531140693731,-3.043411046918393,6.0,6.0,-1.7867590438578895
01-10,-13.064264481086225,-5.725060239719133,4.077122379073781,5.620683074504839,-2.486808643006885,-7.53865281476526,1.788425230938481,-1.7012966027055554,3.6196407051876585,-2.17296365251541,3.2516465578307034,-2.5868938905573566,5.0,7.0,-1.4098685314016965
01-11,-8.844588429550896,-6.934812723364478,5.4191218675434065,5.468837575429902,-2.7253699288353386,-4.940753648758382,1.9968814858197892,-5.354149850156667,3.4665347388594023,-3.0141089320873027,3.99622801578429,-3.908009477725125,5.0,7.0,-1.28118244225345
01-12,-8.45645351874745,-2.8228566395367185,4.023581701343587,3.9406184764762973,-2.2178716616076835,-2.859647974523975,0.2513038117505992,-4.5389657981924385,3.2267690077678677,-3.539823896216179,2.7563180083037793,-5.391077870848246,5.0,7.0,-1.3023421961692134
01-13,-11.52715015685252,-2.8786631308838793,4.566998549894572,4.464582403706482,-1.5480946290998105,-2.0823150022116916,0.5476691070433041,-1.8721335476535488,3.776222614303156,-5.747956629625498,2.765593657256401,-6.890563217066216,5.0,7.0,-1.3688174984324373
01-14,-7.789078693445806,-5.087867641049948,3.87327847943492,4.335540494071074,-1.2055921077845335,-3.0946184997897754,0.5477171121347822,-2.4414314061106657,4.154595173099166,-3.7999435246932682,2.6356017036455275,-6.543662096954275,5.0,7.0,-1.2012884172869
01-15,-10.840468872846811,-3.849371108051124,4.947434149614055,3.0716733009835138,-2.7042891344335476,-2.65934678482373,0.8851127252897812,-0.6130996391949427,4.5454542005265,-2.333739212469528,6.142552339801504,-6.84864730386701,5.0,7.0,-0.8547279449559452
01-16,-10.89400328782789,-7.49791356808972,5.8723636267266075,3.3377260149448342,-0.014380182857571583,-1.0282104428244456,-0.9464567744088683,-0.28465310559971185,4.801107484480881,-1.8156440951308674,4.95875290053473,-4.127168213932312,4.0,8.0,-0.6365399703320278
01-17,-5.995711528839968,-6.64121508400855,5.989372302305432,2.739721409091572,-2.063112001002993,-2.002584695687117,0.02628935162248491,-2.61006151974092,5.5134375218536675,1.5646489852124728,0.4912399502226024,-5.009811092052174,6.0,6.0,-0.6664822000852909
01-18,-7.258939431448895,-6.411535300611564,5.840403080738323,0.04447511056430935,-2.602253685072679,-2.2825180978394464,2.0898575903095984,0.19612149441037532,4.7389138508312945,-1.7967709532053524,2.280099266279801,-2.8849287035703397,6.0,6.0,-0.6705896482178813
01-19,-9.362053232147458,-4.575065567828473,6.662904437486528,2.423838387814173,-2.6310140507878224,-1.4794660768416261,3.636440619582753,2.157663120272339,3.9408866995073892,-1.8225608254333143,3.281120526048489,-4.507720692715587,6.0,6.0,-0.189585554586884
01-20,-15.183238056519455,-2.135576226333163,8.275080710739624,1.1340941124895565,-2.712233289540243,-0.5823219370342546,3.26054790858519,1.5578982704564144,2.4630541871921183,-0.3954600117602342,2.7130371099689197,-4.777359792653189,6.0,6.0,-0.5318730845340595
01-21,-18.685828405316673,4.384408411194361,7.3844370323770185,1.790082907102936,-2.424854650701369,-1.827538308074295,3.4752821380647925,3.242107190583882,1.2413814150054021,-0.5077858038501807,4.362571817068503,-5.497358131177505,7.0,5.0,-0.25525786564359393
01-22,-15.253742269475183,3.05776276064347,6.0766624296431155,3.358861754455203,-5.202267488998888,-0.05346204684104071,2.0699285793870303,1.9368382504111843,1.5033888471697499,-0.5337423361236844,4.028331415050206,-5.555561584286715,7.0,5.0,-0.3805834740804626
01-23,-15.019063974677305,1.658346110409167,6.864169479179711,4.114199742213946,-9.048748880188624,0.09087895389930341,3.5684082875684977,3.780760100064379,2.0806924154191697,-1.60311824060611,7.007467615917057,-5.639228315318964,8.0,4.0,-0.17876972550998124
01-24,-16.212976725896603,2.240713382584527,7.5771043679849654,3.772970723764655,-9.48216998066632,2.9188450370677956,3.2611433867436306,4.726546871154324,1.1650455808176716,-2.8714751911060095,6.8525576721822645,-5.262718450630289,8.0,4.0,-0.10953444383328244
01-25,-18.91643909258076,1.5949699833043234,3.9972384850998237,2.5925978253732893,-9.657069985179795,2.9456940707781456,3.7271771839835073,5.80024869680288,1.6827115734081335,-3.969898139469038,5.686165468597701,-3.016084497078062,8.0,4.0,-0.6277240355799876
01-26,-24.999995397324717,2.408461389521953,2.033509040060887,3.2352953398363105,-7.626074745777762,3.5181928938579237,3.6661161011288286,2.413830345978209,0.9337604389354693,-5.0596768164270065,5.838554858382323,-3.405933308917903,8.0,4.0,-1.420329988395457
01-27,-20.474142917494113,4.170692779754619,3.038711484781496,2.984755339952647,-5.804105388963002,2.827287136781231,4.565611083975937,3.010030564623849,0.7684086511889259,-3.2021397073436444,6.9454462702777064,-6.671295797134744,8.0,4.0,-0.6533950416332578
01-28,-27.923703667918527,4.975845778604313,3.8359324988571335,2.9609499109545365,-7.444356654688014,4.371762546468453,5.910804423138831,3.752094435445937,0.555555266375555,-1.796356739994636,7.674503890671959,-13.135092480748895,8.0,4.0,-1.355171732736113
01-29,-23.13946726642581,5.50724356357357,1.9429880491455522,2.399909449313671,-6.3159521747110965,5.141618434999585,4.226244974949286,0.5852817274326899,1.2389882969176524,-1.7357278454143008,6.270743506972611,-13.135944918972736,8.0,4.0,-1.4178395168516105
01-30,-17.51095174789598,2.5221108432548673,3.602884038526566,3.7335927798052198,-4.1363373785478155,4.380472479664943,5.4270774326412345,1.4637725668181654,0.4099543010796868,-2.636372370038929,6.347503996981175,-12.851778112665787,8.0,4.0,-0.7706725975313878
01-31,-19.243005857635005,3.282418634566501,4.639057028215192,3.6048622222317093,-2.383774964935154,5.576556723537567,5.134837516280087,2.618181772960544,2.362587290574299,-5.594095321018113,5.999817988231278,-9.854249116209902,8.0,4.0,-0.32140050693341643
02-01,-20.70187483285367,4.584803721353898,1.9717298491677506,0.4273965913955479,-4.381400368359372,8.68398322691282,4.949447240037901,0.9737930729238293,2.6430470836826028,-4.606901629938301,5.70562684349831,-17.13485918283356,8.0,4.0,-1.4071006987510197
02-02,-24.8002680954934,4.249201137779213,3.249631338406924,1.5890377514982876,-3.178374174143256,10.590441528340989,5.877156668094127,6.567584650804657,2.6236799888199713,-2.819279704833917,5.099579371458352,-16.170416355318686,8.0,4.0,-0.5935021578822283
02-03,-24.161077004274638,5.9262783978731655,2.738329284868011,0.03287537457191781,-3.0635746291868147,10.245611839816938,3.2574399285190583,4.248465864201542,2.275146145117168,-0.7830102977256014,5.7644553714596904,-15.221725525516112,8.0,4.0,-0.7283987708563061
02-04,-17.949550875532832,8.277723543295016,2.454270662061679,1.921008351329585,-2.470688246917105,11.464107432117864,3.3525960365531446,3.6544898982148166,2.4028122196404094,-1.569164042570153,4.579739983987576,-17.37714292145809,8.0,4.0,-0.10498316327317407
02-05,-21.79818808048984,7.308545558450408,4.067307346518809,1.7513543206292381,-1.5783246786211396,11.185723572428742,2.111838743112493,6.503572903844423,2.096805252635691,0.6917335620076853,3.376973240423943,-15.653947452014705,9.0,3.0,0.005282857410478996
02-06,-26.520047979811245,8.313462970786297,2.800048961814006,0.8076898831916892,-2.126249499963423,10.333765566293874,1.903627006565805,10.618146761554108,1.264820966300555,0.9646307580562979,4.0253319355887145,-15.19081295383008,9.0,3.0,-0.23379880195445027
02-07,-37.85111991771612,8.863960387422312,1.6339126599921667,-0.9512144078337786,-1.8604683124679924,8.519595355314381,3.665317364994711,12.528048205208894,0.7640371625253201,0.7737779652440133,5.1560419903091725,-13.569842210183886,8.0,4.0,-1.0273294797659005
02-08,-33.446628890963645,9.236819830615433,2.364064427371137,-1.170621229010756,-2.532305656589235,8.09933384795723,2.2201120271515276,13.272710511906022,6.299731575008952,4.103628698543469,5.146994377505593,-17.769116018153277,8.0,4.0,-0.3479397082214624
02-09,-33.08474007299391,5.990784108503506,1.771726443974409,-1.6344513281718174,-2.864106331918701,8.06718351455957,2.3548091265283997,10.363514974950645,6.27165071871139,2.303941900387898,4.661321274481231,-19.16215182473011,8.0,4.0,-1.2467097913097909
02-10,-14.377488407415754,6.20094303866565,0.6019379787867313,-0.30922006610739006,-1.463528337862974,8.172745944365527,-0.25036558562968736,10.696130789963094,5.887859971653475,1.2305009966805522,4.478697578879808,-24.10429611417039,7.0,5.0,-0.2696735176826133
02-11,-13.521728300127538,5.4474115842114275,-0.3747804545403183,2.001291759728765,-1.1395030760115399,6.252843495623253,-1.3500349248607275,12.719986597090088,2.059654853100602,3.1194204176342835,5.911951168586023,-19.58226410467249,7.0,5.0,0.12868741798015204
02-12,-12.184741234049355,5.24332827721268,-2.359746659966583,1.8217040780048668,1.9333063484304924,5.8059996030749845,-3.486102832776189,10.265936767028364,1.2537945197494245,2.1294828671089303,3.184886070112316,-26.183354717982272,8.0,4.0,-1.0479589095043615
02-13,-10.027345039079492,2.95465748069416,-1.1314261300223376,2.159194957469136,1.7029420501355574,5.060600703091194,-5.146998833669584,9.02730598089351,1.8211947224621852,1.300940932368925,3.0899150137682714,-24.223984292117766,8.0,4.0,-1.1177502045005199
02-14,-0.11648490200813859,4.270581883994227,-0.7399835530258737,4.01866293461907,1.7806700087496514,4.213788618464891,-2.6774093325996766,10.84658523753964,0.15728266669566532,-1.1126553973489313,3.6557977435413176,-23.90430031285474,7.0,5.0,0.03271129964725864
02-15,-4.181821418530992,4.760427657804215,-1.7857089491564158,3.992311967961089,1.505091024949176,4.26864048427298,-3.4838323521672896,10.616760878352066,2.4413695628373104,-0.9996536132882388,1.994072742468843,-32.73637353243422,7.0,5.0,-1.1340596289109566
02-16,-4.3715922933847216,4.981437579064677,-3.7184289405998263,2.4338159392287126,4.5841167190652055,4.1062829776831,-2.5078252027734953,10.63382890653431,2.1818572207664726,-0.9735767886549631,0.8661533056153331,-26.690730160334752,7.0,5.0,-0.706221728149162
02-17,-1.2069468138912711,6.206373380707326,-4.595416814126371,1.665240770187686,3.9561190496528127,4.781593210321875,-3.7798168636413054,10.890160907872897,1.6051500905898792,-0.9800514162981708,1.1814918084029706,-44.78282514208614,7.0,5.0,-2.0882439860256508
02-18,2.5721677127920324,5.751139344115187,-5.402248512549026,1.7834239425784584,3.819985227849053,5.743589609193567,-2.8740664174610533,11.180938092770187,0.5983427235553673,-0.4089456360002801,2.0008955857332986,-44.43233825236267,8.0,4.0,-1.6389263816488224
02-19,4.458420401423025,5.18968422527203,0.11473852605984451,1.7309490122627909,3.6629435523354505,4.150443713630783,-2.551820512944887,10.299224551235465,1.4259717621127002,-1.9254551154139643,1.9567160857422854,-63.90564953958926,9.0,3.0,-2.949486111489479
02-20,6.630475559391733,4.124186371713704,0.4573536817586212,2.6360341815616612,6.737111105652483,3.2844863403504267,-3.048249441998362,11.590493718755834,2.434403431138987,-1.361443190629589,0.9745549846858036,-63.686236433812496,9.0,3.0,-2.4355691409525995
02-21,11.452987821007877,4.404744489310564,1.693766984362842,2.086659297460532,7.75121842533749,2.7106007612506056,-4.562942657190942,11.184573126274325,1.416542218014177,-1.465560195757079,0.622633498742457,-63.06912595720549,9.0,3.0,-2.1478251823660535
02-22,10.458079102602062,5.207702332453084,1.1692573755435858,2.485655781880049,6.162674647998715,3.194002796164789,-3.243695107728157,11.176414948260387,1.3812973059052622,-1.6761770190980463,-0.5594682803549709,-50.56165140920582,8.0,4.0,-1.2338256271315888
02-23,16.000000206199854,6.964424036761541,1.959668952719532,2.0607631761038347,5.091405474692405,3.3825292178603537,-4.442879981799712,13.628909404965539,1.582735276622452,-3.0803003336847388,0.28409063970008025,-44.593571096347425,9.0,3.0,-0.09685208551719053
02-24,11.232578828127924,5.089411302954348,2.6393315170741842,2.6237531726335708,4.170036124175612,2.4274117687661194,-5.002438469335545,12.891475332132893,0.9016809989508258,-5.587998703736286,-5.276967967556246,-58.993098818022624,8.0,4.0,-2.740402076152936
02-25,13.286337809017088,6.678891810335317,0.9628437764777502,0.02151101900100183,2.6813028263918346,1.088811581838124,-5.9381421632649225,11.680621476162852,2.0741786860741964,-7.352936769757103,-4.91313493011399,-33.613641896225715,8.0,4.0,-1.1119463978386308
02-26,14.75054332024082,5.945284076883494,0.3382984333845533,0.7581410281946909,1.0146230069173412,-1.428497016117837,-6.014559570355972,10.633642630368604,1.2910723147365082,-5.0031255774615975,-2.8700633008804783,-27.278027655064484,7.0,5.0,-0.6552223590961969
02-27,15.780914950147737,3.5708784759798613,1.1851578254179251,2.5888283470258724,-0.4625562571113129,-1.7225979287923192,-5.807784670960324,11.553968005196433,1.3195942502495657,-3.0381501074291926,-1.8986158276943412,-20.861040070477767,6.0,6.0,0.1840497492960115
02-28,22.397309155253943,5.584983568568198,1.118818562015294,2.935029894811747,-0.4625562571113129,-3.891604180239784,-7.410751771498498,11.39972328300805,2.4197398170805986,-0.4735937467190955,-1.7169325565138658,-21.864424295816505,6.0,6.0,0.8363117894032307
02-29,0.0,0.0,0.0,3.7244131934594886,0.0,0.0,0.0,11.764170536631658,0.0,0.0,0.0,-17.32396953240127,2.0,1.0,-0.15294881685917705
03-01,18.36956103717889,5.139904133690759,3.1460410523595805,2.2367536869504345,-0.574458602677844,-3.972985188516451,-6.611046730587596,9.93940299728876,2.344706255317476,0.7148628590642059,-2.434593259990063,-23.894114774816195,7.0,5.0,0.36700278877182974
03-02,18.52454085766442,5.223322359172693,8.256018079589241,2.4055695385753717,-1.6264414620943974,-3.275509711214558,-5.884445245594843,11.233243541928976,3.2050671241755,1.4833380464551098,0.3222346996222999,-22.56750442606122,8.0,4.0,1.4416194501848825
03-03,19.241197819027047,4.708560607653246,6.452624227785249,4.253317578622068,-1.2318902989465113,-1.8608449911050868,-3.9904231036231743,10.366397065185382,3.507610099480745,-2.5370563649699296,1.3378241335040715,-24.868422601661912,7.0,5.0,1.2815745142459332
03-04,21.66202401819146,4.753978893665084,7.672261635502635,4.3632569645299775,-1.065885984456872,-1.8053310937635674,-4.345128732590221,8.409297170503752,3.829712325506503,-1.0394298189693814,2.5039402729696074,-35.135811627583166,7.0,5.0,0.8169070019588176
03-05,27.84393549170256,4.178655577150675,8.076885322290037,6.2039286851564786,-1.8924367814307983,-1.1558343520170238,-4.39390084114128,7.283160169317929,3.692429401600765,-4.156659810829638,3.05497017597227,-28.489175503961196,7.0,5.0,1.6871631278175647
03-06,25.462378600428487,2.8287496110933517,7.970559361383566,5.507939617744052,-2.0569587872436186,-1.4600045437559432,-2.850939135398856,8.611084617815957,3.692429401600765,-4.438191483122302,3.51719210586069,-26.987104422718712,7.0,5.0,1.6497612453072863
03-07,29.84542084366953,4.436091372841283,9.29630160565195,5.36161918588589,-2.072031325125564,-1.424522404762341,-3.4883660064427358,7.861662806746648,3.8083401657086777,-3.818030230692257,4.136852345449498,-20.661463658595526,7.0,5.0,2.773489558361254
03-08,33.79712950888257,5.035862259554928,7.804874688281623,2.863710132765643,-3.4810089471780556,-1.4845255140380407,-3.8956934357929365,8.902448300975664,-1.74285888671875,-4.161025879823299,4.320129602489786,-21.111529643797486,6.0,6.0,2.23729268213347
03-09,33.36345223636303,6.9082814709428035,8.671299961413832,3.0413917776210115,-2.8976886181279893,-1.2843894697995168,-3.5991401398157485,8.74375704109104,1.9714282807849703,-6.191895075063697,3.217388650645393,-12.443733984149565,7.0,5.0,3.291679344325463
03-10,23.621497174227297,5.559668428421541,10.330885111024662,0.8837328015718894,-4.592730014408569,-3.744753433089102,-1.2316604480371263,8.181654192661268,2.7714320591517856,-4.289425086477176,3.1837126494977537,-11.955217320074766,7.0,5.0,2.393233009539122
03-11,23.10747562136562,6.167525902050087,9.241783345778613,3.323298937803519,-4.81552071358896,-2.602594549005667,0.42011771393342834,6.307993914455198,2.4603366775743263,-6.463113387212663,2.709788839836549,-6.455159863000894,8.0,4.0,2.783494369999096
03-12,19.766353353453187,4.877677442531782,8.566673657829716,1.230773116296419,-4.8925788102400105,-0.7767408929927624,-1.5787343511887313,5.306936727412598,3.177748844511852,-6.249428369653873,2.7388845702236773,1.3063946205437684,8.0,4.0,2.7894966590606356
03-13,22.89719488727168,5.064040079422953,7.866583058614301,-2.410686620680986,-5.094311914296962,0.3985889772424236,-0.7871572727464246,6.3399837710780655,2.9397869207269207,-5.173975220091716,3.1070493014920877,-3.4032344144755484,7.0,5.0,2.6453217961297337
03-14,23.163052373650288,6.100760662184322,7.478413651713903,0.9096685022459262,-5.6215593788519485,0.5672239749109923,-0.7620239647325101,6.214185550180941,4.082589384624517,-5.27086584971824,4.543081942020188,11.70862397839872,9.0,3.0,4.426095902218925
03-15,26.75117248708414,6.386996029702456,7.423207045537364,0.9519796035152027,-4.930936587755938,-3.1585595851434536,-0.2527241093920207,7.242783892642089,1.9045791906137428,-4.5754026865410715,4.238470567369976,15.17958246161002,8.0,4.0,4.763429025770209
03-16,27.01086229315114,6.764751647973386,7.3154874234052825,1.0048704976061504,-2.5361568764512676,-4.333936253977993,-0.2134263256152132,6.670754199990582,2.3005797361665246,-5.170206432093501,3.1173592380997937,12.019643573387519,8.0,4.0,4.4958818934702
03-17,23.02288602198312,5.193498056979555,5.538087316426731,2.4475913474804245,-3.559637507167431,-3.924485177707925,0.30707676189443434,4.228312780454377,1.4802939194458187,-2.889858486657885,4.022492722540882,10.960230702232357,9.0,3.0,3.9022073714920382
03-18,21.264620252626678,6.86232790370563,5.212959503185584,1.3163415379877208,-7.349363574772965,-5.001860709504155,-1.042810345683023,4.6660261528664,-0.4854389378278993,-2.927273837002841,4.739421494467809,17.585900313789878,7.0,5.0,3.736737479486569
03-19,21.017102703001502,6.588982434612052,4.249108439773521,2.5180623353804625,-4.6971326065288785,-3.5166843079301837,0.48400848454990975,4.907870615438492,-1.1013230665052038,-1.297311104219908,6.334459377824173,13.471977109058,8.0,4.0,4.079926701204495
03-20,21.894689115468317,6.094937323099097,4.414467242229592,4.484437865507284,-6.503021908810061,-3.2939090617281424,-0.7876064823701345,5.600346051085527,-0.1707944835546333,-0.6809308724780594,6.402028491019836,9.900544534217635,7.0,5.0,3.946265651140522
03-21,19.757103642948973,5.320994954186127,3.096620910334771,4.397280163884383,-3.6933531835897266,-3.495462992924139,0.14112781663450938,5.926566402031588,0.24822848208769888,-0.6714325386019702,4.864866606417649,18.44769543800834,9.0,3.0,4.5283529751181835
03-22,18.304263077824707,6.723637886748876,5.421948770507582,5.5956149770738515,-2.6963802785443667,-0.8245064920918489,0.07943512381866598,5.757191366942632,0.7142857142857143,1.6609283878986327,9.890201801993385,22.30200203952013,10.0,2.0,6.077385197998164
03-23,14.332018577284792,6.192302774581256,5.217952160403065,4.894891474634027,4.806252968493665,3.133460237452944,0.549016180697095,5.970535300591375,0.3619021461123377,3.2776738267084626,8.799729009936073,20.417122706544085,12.0,0.0,6.496071446953265
03-24,16.154902235706338,7.1783199204698835,4.788489492913117,5.5346498394956685,5.438235148948588,1.6943048163320442,0.6870722473578246,6.134231726804693,1.152380080450149,-2.0886546226518425,10.679128138309338,6.771956527449219,11.0,1.0,5.343751295965418
03-25,16.33393934631601,8.228111218803678,3.9725112438141053,5.805111264952698,6.729364999474366,1.7773505206335034,1.7402770710403261,5.746530702578041,2.3972952767830638,-2.810689337187331,8.68304374843533,4.840680165564723,11.0,1.0,5.286960518434042
03-26,12.182401369137024,6.270390555958745,5.458011013475572,5.544003916135412,7.430945814123315,3.0005090667754293,2.252646193558835,0.7799751439230093,2.001135263098146,-2.801251955084965,7.872812378844782,0.34417404201630486,11.0,1.0,4.194646066830134
03-27,16.515431695979025,6.391456033835631,5.557905927888048,6.137256996304368,7.973512139094317,3.4488049756555084,1.5194290085493827,3.348353064564386,3.879272621549912,-5.805055510933939,5.62414059749724,5.628954937273705,11.0,1.0,5.018288540604798
03-28,15.143847446527717,7.731155838874288,4.334799356233618,9.014111120957802,7.614839020191656,2.7967424390291677,0.6153707099349136,2.8419156230962512,5.278829173642666,-1.9373415095437936,4.218105448122929,5.081748392302267,11.0,1.0,5.22784358828079
03-29,18.895733228296276,7.01357324499116,3.596897774720716,8.140535544395416,7.463093105454149,0.539811743674601,-0.5284169752680785,2.624397425665633,4.263221009009494,-3.4482770813986825,3.232164491421432,7.35389244330418,10.0,2.0,4.928885496188857
03-30,16.261639895340572,4.219831890006611,-2.4893182361524246,8.034938335712422,8.678782711982496,-0.2487361368822198,-1.6481771741234972,0.9646839176019849,4.7519911662552605,-0.3522477683419562,1.1339025122784847,10.500001907348633,8.0,4.0,4.150607751752196
03-31,14.662349459956575,6.464526260634199,-1.7200861502115323,7.165938821566721,7.431166465153359,-1.0393301720775718,-2.1652468283373185,1.3275511358169325,4.887763723569808,-0.5199676916030045,3.047276472529528,8.623892855912834,8.0,4.0,4.0138195294092105
04-01,10.539432964086453,4.891301857133473,-1.6025641286893033,7.552529888653879,8.747109397792634,-1.8860100464499676,-1.0307460790365033,-0.10620652168409732,5.5800153054057775,-0.26859397263001106,2.467764814777898,16.677094620170635,7.0,5.0,4.296760674960906
04-02,4.6917491952346175,4.290617961332324,-2.496280528316545,7.183578213655976,9.14095215715248,-1.8799708095464465,-0.6346507961156673,0.5143160582827161,4.333571254129695,-2.2478323994626837,2.774469903174879,15.800995338414332,8.0,4.0,3.4559596289946395
04-03,-0.997285702761567,6.064008737177757,-1.9224672335752184,10.612855486909536,8.595038560495057,-1.9367834389884844,-0.9227182196756032,-1.6305852538364898,4.001459245434334,-3.0490106547507683,0.7707624320080683,16.113889644162885,6.0,6.0,2.974930300216626
04-04,-0.4994352429364826,4.902663696150403,-2.5071716553841683,12.379889887319289,7.7823714113339815,-2.138208601411578,-1.2005793877145672,-0.8540134806548141,4.293417854413842,-4.805602000805305,0.40703318241487674,4.624027846491511,6.0,6.0,1.8653661257680827
04-05,-0.5679236651527755,6.116723744414423,-4.614549479275176,10.16886022727468,9.276860539814354,-0.2232184052806943,0.14696140127801446,-1.7625573563249144,3.846151158990311,-5.638065590852983,0.441675007221727,1.5568213029341265,7.0,5.0,1.5623115737534243
04-06,4.795697940293164,1.2706334614741357,-6.660033535911667,12.072023646496056,11.4695576975547,1.0810459220927697,0.3599509234269574,-3.2139291010789774,3.5989014789428135,-3.4812225305527624,2.0212406364964184,0.2303404047207877,9.0,3.0,1.962017245329533
04-07,6.488969174129316,0.02964913605900337,-6.283881340335822,12.080221377706426,13.678750983734961,1.4395793936475487,-1.49832658091639,-1.8602121195173955,2.8846098759301375,-4.430260638756816,2.74589458722885,-3.194743176696075,7.0,5.0,1.8400208893511456
04-08,6.662315159937375,-0.6817831275383468,-5.4762661596046724,10.807228510297698,13.382971991132267,1.51941535895819,-1.837424802963704,-2.983705315803126,3.731002363175289,-3.0169163895095537,1.6252466891124429,-5.123868542787413,6.0,6.0,1.5506846445338704
04-09,2.0901351580537275,-1.7933882652745279,-5.208338529364841,11.833490500761618,13.425144994346422,1.5346699041239331,-2.832692276372846,-2.8550363067266695,4.314396480099824,-3.2012066238459926,0.15726044610828555,-9.42566985308433,6.0,6.0,0.6698971357353836
04-10,1.7417792983781089,-6.393821451194498,-5.033746080851173,13.538640042365296,13.200977058212862,4.417831607435929,-3.3550987821899114,-3.111441992932283,2.434749960544287,-3.4495690800979864,-0.7717987271717863,-5.495492213636099,5.0,7.0,0.6435841365718958
04-11,-3.201467049014526,-7.994981032959486,-4.009644731655618,10.760809196869785,11.299470702760972,5.494615008109652,-2.0808290425410227,-3.9463866040787576,1.6597134361173358,-2.0831346697495112,-0.43851957088301247,-3.674191757856056,4.0,8.0,0.14878782375997976
04-12,-0.9168153761639434,-2.6829678789850133,-2.157336438514113,8.59920747631677,12.176098661831537,3.93315736127741,-0.23575345074795376,-3.871975493877491,2.5869271719988,-2.7930852671941597,-1.3857234498969508,-1.848224490322373,4.0,8.0,0.9502924021435434
04-13,-3.651814697185396,-4.365499793100193,-2.5336135497507333,9.646970912952037,14.60498700296543,4.099276654843744,-0.9941470499417416,-6.339606501647685,3.1803433970365975,-2.755718696071314,-3.1803721249439225,-3.6053994716294016,4.0,8.0,0.3421171736272854
04-14,-1.0071010648584997,-2.764640395411084,-2.7780865199981446,8.351462735932687,14.72134024692846,5.441054061610889,-1.5457263734659943,-6.600264464847908,2.2809449413788725,-5.334083498405599,-3.7687129699233815,-5.888398749103135,4.0,8.0,0.09231566248643024
04-15,-6.087369955156117,-3.0898935336256415,-2.955888126740686,7.880977966651457,14.20925743650564,4.6528079436765095,-0.829640828133904,-7.382238354448523,1.9262978898753047,-11.291443098110001,-4.6921359287219095,-5.033245015059088,4.0,8.0,-1.05770946694058
04-16,-10.074006402936215,-2.2471973479845593,-1.8727012844954558,6.03180862590629,14.195519962633938,2.5081363130927325,-0.5989379503424436,-7.684437901560878,1.6150142947870756,-8.546173951675119,-6.131233521847848,-5.531818352661164,4.0,8.0,-1.5280022930903037
04-17,-8.116499344516798,-5.121291152232771,-3.3005517448348303,3.758077858501089,15.38314509901976,-1.4753811514517121,-0.5368264182042783,-8.481727563823412,2.398595931437195,-9.754443531816568,-4.868676817382546,-10.766856510955725,3.0,9.0,-2.5735362788550495
04-18,-1.8391859988286967,-7.850669684823589,-3.125701373523419,3.223586023878992,10.110568927461316,0.010177183918093155,0.48951501793607943,-7.01737803338255,2.485807380417906,-9.362321199426313,-7.075217077193619,-5.967194580174756,5.0,7.0,-2.1598344511450462
04-19,-2.3459664594104748,-6.170589885329445,-6.543126676402829,0.7371007371007371,9.509813233671574,-0.9813432437975598,1.7350040247773233,-8.9150553453707,0.45506573915181936,-5.932366560046799,-4.734675099848694,-4.809020240717409,4.0,8.0,-2.3329299813518714
04-20,2.019063446859243,-7.2832646788545565,-6.129320804042928,0.4520875523072789,7.714561082976715,-0.604009353037812,1.4073529221312113,-9.098599831477797,-0.8437612450928583,-5.188408450803909,-3.8257171137753962,0.8165487343054381,5.0,7.0,-1.713622311542114
04-21,2.283924006378541,-9.524545051716553,-6.241577732720081,-2.1851327217519882,9.626034776283515,-0.2550499985328087,1.2783174795365893,-3.6375625235303746,-0.43610074879885236,-4.281192830693052,-4.893979945415378,5.588928358987806,4.0,8.0,-1.056494744331053
04-22,3.1208750965831045,-9.151645950576793,-4.883249197020802,-3.5362901434726304,8.601804862371667,-0.3423773113529007,1.1051408117065378,-6.3915810609727535,-2.48600698525043,-3.7446407045765766,-8.81752384292058,6.167307324401706,4.0,8.0,-1.696515591756704
04-23,4.505492828704498,-10.736476021107201,-5.060159658785132,-1.4767944617065036,8.896438387095907,0.4412411245457556,1.3322796883535828,-6.588412651159727,-1.1992867413451043,-3.6656179366537103,-7.9082594005339875,5.6985116600025565,5.0,7.0,-1.3134202652157556
04-24,0.08791410006009615,-14.879791492965012,-6.110161348041616,-2.7604249494262616,7.978424043628417,1.3490914879606464,2.4548968230417656,-6.016382115365841,-1.494083813796901,-2.8490863569743676,-7.522120003873773,3.3857694263234075,5.0,7.0,-2.197996183285787
04-25,3.2307719136332262,-12.80906487462097,-7.812135191527199,-3.3432490229758445,6.7534110971442,2.1250709947342346,3.5294574021625973,-5.797235883917648,-3.861296030383711,-5.033587980750825,-6.498889384402544,-0.010419977552951034,4.0,8.0,-2.460597244871453
04-26,0.0,-14.935807937149548,-9.356453959005833,-4.384918685643084,8.010161936861834,2.8909048035584703,3.6557125071815766,-5.3730519680276,-3.310268220226541,-4.8583369761940896,-8.600658105587932,-0.9569920045803648,3.0,9.0,-3.1016423840677594
04-27,1.3443922797640298,-10.832526087329725,-7.179659351428967,-4.821429030965517,6.683591606048776,2.4853601890084667,3.638900584253374,-4.311298174023575,-4.067699995148706,-5.121217197075857,-7.95538070276652,0.18714941214872796,5.0,7.0,-2.4958180389596247
04-28,3.953795560190675,-13.029417198623502,-7.798004598428972,-4.404756624592503,6.273107420376524,3.7161819204297815,2.628796172273032,-4.108195126273452,-2.7117952405820565,-3.08635789816157,-9.633028407531373,8.510002136230483,5.0,7.0,-1.6408059903910779
04-29,-0.7075954094417094,-15.16326731469244,-8.404896580776791,-0.9980815220598741,6.255179139232289,2.5842899471903698,3.0418090421876816,-1.9110041549632022,-2.356458374355432,-3.2975582960175167,-8.686775508446926,6.321447305481945,4.0,8.0,-1.9435759772218002
04-30,-0.5478152390925217,-13.756873670005131,-7.78655133377677,-1.996508579667478,6.476833612668839,3.3108638615792616,3.308022104933775,-2.695714713046498,-2.3851794359885896,-2.398448443850705,-9.292156697300374,11.255492735526717,4.0,8.0,-1.3756696498349559
05-01,-0.47934051104753067,-15.227930934370187,-8.071181288694964,-1.8458634344166418,7.5747986587806615,3.8002499926849254,2.0031405909561073,-3.2869090212031735,-2.0701242679277927,-5.819474663637259,-7.734652819484099,14.020516549152124,4.0,8.0,-1.4280642624339857
05-02,-5.466091719372908,-9.509913642141196,-7.209560343555604,-4.821044594354769,5.486957378153572,2.5318388635299627,2.084243491544392,-2.430938698657094,-2.808036973615322,-4.219657661854976,-8.938236428230423,15.403349232860808,4.0,8.0,-1.6580909246411297
05-03,-4.564872326452312,-11.253315309528718,-3.833147286197608,-4.830818217107689,3.0681140273430496,2.542288860871424,1.6863998517386212,-1.6901928767330605,-2.6701732997303447,-3.4802314588149965,-9.74995047442404,14.596239407057885,4.0,8.0,-1.6816382584981486
05-04,-0.9991291818535086,-9.481931912961445,-4.183952471229963,-3.334633250028757,2.910884219067444,2.8371614520045956,1.7464961015236136,-0.5649129116440822,-3.318915719292799,-4.899932175638094,-8.43901830663438,16.000774379464993,4.0,8.0,-0.9772591481018651
05-05,-0.30681434663888,-4.232964192293689,-4.011059983694797,-3.34493329737938,1.2043526438154026,3.1829201715639006,2.92223358989937,-0.5556570248824378,-3.94885006030494,-5.241776666178301,-11.122789507814753,17.903646392311682,4.0,8.0,-0.6293076901330688
05-06,-2.982066987796903,-0.03089238688298335,-4.183952471229963,-8.023446356975642,2.1786804796378174,3.098354135523644,3.452324993158138,-0.30560677106978523,0.6687461821577291,-4.11724032966222,-7.895715561898048,20.48710350187705,5.0,7.0,0.19552403556990297
05-07,1.9506703176000728,1.4521896997639736,-5.930138933428861,-9.338248129580943,0.22140944470964383,2.511525116186765,2.2087924299848356,0.7023979004357197,1.8022078398559522,-3.6903238973297863,-2.4617312886382803,19.090257554231176,8.0,4.0,0.7099173378158556
05-08,-0.2690644634251615,-4.893679328050229,-7.47674373166594,-7.596731422107888,-3.4335580424517627,3.7182388935349544,0.4087144740879698,0.21361171305881305,-0.0645992012088746,-4.078049078220274,-1.4864247366500705,17.639682032960376,4.0,8.0,-0.6098835741781743
05-09,3.244442409939236,-8.5774321796966,-8.537455927998835,-4.056580868136842,-2.6201696992139674,3.55145956611775,0.6294542179975927,0.628931083889846,0.4890190004873306,-3.0020232246902427,-0.4717390177970867,18.62851337832013,6.0,6.0,-0.007798438398474161
05-10,3.330372934079763,-10.855908510298292,-7.119512666192887,-3.8503151874488406,-2.7601835042516365,1.8409994323114527,0.5686056178077409,-0.890792190563691,0.0,-2.0975659566771077,0.09790886679621491,20.649407116688707,5.0,7.0,-0.09058200397904799
05-11,1.6933844761720527,-6.9209708082031405,-6.560096051776912,-3.3199145112121595,-1.282476622339484,2.693597428857094,0.33757310471595003,3.1816123266264005,0.36161279106741845,3.3676512938735144,1.5399574269108391,20.264552952134967,8.0,4.0,1.279706983902212
05-12,4.020214878408652,-9.255369982812,-6.228540350870853,-0.5264192882514457,1.1037900047050888,2.778995139817926,2.0763334817168633,3.118521117298239,0.6768620657089882,0.11639841056371822,2.4037177955245808,21.351643606612473,9.0,3.0,1.8030122398685189
05-13,7.425415713484115,-7.8662557646385745,-4.760218375051834,0.5401211004488976,0.6871054185761583,3.9212862995872775,2.7945535836964193,3.830554409102517,-0.05560154652184579,1.1329815534208878,2.744994672963157,22.743949783135303,9.0,3.0,2.7615739040168727
05-14,6.276243431133476,-5.136482794889614,-3.9408873166375105,-1.1377046611665225,-3.23239227083538,4.396891185095772,1.328274006467798,2.055597787551589,1.7738533092229751,0.9236977596976373,4.527172430129652,21.15737298342139,8.0,4.0,2.4159696540992717
05-15,6.740329805658667,-4.421988416381318,-5.362028419335685,1.8915037847729885,-3.656842917561396,5.335603548173021,0.07762977866990149,0.9886435580189007,1.9611367756352576,0.4829518071046149,4.316604423092487,20.28613587752835,9.0,3.0,2.386639967114649
05-16,3.014299029455437,-2.068545835961632,-5.701343770850252,0.15700486346745676,-3.0473707827187817,4.980547270999783,1.3077536414144995,-0.4364390473097679,3.7285973327002058,-0.19360788222048214,3.478929625730541,7.7440731955975854,7.0,5.0,1.080324803358716
05-17,2.3266102641472663,-3.199630188110362,-2.2456118935032894,3.002654379381605,-5.226896024617851,3.7037078677202864,0.9946440832663451,0.0653713986059194,5.399100128310678,-1.0745407333583699,4.461920947106613,9.623141831746873,8.0,4.0,1.4858726717246427
05-18,-0.22738128662853183,-0.07623577457664307,-6.08550736699486,4.268478017073179,-1.1528261975132115,4.028986544373268,-0.030317969871195227,0.21572252017314944,5.479821175203195,-1.5972834924871053,7.843645121116238,10.998060862165977,6.0,6.0,1.9720968460027883
05-19,-3.691665112268287,3.27622524072895,-5.9068703255535375,2.1816049273771636,-2.0997176682650225,3.4380902568402565,0.8663769426016851,0.9191552538813119,4.278023895126822,-1.029241731672959,7.558991812360497,11.015655479388666,8.0,4.0,1.733885747545462
05-20,-5.226637913519475,7.484219227105872,-4.858880280745724,4.417129346150482,-0.6085432992940452,3.367731099908476,1.8899476006348348,0.3845466624906205,4.401726140237072,0.3321298948977981,6.255984009670683,8.467631019588152,9.0,3.0,2.192248625593729
05-21,-1.8270052501489564,5.7859967475893965,-3.0317477508661193,5.000952400091919,-1.5136967530951257,3.153395689585005,1.7613785355512126,0.4955112040327371,4.264128586728148,-0.02857026599702381,4.952912704970955,9.325837849289247,8.0,4.0,2.3615911414776165
05-22,-3.214614559880186,6.998193208178682,-2.2536916367072273,6.517233140945855,-2.192388222712802,3.5561620730908063,1.778518025891682,1.6176742420625347,4.221044384522581,1.2388369821886138,6.207850663874719,8.286452001346488,9.0,3.0,2.7301058585668123
05-23,-4.8439727470343374,7.695776479125044,-1.4397791789063985,4.941529440332414,-1.7448287431763756,2.323294765273667,3.7772659710216523,1.8354527738218736,3.682976959751659,2.3112044124807434,7.643095008980337,4.23290389432302,9.0,3.0,2.5345765863327747
05-24,-5.137787899623411,7.90300699332641,2.051753086608713,1.7351979926432897,-1.7253704960120984,2.5095985005810695,3.3589107748511626,0.27761931254959876,3.3791090110745605,2.5109372312858875,6.839013843729214,3.586580386542254,10.0,2.0,2.274047394796387
05-25,-8.065291941090342,5.065608252131824,0.46728520936533724,2.697095987984639,-4.83075687069976,3.152960833016314,4.07040503776347,-0.4730564398290362,3.406213076139744,1.6549342532532323,6.6672455442323155,3.5400773934272842,9.0,3.0,1.4460600279745852
05-26,-8.45579927284572,4.976955360540487,0.7294271771491876,-2.6166767751304083,-5.66152335804048,3.058178866431051,4.167723617397186,0.10203191989850308,3.108061467221913,3.125601189688089,7.374857914275881,3.5586868111912757,9.0,3.0,1.1222937431480806
05-27,-1.9548525220501558,0.01536426492309869,-0.06838977598499003,-0.8734005292173667,-7.260710176618308,2.418363636718902,2.88208993023408,-0.7327714807691849,3.699010897331202,4.1548068008866945,8.03250578877854,-0.46132826204740723,6.0,6.0,0.8208907143487587
05-28,-2.6064670702060693,1.5821794215653318,-1.9422994719224689,-3.7205137421708923,-6.426300400683843,2.063873035413196,2.593877703594307,3.1828815650726567,3.7947207595424817,3.872133642080288,7.534183159674421,-0.7459777745576901,7.0,5.0,0.7651909022834764
05-29,-3.4908074409765057,0.9031844229307852,-1.766857757490304,-2.197590642462701,-5.436245707057466,1.6970710617630584,2.9880490712924455,-4.818453019069327,3.9162573090074844,4.526127593925609,7.227558696743815,0.2061239596917999,7.0,5.0,0.3128681290248911
05-30,-5.0182498979977455,0.651310313650537,-2.000917527700642,1.1789729233917676,-4.906038629928691,1.398738491356736,2.7390848756873156,-9.10932986257351,3.6292828168755267,3.501094361913041,7.175626246966547,-0.5838339234353959,7.0,5.0,-0.11202165098287613
05-31,-5.669041170538595,0.5565248489709841,-0.271306654141327,0.03865569600858475,-3.0939601411755455,0.12340803521588083,2.961615696394465,-7.08035294296161,4.240568197905684,3.986302366164771,9.417465046634863,-1.2042327827331718,7.0,5.0,0.33380384964541526
06-01,-4.970360863746252,-2.5245916647989244,2.6699543075096375,4.367997802309772,-4.099846111788574,0.8429312398818452,0.4044215982857816,-5.356625629421354,1.7196326982648298,2.949289749900146,6.998015922913161,0.5483929973404748,8.0,4.0,0.2957676705542119
06-02,-3.940773307756019,-7.151139745792551,3.33183895113199,5.536235127472072,-5.962704398045425,3.7211478908163493,0.5186551729183099,-5.57127446920475,0.5852179055234082,3.1119947763328852,7.651444070968077,-1.3765784632099891,7.0,5.0,0.03783862592952986
06-03,-1.5945260225777933,-5.876509263412342,4.72290679077742,7.868456358275565,-4.513606061739913,3.4185575834449957,-0.23971541401037913,-5.05415202765551,1.1764714068178885,1.2532565407180398,9.146083389805078,-5.298890133838819,6.0,6.0,0.41736109555035245
06-04,-2.5056911979209118,-2.2843917755354193,5.654028438452765,7.868456358275565,-3.4492017198723213,2.3939480922093748,0.2920145405404563,-5.4932237293008574,1.1764714068178885,1.2532565407180398,5.833261678462966,-4.7708894064351055,7.0,5.0,0.49733660220103676
06-05,-2.5968094533582455,-0.18209006891147841,7.368655550109255,5.453676457407488,-0.6104129668180707,2.7338919358330016,0.35303240497507987,-3.811811005798866,1.4550731970195405,0.1753022055325296,4.860697808259464,-7.439184962539283,7.0,5.0,0.6466684251425345
06-06,-1.164920398471177,0.8681388794762357,8.437670254489527,2.9271546293105395,-1.469011547161152,1.881646999466461,2.1030016723109024,-3.44432282734335,2.0160956013274904,-1.8921571619370403,4.318738785907398,-6.629057971705886,7.0,5.0,0.6627480763058291
06-07,-5.077103943482751,0.0825478575407889,6.3504182908004525,2.192978148927547,-3.9173573022281123,1.536170604265927,1.6046937723974943,-4.987817867588348,2.5569225002273033,-1.0686238606770835,3.471927005899629,-3.9699292593471625,7.0,5.0,-0.1020978377720263
06-08,-2.952116327870638,-2.592469714699555,8.712577020719428,1.1441618799270767,-3.128556754556777,2.402932510353919,0.9122462522007546,-7.749825806484132,2.4936773840082846,-2.107844633214614,3.938530709850184,-3.203498689886851,6.0,6.0,-0.17751551413774347
06-09,-9.370498861044286,1.839226023505611,7.83699041464039,3.3462876583385204,-1.213755495171337,1.5692505018895049,0.3780615051484281,-7.244827615844245,0.6776291994326344,-1.089390889192174,3.0264494087251532,-2.767017202237224,7.0,5.0,-0.2509662793174188
06-10,-8.201818101878871,-0.39638497099995396,9.080100888452073,3.4195326520670153,-0.6787238621158304,0.4835589870613883,-2.51105570786986,-6.089148847951793,-0.08177767868694459,-0.9029129176463896,1.7099139978808284,-2.4138251764427343,4.0,8.0,-0.5485450615109226
06-11,-8.680060006228317,-2.7112717500345886,10.206711072459813,1.3640356241124423,2.9579025866732955,1.068232673690432,-3.4438588196375486,-4.522958087276765,0.7747753246410474,-0.009624842577660586,-0.784885297181835,6.490094470634521,6.0,6.0,0.22575774577290297
06-12,-7.914876607951447,0.280156117005107,8.988282850435148,-1.967889316860693,3.2619819000870014,2.0402296909504267,-3.1167122665218048,-1.2885654162099387,0.7568966857781917,1.2118361025559357,-1.3690270786975764,4.545885143038799,7.0,5.0,0.45234981696742915
06-13,-4.440747814724749,0.8511343676581691,7.123075821748872,-1.0210214479922801,0.4934561950793826,1.7082104353020475,-2.4769184398484145,-1.0130398882577325,-0.5406852910885208,0.43373199830573655,-1.2997140216645446,1.7891176722999267,6.0,6.0,0.133883298901491
06-14,-4.864093901586828,-0.45468943411374213,4.841400721196446,-0.8723284167047142,1.416298096748589,2.107138786850102,-0.4612696016174582,1.4903359362179922,0.30400245799671627,-0.2024087561182229,-0.9877821276100522,3.5874476218619935,6.0,6.0,0.4920042819267351
06-15,-0.9410141158683877,-0.38267257461052484,6.627375808125777,-3.231564457759766,1.2149580356744563,2.4083038678239435,0.943961628459678,2.603451577912364,0.46494694214348337,-1.571081690041402,0.9224135300208782,5.650027848197479,8.0,4.0,1.225758866673165
06-16,2.40199716210041,-3.1308189360825556,6.471699849965705,-4.092981290778908,1.0270685101557098,2.389538482351005,1.3689317251902613,2.2928675511476775,0.6080049159934325,-1.1171068018288213,1.8028029680847646,6.229859477644605,9.0,3.0,1.3543219678286071
06-17,6.203897809801022,-2.5418585002658083,5.760035903032967,-1.3934608984287906,0.5605483483155995,1.4837532048950597,0.2650069918722624,1.1784058656641148,1.147687631685961,-0.9712493095284227,2.3617354523143392,9.297699139103152,9.0,3.0,1.9460168032051213
06-18,6.85466367029499,-3.316812043375969,3.4143547170878947,-2.5947337678893687,-1.1172894776830844,1.0690495262241864,-0.709518018329733,0.19331592541859757,1.4982290741878663,-2.569109292620162,2.6898584726256223,9.686909108785526,7.0,5.0,1.2582431578938638
06-19,7.114965049593564,-3.421051295160591,4.728446470781724,-1.9686959625753162,1.7149065605886082,1.248842095959613,-0.2735507656362515,0.7778882586568006,1.637746537814369,1.2143120806583663,0.8146787953604174,10.29233804116192,9.0,3.0,1.9900688222669354
06-20,15.445505458996678,-6.964454911755656,3.6974397623130955,-1.775600758970584,4.32232484566843,0.5928305562543946,-5.678768101816597,0.8051279581353435,1.9212025033871392,1.5081972930693794,1.2177327514903318,10.055529891094809,9.0,3.0,2.0955889373222303
06-21,15.940277052002678,-7.497982169436401,1.6920602229742912,1.698823525276675,5.074593065723785,1.6032748579599059,-5.697669895624713,0.29525715347266124,2.570420957893331,2.295079108423608,0.46308285112847125,7.338218882751916,10.0,2.0,2.1479529677121842
06-22,17.423192829730315,-1.3923291064000753,1.801903343980315,0.0,8.325004577636719,2.471967482286721,-6.603518083523598,2.0176326868421484,2.667252482390773,1.245903354617974,0.08546878130008012,5.2289983111969995,9.0,3.0,2.772623055004864
06-23,17.68788802233478,-0.4629558769058693,2.6189103277582984,9.49445993242439,7.841172844418069,2.098205931886214,-9.315222175712128,-1.08152545179357,2.570420957893331,1.2031194535577905,0.5191052670090135,5.873276148890108,9.0,3.0,3.2539046151467015
06-24,15.330046855757404,2.608028336135095,2.4510294901079583,10.996922978362877,8.170039066436825,3.3696643712759453,-9.140535865990305,6.634550125739745,-3.841827611716439,-0.10476248604910715,0.04274940031458198,8.775074341850308,9.0,3.0,3.774248250185407
06-25,13.615763246132234,2.8549416692784675,3.356306023329599,8.50564168753527,7.101113998003979,2.7768515076243885,-8.927747111502224,9.116856276225837,-4.183507411242559,-0.6704309201132783,2.2612663602124763,7.978155119772544,9.0,3.0,3.6487675371047277
06-26,14.147783852563114,4.712122136896307,2.226223636814082,5.268976924594943,5.143876837832626,3.6755246147465885,-9.177542912787045,8.32326888757052,-5.152291808162895,0.20745046145424342,2.1761217002787476,8.54226440675002,10.0,2.0,3.341148228212605
06-27,16.40937756821378,7.036218815766854,1.7956001270330764,3.7305745525440708,5.124779066666861,2.9765558363871225,-8.851658001167934,7.411571599497371,-3.155631812302779,3.815884165012747,1.8712947612416158,6.2167276692382645,10.0,2.0,3.6984411956775873
06-28,16.552512434599112,7.785920522289112,-2.159605988762172,3.7119712932047695,6.792715841970315,-0.061893925044778454,-11.36077806966934,5.807422680382901,-4.046838121615194,3.2576844787339,1.1769681690157041,5.987694702760022,8.0,4.0,2.7869811681553625
06-29,16.9475488168913,11.337213235135932,-4.870587517233456,1.2745326490040512,6.4827024274577845,-0.6128208020394339,-12.2961266162074,3.3933439517287916,-2.716629064055182,5.078692793154322,-0.4147603405290446,5.706251223779637,7.0,5.0,2.442446729757275
06-30,16.46050967985797,12.245782886305163,-6.811765782973346,3.2615783971194543,5.518425393204454,-0.7092518045362914,-7.295176941018043,1.828631236665279,-3.007024903487266,7.211280582729633,-0.5850388313791286,2.3208733007593145,7.0,5.0,2.5365686011039323
07-01,15.612957058700797,11.3160916839595,-8.05882173426011,5.180222165871967,7.898489714068827,-1.8878945380176235,-7.304043775873588,1.4798753407662102,-4.201600584419519,6.176902398964889,-0.1688735520787065,3.677207728760902,7.0,5.0,2.476709325536962
07-02,18.75481754416588,12.013360085718737,-8.208154419300696,5.667178157123474,7.432475003962738,-1.8979626384696155,-6.76061894438328,2.682974726003989,-4.319533984516999,6.433385908534432,0.7313405794196824,1.2136617361104394,8.0,4.0,2.811910312864065
07-03,17.077872837201596,12.002322519850884,-8.657958645780626,4.184178576066143,6.762656406389746,-2.802920897921138,-6.014551715622944,1.9673360487109632,-5.09263715947892,7.825775687259092,-1.4396477129169114,0.48003477140840695,7.0,5.0,2.1910383929305244
07-05,21.781817349520583,14.848145339531097,-11.9554533738691,2.378308118534501,4.998756014971949,-5.051423795941452,-6.200407262412265,1.00299054011019,-4.208644439539041,6.306393499169221,-0.4855606932343863,-2.0715241021180666,6.0,6.0,1.778616432893603
07-06,24.287221596584406,13.510419484877437,-11.94337224041454,2.3042734777218414,5.855246437045446,-5.03553884968926,-6.7025081518950245,1.3035565862961072,-3.615482534964573,6.133238996668945,-0.6138143820454042,-2.328180353832542,6.0,6.0,1.9295883388627366
07-07,27.033663632787498,11.018620007377521,-12.98403126353079,3.966923696839997,5.623309219321597,-3.8680141334327685,-7.996993213677267,1.2460491027911167,-4.509934052176842,4.939628193334665,-1.9357091354265874,-0.5844672493431777,6.0,6.0,1.8290870670720798
07-08,26.772895731252945,9.353833959267341,-11.471446547615878,5.338822678194212,5.34931354299771,-4.333785402818237,-6.1075169902377535,-1.9074071013551845,-6.028475492856563,6.336186545887297,-4.884641504745428,4.648040722899798,6.0,6.0,1.9221516784058552
07-09,26.26510215319653,8.831821034719452,-16.20751324463082,5.94176404789148,3.0293640472789924,-4.489923053936662,-5.675957650452753,-2.411145219040946,-5.685173887491375,5.801306692878072,-4.469272782881711,5.892890574288545,6.0,6.0,1.4019385593182332
07-10,26.562776784304432,9.209966150467071,-15.909090686446687,8.411045136093229,3.134895503483217,-4.273719154348993,-7.796233674354898,-2.0875230286365665,-5.554502569133678,4.692611927680068,-2.2594391617643894,4.137562775443271,6.0,6.0,1.5223625002321726
07-11,22.418091500703667,8.296195570497677,-23.742289814093766,9.20709504161458,1.899557780220767,-4.595504760268074,-10.759433317488616,-2.038664993282292,-7.321082768968434,5.034324942791762,-2.7822074895154976,1.8485329709781784,6.0,6.0,-0.21128211140083733
07-12,22.47331120401687,8.585349221691247,-16.220413027465405,9.405091252666786,2.085790978170904,-5.407458834832368,-12.134334904289714,-4.148696069476684,-8.19386027499031,4.951948432136728,-3.7037039540759937,3.8079341007100336,6.0,6.0,0.12507984368850808
07-13,20.911236932030597,5.783090162415649,-23.090614988116247,6.993073737538118,2.9907905104910184,-3.8807333059078677,-9.30494148030434,-4.565859841270133,-8.735608531843093,4.814647264284195,-0.9086991382152606,5.495075797251639,6.0,6.0,-0.2915452401371435
07-14,19.98186791090583,3.773312891184265,-21.064878050818052,8.296673489529628,2.906795025836794,-4.423141450619237,-12.642463830343198,-3.7634871717735296,-9.122569463690528,6.263159413269433,-2.0636410436413533,7.5854067460029455,6.0,6.0,-0.3560804611797502
07-15,16.981812556227798,3.653996220918105,-22.73474016616331,7.841547072132077,2.6961639664454173,-3.022101346257586,-12.448336758237003,-4.374815259196827,-11.477348310728752,4.736642826405984,-4.584625404534158,4.438379380115286,6.0,6.0,-1.5244521019060808
07-16,11.273182890591208,6.845643189221037,-18.422099516387462,7.272564173432625,4.866059496341819,-1.8711939419259724,-7.488225518539217,-4.353642620767731,-12.141363367379686,3.497359559232726,-4.209039075400198,4.735925141506993,6.0,6.0,-0.8329024658394882
07-17,10.75094099989723,7.030661264804166,-18.185454263069154,4.00996125452056,3.393480736917681,-2.816693528108448,-7.469003521710356,-5.1062653111548,-10.14040734540506,1.3476788325462479,-5.79749529929072,7.529548533928485,6.0,6.0,-1.2877539705103473
07-18,9.749553871508146,6.273557813117001,-15.779164584316007,4.788447271457859,1.4596262785356373,-3.732492822114677,-7.0807593399836515,-4.633356317925317,-9.724105565796625,0.261607757161851,-6.151332520601857,7.928624158332844,6.0,6.0,-1.3866495000520664
07-19,7.566876016052746,6.555405909356475,-18.670214741086564,-2.311979139396212,1.9769609851631602,-3.562034238671464,-5.873927130025713,-4.563430446605524,-9.504531341228333,0.5979626244490198,-6.614045395381509,8.060181288208291,5.0,7.0,-2.1952313007638016
07-20,4.757410609193502,4.576319119990893,-18.658691703778484,-4.0391100764131656,-0.6046428350727442,-3.203636520821137,-6.3207329780022885,-6.216818871583123,-2.8725693255237226,1.8966633677001812,-6.6867305400507355,8.013789880620376,4.0,8.0,-2.4465624894783704
07-21,4.75920759481361,3.643118138650093,-19.495351540803277,-0.6452190826658479,-0.7188343628053081,-2.443929736037243,-3.4809212969985333,-4.826720896572834,-2.535188873115487,3.2344743414414916,-5.626802437547438,7.186787938190388,4.0,8.0,-1.745781684454199
07-22,5.015909208063712,1.858736059479554,-18.11420828266492,-0.45351473922902497,-1.862125001216344,-2.6780020509100684,-5.4536549637957314,-3.919302376211431,-2.639266728105038,3.698574593763938,-4.775124592821575,5.866486109473066,4.0,8.0,-1.9546243970144885
07-23,1.796741678812358,-0.5947978079983525,-25.76338367584881,-1.4565740972419277,-0.10065022386660034,-3.0527223008830107,-3.0536558569931262,-2.7175482182234827,-3.242552409111327,4.848263494095719,-7.851310782513027,6.582937962552945,3.0,9.0,-2.88377101976822
07-24,1.6282967001976254,-3.979266284611445,-28.55692012584071,-1.0142331120404429,1.2758461262709624,-2.9106244551701064,-0.7317073170731708,-1.7759886578232327,-2.9299736477030374,4.528266741431264,-6.6847350766764375,6.810520796209367,4.0,8.0,-2.861709859402447
07-25,0.6396992339169159,-4.281338466414742,-28.44502453712352,3.2057677534047597,0.2388315513511331,-2.3471154660701066,-2.5232768336462637,-1.3116597903493705,-2.4583888198938175,1.1934897947879095,-6.7208695993775045,6.774352716129661,5.0,7.0,-3.002961038607079
07-26,3.189730317333153,-4.9069292527124855,-21.7177355647972,2.5393963235731465,1.2569920132788193,-1.7505345747207819,-5.328670254049187,-0.3006385639650869,-3.0107139141887225,-0.054254239435926985,-6.540203877827657,6.7664719384708025,4.0,8.0,-2.488090804086761
07-27,2.474607783616544,-7.1484255298722115,-18.236195189395556,0.5673164029710609,-0.6369055955882423,-2.01417504557309,-10.979836352550773,0.28198425930905896,-2.4317324512693994,1.0488210205412267,-7.56585099591318,8.961016113346538,5.0,7.0,-2.973281298364835
07-28,3.205013168399383,-5.6800690557423446,-17.610243106960315,-1.8350307727318893,0.6595212573903879,-1.1831462405836881,-17.429977578546747,0.8553398232309651,-2.315933213826041,0.027328760330051518,-11.160126982799346,9.380736014352584,5.0,7.0,-3.5905489939572504
07-29,3.4611100711908933,-5.649371107855091,-17.123379695516157,-1.6857501714779046,-0.5615485571176342,0.7120028930059905,-16.616542936897368,1.5790960755840011,-1.4849107406442075,0.7955205758117004,-10.506673816005796,7.953308485909578,5.0,7.0,-3.260594910334333
07-30,-1.2467401340141164,-6.6472242425945804,-18.03601486293602,-1.4719333066186204,-2.0854517364852687,0.39466614485635443,-16.562833965278305,1.9484794670301522,-1.4751241431642774,1.2507868478379596,-10.753184087673326,9.79574847765112,4.0,8.0,-3.7407354617824105
07-31,-2.3446190587635853,-8.879367848829597,-15.98010198119587,-0.5234637689587547,-3.0046276962117626,3.352175355034124,-16.412458678551133,1.0212783272384751,-1.056167506486084,-0.7190323980872985,-7.667615063698413,10.254269058189871,3.0,9.0,-3.496644271693336
08-01,-2.9534356018744474,-5.9910646257486055,-11.140553583384898,1.5039664020126842,-4.494093635636837,3.337558916477327,-13.320726946068653,2.7230486493737978,-1.203543224200034,1.7284616173003995,-6.0900664624324214,11.101915357619271,5.0,7.0,-2.066544428046868
08-02,-1.573115998782092,-8.61331566967797,-6.85146134122715,1.88679219040955,-4.237292203567692,2.2510281876456295,-12.235981751688668,3.34637992052573,-2.3119175246336483,2.095650985617164,-4.7142983098193385,12.07009921523822,5.0,7.0,-1.5739526916633555
08-03,-2.563173519556671,-6.364871176465795,-7.89920791361202,0.4648638597087089,-3.9355451328957693,2.346187337879068,-13.20180681098599,1.4639171350311222,-0.8284371742385754,0.6358648491681059,-1.7701553029295811,10.81395689987796,5.0,7.0,-1.736533912418287
08-04,-5.473370902833287,-3.9906007118081224,-1.423167540675164,-0.17318607509964076,-3.6493993592070706,2.545421877794624,-16.62835544076061,1.6811473606639142,-1.1559624370084363,1.200075159714393,-0.744506718148109,13.072579906832788,4.0,8.0,-1.2282770733778932
08-05,-5.8965330746912485,-3.0663090164304876,-1.6842942645358763,-1.2996623558605807,-3.636126004517367,3.4017231076023116,-13.963431764188813,1.3694720304645318,-1.2811885775298055,0.30725099948788054,-0.15344179758147025,11.366883087192809,4.0,8.0,-1.2113048025490099
08-06,-4.134988929385011,-2.039318243788671,4.7525780959564505,0.1090666432001407,-2.6779411457825284,2.279761911009464,-12.487972263035228,1.32224587533144,-0.7860426545466167,0.1990240807680524,-0.4980558274362643,11.541514945297957,6.0,6.0,-0.20167729270090126
08-07,-4.209160847243352,-2.362078777076136,2.772226929088829,-3.0969756224724145,-1.3527078541960997,3.0511430709593297,-11.108734657599816,1.415361344109511,-0.5258658294441096,-0.07280836644925667,-1.201581785887248,9.739644344743247,4.0,8.0,-0.579294837622293
08-08,-2.150936103927264,-1.2333118060123232,0.8427385471712182,-2.151332205115335,-1.8182958004633512,1.6262946879801405,-13.984819845790463,2.3916269961675547,0.03867064441533451,1.2206134654124567,-4.6000762528999335,8.128278473014102,6.0,6.0,-0.9742124333373221
08-09,-1.811124618706525,0.3000953183669839,-5.614755166257249,-2.390370675516039,-1.730212632287958,2.1805336154983035,-13.439026178206836,3.019884702709895,0.7965395642693038,1.2567806589741306,-3.416432301538419,5.74151233748083,6.0,6.0,-1.2588812812677983
08-10,-0.3643664878181266,-1.5524276179617074,2.5996594082148707,-1.8847137216386878,-0.47953476897907427,2.343603589301581,-14.253567034342806,1.911365924636066,2.7543140127087398,2.8390591618164938,0.6970119213500667,5.60313409377965,7.0,5.0,0.017794873422255275
08-11,0.4332873558658864,2.966708346789684,0.1333135198949414,2.5309739914615594,-1.3123995842327314,2.3244436718938295,-8.309130715190037,1.8645230306130203,3.330128304161284,5.285712650844029,2.789770048016831,0.08265019909635365,10.0,2.0,1.009998401601221
08-12,1.6471844141980125,3.2561505784152165,-0.06665167436272004,2.651582124963738,0.18559951304789782,0.9580104587763143,-8.251821468354406,2.567230775774238,1.3941010939866418,4.869518609229355,3.398849036018741,3.4705589606005853,10.0,2.0,1.3400260351911344
08-13,0.9918483309854761,4.0376280421659505,-2.3784159484120786,4.8795245541113434,0.5803018557635783,0.22227214862601086,-7.72112204657678,0.7977245422037238,0.9943033262953337,5.361758143625109,3.5644243411197576,5.209828442705024,10.0,2.0,1.3783396443843705
08-14,3.3297861918226563,4.03981463135416,-4.815327422622439,6.377836553444324,1.2468088277506169,0.4395926899806224,-8.949010000699442,-3.5693024512550076,3.153922492124744,5.098141975725257,6.339224222575527,5.074192729200191,9.0,3.0,1.480473369950101
08-15,7.053869695326931,6.0194923115815975,-4.786651898975217,5.47637256778856,3.436317941494487,0.09384690067443707,-7.884936666709312,-1.6543372060156845,3.514856044791532,4.463090292315525,6.849080164592116,5.423890417282492,9.0,3.0,2.3337408803456223
08-16,7.556715661449553,7.1608002472417995,-0.6828149553697097,4.949465227338105,3.5457985013868125,-1.1667193550188277,-7.795699772916674,-2.4614450114953765,1.2564246387765816,3.6865101298039034,5.914343190366684,6.435877579370166,8.0,4.0,2.3666046734110844
08-17,8.530475979494835,5.0462554792829755,0.9210486161081414,4.768071869333517,3.7207575000131157,-2.04828312635239,-10.726421071907218,-2.890341700331964,2.2653696066294096,3.222351735862636,5.574821410142649,8.670615131547743,9.0,3.0,2.254560119151954
08-18,10.873588791557689,6.114752787051054,7.355258339329769,7.944002381081367,3.4658980535556814,-2.032946483453233,-10.914298948619571,-3.0691262698891486,2.8364703948113856,2.8508133495427415,6.500246846515767,8.643777621468093,9.0,3.0,3.380703071912633
08-19,10.786440391230363,8.432222737854632,9.368424666555304,8.14539967525639,5.078692218303767,-2.049671116487187,-7.815294339987553,-4.022649026104154,3.8411005243632252,2.175265090346806,3.242023096378102,8.059512118404594,9.0,3.0,3.7701221696761906
08-20,11.25396215137464,8.697467494656088,10.953236796821,7.881853449696729,3.8642956979091974,-1.1147995736944014,-5.048914554713255,-3.921376239107836,3.6782723893296296,2.8852062735379937,5.895398077543588,8.369494718133934,9.0,3.0,4.449508056790609
08-21,8.916346981147026,9.995847826594423,12.334685940395646,8.497229448151492,5.1844330342740355,-1.610266050891913,-2.250972332510634,-4.989522049376747,4.129216794097065,1.93342886635088,7.309723967701644,8.377239996618071,9.0,3.0,4.8189493685459155
08-22,8.653841698811906,9.770993223234274,11.296961710492164,5.279763668372285,4.5646885010142215,-1.3476694227947088,2.3290249519003106,-4.085869784926254,3.507472356295694,3.867887405126597,7.8121090238750925,6.321081755470261,10.0,2.0,4.830857090572653
08-23,9.220452404538243,10.528490421571803,8.230130972262643,7.036847620541864,3.3192254016241365,-1.5111203042384234,0.9979614559625063,-5.115544337246628,4.76059224464774,4.589314444708067,10.792932560253723,3.729025154800522,10.0,2.0,4.714859003285516
08-24,9.28128200417003,11.054166902696336,2.2436789574890015,6.900372300664018,4.595512213979463,-1.6863064987500005,1.2734027296660093,-3.8356435099474395,4.687067906030214,3.8504999458216607,11.202257021267977,-0.8327781352026788,9.0,3.0,4.061125986490382
08-25,9.697268995235255,9.62819404149383,3.3451170163818267,7.594834235503707,3.6143820970392184,-3.2802500460789625,0.6221345533036577,-4.1870007357607655,4.6778756107863115,4.132160965484373,10.137517818819743,0.8276775389222575,10.0,2.0,3.9008260075942043
08-26,8.992375321253395,9.378471093931095,1.6317712302113232,6.981885653675449,1.9275449343891673,-4.125483147533899,-3.5134489069794115,-3.211010096549892,4.440771109969463,4.181760616603477,9.446557202635239,-1.3776176957590758,8.0,4.0,2.896131442987194
08-27,6.5368343102856175,6.9089944928220195,-7.68901498854992,6.360757178724195,3.49299973770602,-2.3436782509138943,-5.83722465809386,-4.324218645400031,4.238691173044653,1.3843332631032768,7.58840182404423,-2.0875601986763463,7.0,5.0,1.18577626984133
08-28,5.266724217668902,8.355484739395013,-9.691947396865451,5.337737507438378,5.393588991576989,-2.4434074595195816,-6.860126752792695,-4.192894327304508,4.589595060603223,1.4972190740880833,6.540377715838089,-3.2116320669024256,7.0,5.0,0.8817266086020012
08-29,5.331508727749606,10.202955291872456,-4.210374543858274,4.267015231027855,5.132408272332314,-2.652841080246822,-8.148905068027252,-5.345603208439034,4.285320647253336,-1.1504704044595087,5.588894280635621,-1.2190034593003258,6.0,6.0,1.0067420572116643
08-30,3.902861995571643,10.030221963180132,-2.6301755262485687,5.331588736217396,5.120257961025768,-3.9410357301919032,-7.867336275466581,-4.7144968032500705,3.870729130348596,-0.24459124373023278,5.031718294458258,-0.12474139366229212,6.0,6.0,1.147083425687679
08-31,5.718170339741141,9.994527781782207,-7.118875997049826,3.9965112495956454,5.664558972909949,-3.3963243118224518,-12.75588511040323,-2.230373240707053,3.3984611922810095,-0.13588325637129434,5.340307870191736,1.1007034347003228,7.0,5.0,0.7979915770706797
09-01,7.933264750178575,6.502054546716102,-4.937061229785839,6.12688100521822,4.876866551843366,-2.8727542036830247,-6.282724511474627,-2.326932190026657,3.148441145603159,-0.8165881338587413,6.589410281754531,-3.049944413778079,6.0,6.0,1.2409094665589153
09-02,7.352686560063101,5.459538098254669,-2.895104468285621,5.808079398853651,5.896079844770636,-4.295006969762315,-6.659820019725582,-3.350392228374733,4.970138822740614,-0.6872537513754129,6.817991465198456,-3.1946276764281833,6.0,6.0,1.2685257563274401
09-03,7.043460811898133,4.005484372875799,-1.1748424216278734,6.386849578452017,5.755045252221447,-6.465449981031275,-7.172996624934834,-5.447781031736965,4.803976665540456,-0.11844852247649618,5.510398126173234,-0.5815850866837444,6.0,6.0,1.0453425948891581
09-04,5.703486938741112,6.208796817285002,-3.594669055324229,5.635522323350681,4.620737503867577,-6.512526582356092,-6.408934839456471,-4.121519070312236,6.810808611345734,0.29943002794307727,2.5260090259048646,-0.43414054009463,7.0,5.0,0.894416763407866
09-05,2.0686031740357915,6.580924612935275,-6.5812414428975705,6.723268953134019,3.642578065087746,-6.690384823678652,-6.9566231704541375,-4.040990145513171,7.634606291147485,-1.7198519814708095,0.9352393059778549,0.6487115482396124,7.0,5.0,0.1870700322119536
09-06,1.5463899001784691,5.481726469511305,-3.580018175815715,3.0957898906237546,4.434709203502013,-6.669456568562744,-4.036259136582459,-5.458108307943166,7.179765753262014,-3.007446465656604,-1.1974434693958662,1.8495975025445355,6.0,6.0,-0.03006278369453852
09-07,3.736533701199024,7.729731379328528,-3.0923583479110768,2.9757321006266166,2.9130914430264476,-6.291369132882471,-1.913527072696623,-5.069897059506122,7.349011084097795,-2.5567908520804914,-1.6666698844160153,3.9151845432536256,6.0,6.0,0.6690559918366034
09-08,4.549370058905302,7.570898208102612,-2.8587055258268728,1.0510987547630743,5.418370296984795,-6.613684118741713,-3.211991382215097,-3.662139351887514,7.723147722568699,-3.3468534796785243,0.09432396480953302,2.858293938787694,7.0,5.0,0.7976774238809993
09-09,2.4364953748690072,7.290000564346566,-0.4672846727712503,1.8229620835789468,3.7341457541018612,-8.067808546640844,-1.8979969906321135,0.7088021340072557,6.308057445298259,-3.7678206085053274,-0.6913862743822117,2.79200095808245,7.0,5.0,0.8500139351127166
09-10,1.5206450141009449,5.337085846912245,0.8004291754426441,1.6394837624554466,-0.5527972291440719,-6.822143205744963,-2.4705777662724135,-0.5577842070716007,6.514828154082521,-2.290558920327205,-4.3791706593379205,2.4817779719609296,6.0,6.0,0.10176816142137972
09-11,0.9849657946168923,3.9034252756355325,0.4899300406980626,-0.13827989229572157,-1.193994640829151,-6.273412898342312,-2.555406345559549,-9.634053617719095,5.983662908638948,-14.234982880307042,-2.7055318769255763,1.4270233693544985,5.0,7.0,-1.9955545635862093
09-12,2.212092783329838,4.746708866216775,4.343275233892255,-0.35540571302498214,-0.24002917276193386,-5.355349528759191,1.6811037249562149,-9.493877258363835,5.0631740087879935,-12.47992017630949,-3.1680897149664107,3.5410019888760633,6.0,6.0,-0.7921095798438919
09-13,3.0794981633270253,4.480000813802083,1.9944845313298036,-2.7912631793226477,0.024614283102196044,-7.353656950135265,1.8860034756395194,-9.59913360499379,6.538569401357573,-13.403613131168687,-4.1892087150083475,4.172798031494981,7.0,5.0,-1.2634089067146297
09-14,3.6599579780416733,5.50993862531043,2.263377170626932,-3.0166398310739893,-0.2853161129685816,-8.804142409930957,3.266892125969193,-9.50619711951779,5.275331475836111,-12.620481814656111,0.2593835744932581,4.292536719509552,7.0,5.0,-0.80877996819669
09-15,2.028363381623487,6.046695618471839,0.4372478883031372,-2.6329472887863297,0.9295370625234257,-13.092480239785667,2.9841546787116577,-10.11528733457475,5.4354598445859725,-17.233867071689,3.1971113679068623,2.7326562514994173,8.0,4.0,-1.6069463201008292
09-16,2.6653655488130097,5.2596991332571434,-1.1316836795815477,-3.73806926164922,0.5598073239246196,-12.91812265168847,2.311960549789913,-8.994992846924195,5.820104396219897,-18.82427407218887,1.5783623313466704,4.123637122200715,7.0,5.0,-1.9406838422066945
09-17,3.656752876057365,5.495796077406352,-0.06437885018234125,-2.0320308444584936,0.07251336734687291,-11.817175529670187,2.9387593704479498,-9.726442485158401,5.903081011667139,-17.514296485328813,0.8459521256618924,3.967602706879096,7.0,5.0,-1.5228222216109646
09-18,3.0554157170738465,4.808067707201577,2.4965473423988267,0.3140406955868336,-0.9565613802273195,-12.554018649368077,4.243729209174699,-9.157671162709034,5.628695962050027,-15.369725291287375,-0.395091816005631,6.553235704592375,7.0,5.0,-0.9444446634599375
09-19,3.849876182107558,5.35364486215362,0.15415611874725804,1.4541509113076523,-1.064856370750934,-12.36010945074446,5.853319628196537,-9.086982339920224,4.0899458073889905,-17.25438221694862,-1.454273176065777,12.183708492641713,7.0,5.0,-0.6901501293238903
09-20,2.6264284345670936,5.4890657415066,3.976225170801374,0.5043275346429668,-0.036095270216059384,-9.816856770045948,7.236451330270592,-9.104627518497644,3.6055986834292315,-18.141046600188073,-0.2521881759134822,12.452611092903506,7.0,5.0,-0.12167552889498667
09-21,3.6792037261287494,4.724817685454843,6.722470406579782,1.1599603838386379,6.333468776548955,-6.638180334195594,7.639853067423006,-10.695766839894134,3.4461370342836806,-18.20220149858658,2.3837012871740155,10.601552052325212,9.0,3.0,0.9295846455900477
09-22,1.7807550545518427,6.94551680481032,11.08574108287859,1.914517465285569,7.026230757992069,-4.4460719351605995,9.627140235996464,-11.430425788804884,3.649889455558717,-13.839786719149874,4.733160045016067,10.25774692648127,9.0,3.0,2.2753677821212954
09-23,1.039046339718908,7.758846123502229,12.709280959530918,0.7814539812341275,7.4684346276102955,-1.142626795489955,10.631952517025512,-11.570872263358513,4.505287382098466,-11.145086418563968,5.076998568784823,11.721255858803547,9.0,3.0,3.152830906741366
09-24,1.9272628564955092,5.861090845839444,10.213185216412183,0.7561592291627627,9.243834303710566,-3.525882161758598,12.450316827590996,-10.230946851792142,7.3029877022014755,-10.849890204566215,7.216407382759492,11.251213883756318,9.0,3.0,3.467978252484316
09-25,3.385280216277435,5.073691773249652,13.432119769094097,0.44140741923945226,7.738861190678089,-1.910070115121892,12.221783710605784,-10.56505999827725,6.613051388400996,-10.841701242060626,6.274602299348826,10.281279493248359,9.0,3.0,3.5121038253902435
09-26,3.164143002614338,4.775613648181198,14.170614772803578,2.193393987357226,6.612498320849116,-2.4469516649062597,18.44238574002733,-9.545261400458713,7.6038829355705735,-12.896298596622094,6.274602299348826,8.945399669008697,9.0,3.0,3.941168559481151
09-27,0.977421350797541,5.883878112014465,9.705564345942804,1.6557095180751606,7.38581838115917,-2.3396680144611524,18.73256671575137,-12.310891884739789,8.265378233127658,-11.464511376989456,5.021290221503135,9.331947575770913,9.0,3.0,3.403708598162652
09-28,-0.9448535401321756,5.381634538001193,15.74357826332829,1.9885652193107486,6.909622585183636,-1.8432476374004,18.685651988762846,-11.94336732888967,7.53483066140343,-11.607689318691456,4.102605291878344,7.302218711320779,8.0,4.0,3.44246245283963
09-29,0.4406751212427172,5.041025513105874,14.741930292544033,1.382602323550157,8.16842609934032,-3.5617862891783014,16.49665141998427,-10.311285410365716,7.696226184714303,-5.823933052595741,4.458238260625984,5.5420343766540885,9.0,3.0,3.6892337366351655
09-30,-1.6768542960221071,5.171282747043274,16.733439601825804,1.382602323550157,7.645531470904587,-0.6909289665452424,15.94939048941472,-11.716390359486166,6.463300149399068,-6.729551731715978,4.203376434180934,2.499798160134418,8.0,4.0,3.269583001890289
10-01,1.2052377759108774,4.79353975002179,22.770718464533097,0.4050970564622023,10.080317773689048,0.4582165419572199,13.610662636267667,-10.808788572270132,5.876367580125948,-6.667315240592502,6.541383531026446,2.73939807543784,10.0,2.0,4.250402947714126
10-02,1.7292605737411297,5.691906915408819,23.15094752774587,1.2831600567697616,8.268195513415487,0.4582165419572199,11.18565893235865,-11.381500357727948,4.442151772927788,-5.747455184811137,9.183996972950895,1.5493989741964869,10.0,2.0,4.151161519911085
10-03,1.4894691562361038,5.81486214071467,20.51846152705137,0.40143595264145304,8.350763989392933,0.10413795629480745,9.292292438470996,-11.07055244502318,3.6562285599668525,-3.4637045826316673,9.033183504980576,1.7018015852463597,10.0,2.0,3.8190316486117735
10-04,-1.9670398801145368,5.778010187784393,16.465721697899237,0.051251440937683065,5.9231583995995045,0.5614774092980345,9.27489507021554,-10.038824026785315,3.157346523919575,-3.206777870413688,7.429751040593538,2.9293886956511512,9.0,3.0,3.0298632240487593
10-05,-0.08697031762181069,4.688304248149891,16.07842595465554,-0.7345409949621877,8.034832961892391,6.097500132593909,9.048080444335938,-9.958870806630538,2.4930982016031997,-2.7880867896836703,7.520782812935517,6.850122065803991,8.0,4.0,3.9368898260893483
10-06,-0.0862353181360951,4.018484115990324,14.982697025380807,3.349755113980509,8.120381033045486,4.5415935851095774,10.3560808740698,-10.61918757269212,2.277432221661031,-2.6606745588563907,7.756698953731703,8.994591190775344,9.0,3.0,4.252634722004998
10-07,-0.36420236737495526,4.288093932549844,15.247974690472724,1.8345538540976247,8.475963415836087,6.071448066530688,9.195073171226193,-1.4613619221185792,3.030306612851063,-2.497425944707551,9.665077373224822,2.9139335805500433,9.0,3.0,4.699952871928167
10-08,-2.705517477314096,3.4407501940896825,13.782992009874654,3.3338787972495587,11.18809128637613,7.65895309169458,7.789335566861953,-2.288826674791383,3.338195683856429,-2.940352252273288,12.832648765498966,-1.6414486670015165,8.0,4.0,4.482391693676806
10-09,-3.624696770930882,5.219256156665117,13.636876515093302,6.071924026863605,11.115977562902646,9.364190606919914,7.5967642434830225,-1.1205699201432966,3.180330982215392,8.196724107422657,11.705326301379946,-2.3115784810283433,9.0,3.0,5.752543777570256
10-10,-1.5543199949111712,5.861677264059029,14.015746761090348,4.376656835220381,9.885124191766248,10.57247110754796,5.687436099846976,0.5299417149827969,3.4038157204092534,9.066009692180083,10.873083259461607,1.5984316092019557,11.0,1.0,6.193006188404621
10-11,-2.2278935208987996,5.171319417461118,14.734838413123432,4.293766852936716,8.780089050224705,14.314134855742285,5.495149186513956,2.5754642886104833,3.1949698559423028,12.00584467491522,8.168302191976656,1.9530063147592929,11.0,1.0,6.53824929844228
10-12,1.2485597747154056,3.5267084856782955,8.967450476368274,5.313325650816321,7.520593716732353,14.649588425680857,4.3153512967457885,3.515582371639196,2.342405405069801,13.18360504185057,9.7204055831442,4.102341767631898,12.0,0.0,6.533826499672746
10-13,0.541252787350485,2.281464824255473,9.07281686505296,1.249894747958824,8.503608425721962,14.388911290934079,3.896363068027547,3.3266850020868795,2.256288911997261,11.521116089099422,9.083151761394745,6.4766836056809245,12.0,0.0,6.04985311496338
10-14,-0.5720798829278385,2.166104697162798,6.684616257166513,1.0563962283049124,8.799955235525301,13.485332464461006,4.2220262668616675,2.8229640209478877,1.7024225929219798,10.732520338736338,9.280184324286616,5.650191309817076,11.0,1.0,5.502552821105354
10-15,-1.471071463533103,1.6021533629623486,9.719328188550634,1.1322055139472371,9.330995173888402,11.476211180449605,2.3127629760900446,4.346029694544646,1.3081015295648857,8.776090954542202,9.2437626990613,4.142999408474538,11.0,1.0,5.159964101545229
10-16,-0.19614078340338587,1.5747066282452458,11.655889457858397,-0.3150300180468152,9.966414463831509,10.82392973323686,0.8562176373940633,3.2473562597563164,1.2047183291553036,5.876711146479125,8.717010129905793,3.8485737604439545,10.0,2.0,4.771696395404697
10-17,-2.8889285932114483,-0.1302402653176954,10.825987488282555,-2.2869948568000993,5.4977760616024804,8.165764784150628,-1.9856881754688471,3.529411017115406,1.2155657264508075,6.862834202427706,6.967471570086249,3.967961669204869,8.0,4.0,3.3117433857102174
10-18,-2.667330341404014,-0.0260169696950261,7.578700896198395,-2.390163216963679,4.793625327044918,6.8459793130875495,-0.3471173933999647,3.553991145209089,0.44977699883208744,6.037020125741996,4.673115120484967,5.9515470971122,8.0,4.0,2.87109400852071
10-19,-0.8790508104259914,-0.2513823860925771,7.170615736962409,-1.2208802580573264,4.833495598770976,6.238352918814123,0.7552689221337898,3.9435481814946973,-0.8113574159074516,3.7588980938100516,3.907514215664138,6.896788420031585,8.0,4.0,2.8618176014332017
10-20,0.08161808428089996,-1.813876472403915,5.004121022876056,-2.12581080107782,4.483501113998935,6.8913500360829145,0.3244536761627803,3.8397643470383205,-3.8539578182421175,5.061634363339578,3.7220074863507477,6.0305710420846275,9.0,3.0,2.303781340040917
10-21,1.388200588148036,-0.7754946420753076,1.4718003008458989,-1.7989916556386094,4.354180098505768,5.976022404732464,3.4443095573846025,4.130347998883317,-2.5260917458598477,5.1413591499272515,3.2888596990306573,6.449364987518296,9.0,3.0,2.5453222284502104
10-22,-0.28094858429715225,-0.4600400442922042,-2.0432867369279397,1.9575227353409064,2.5113658408756527,8.046139112116098,0.5852447382761883,3.4882545546956107,-2.6882170863313934,5.608164769991117,2.733128990267124,6.679700592469549,8.0,4.0,2.178085740181963
10-23,1.933561727647503,0.2836895061838921,-0.9569414669372972,3.756769697278586,2.058177861037653,7.481253912300992,0.23026526473589626,2.04853926633423,-1.749653711948257,6.56453100757459,1.6047421180212451,6.281845279270339,10.0,2.0,2.461398371791614
10-24,2.1351722722557414,0.06461026639679635,-3.140657017373911,3.603459294811712,1.503836597293332,7.030284487390616,-0.5417408761868803,3.066851546691354,-2.2284168255515127,7.650168761087308,2.3082989477828555,8.333916441224888,9.0,3.0,2.4821486579851917
10-25,1.7552758067972047,0.02585215702763912,-0.8554282446276775,4.549573237227015,0.15367661031103896,9.432896272524594,0.6595320429092674,5.166858399583229,-2.0634688385460254,2.0494883124633323,1.9446633078835227,8.333916441224888,10.0,2.0,2.5960696253981688
10-26,3.8328097498950173,0.06463532430450941,-4.417379248890912,4.467297547383506,1.3255552244620055,10.564197518092666,1.4601316940395093,4.243434058131071,-2.887118030851489,2.8806153206287592,1.5674739146400176,8.333916441224888,10.0,2.0,2.6196307927549625
10-27,2.527670262931161,-1.1195975956553452,-9.425377111496278,3.8357274488257187,1.5725320540017333,10.655471744803588,2.4082685940357766,3.384396791042969,-2.245538451117765,3.670066715238802,1.3555573941429904,11.083970411987293,9.0,3.0,2.3085956882283867
10-28,4.344191379128155,-0.8956800863753602,-9.966785330495865,5.098484863008259,1.79162984310595,9.361231733976538,1.0996265581622784,3.8811839095426413,-0.772106397989128,4.101035966383447,3.1927394959107005,12.605573148195779,9.0,3.0,2.8200937568794497
10-29,2.406012804380685,-1.0273956771720913,-8.59620961859835,4.820746445161786,-0.7166469666829878,10.8402931784427,1.1470273096746508,4.570139616596149,-0.0516840557940718,4.145702534062185,2.1441410471393287,10.588397931569867,8.0,4.0,2.522543712398321
10-30,5.714282800565338,1.4397772636591808,-8.760235344503906,4.338587780925229,1.8743591687903922,10.701015991693124,1.16598327087603,5.095281911694791,-0.267591879215718,1.4933854305105547,2.8756481102971447,9.457669189420388,10.0,2.0,2.927346974559379
10-31,5.241464622470083,1.2366341858016419,-4.675954533801035,3.9540604056522106,1.3774120804306895,5.43639358722808,2.310726193526194,4.334875487260493,0.9374454648469288,2.3690106523756094,3.538666047108034,5.646689017538307,11.0,1.0,2.6422852675364363
11-01,3.1012979871926993,1.4524483785183717,-1.7560730035973964,0.08203320169760513,1.2855857073622494,7.6423148487115,2.0807825096721486,5.367349118602534,0.9315476859970643,0.8361218236549638,3.291962108891385,5.646689017538307,11.0,1.0,2.496838282020119
11-02,3.264342279567562,0.4104665194742842,1.1965846743678776,1.6242849320336115,0.5852317175448712,8.431592902606212,1.6455436910555354,3.7006182012555366,0.7264323208297062,0.6781825823842071,0.851463799619093,5.646689017538307,12.0,0.0,2.3967860531897336
11-03,3.221499432634606,2.4668184393273984,-1.037041210381054,0.7012399010368486,0.3259756887346264,8.868877260677056,2.407268305919303,4.357344200852937,0.41022421004211035,1.8622699822330002,0.5821173714046685,4.474072360547485,11.0,1.0,2.386722161919082
11-04,4.772913998452335,0.9141038709671433,-0.8660993005475265,2.0036999525488115,0.10889521085392886,9.428194771025545,1.404970361677059,3.2523743736647117,0.4364588300302114,2.6342310752568134,0.3190689977504864,7.300904866293608,11.0,1.0,2.642476417331094
11-05,2.2460786581136083,0.23791940890822086,-2.715191671010999,-0.6945562435370193,-0.9137969991440765,8.06682565168856,2.022021385481872,0.9344806904778293,-0.3536582693311174,2.6342310752568134,-0.7267898654499384,3.496900688365522,7.0,5.0,1.1862053758182733
11-06,2.8901734468212608,1.3717496820372324,-4.748437196744612,-2.3938200824996865,0.08198627985044969,7.690584337275689,2.2213749945318084,0.24318392099890374,1.0377690081994695,2.8943533094293814,-0.5189760939345667,3.147909283961615,9.0,3.0,1.159820907493912
11-07,-2.148009357307065,2.116344862972114,-4.379480377039186,-0.9877785988775861,1.8092361922969429,7.327779724481981,2.464045656402204,1.7085107054340556,0.3511808669031049,-2.623437959614177,-0.5654498009502509,0.9771823225544108,7.0,5.0,0.5041770197713787
11-08,-0.8115234433612786,1.0756730996604131,-4.611417017121099,1.5486342610909625,0.7542987958692593,7.79580792901794,3.9920684825288233,1.5381452277670142,0.060245884631503176,-1.8176658399642869,0.13943294040281148,0.9771823225544108,9.0,3.0,0.8867402202563727
11-09,-0.8950722433960269,2.7221813487708078,-0.8857919171127134,1.7411701381178555,-0.20904658673360008,7.439982668590589,3.105052455631013,2.943572398314695,0.9123032668174993,-0.9182007839554689,1.4718278522868067,0.9771823225544108,8.0,4.0,1.533763409990489
11-10,-3.6199882097069405,2.279558840561319,-1.8306402329961453,4.65871106762544,3.023846244951984,7.435824958597066,1.5863720227911964,1.3342814774107068,1.3082057324402332,0.3686543021772441,2.5199913287154367,0.3140901338890272,10.0,2.0,1.614908972204714
11-11,-2.927324560342344,2.1668284154442494,-4.062835143260876,3.21331584215421,2.4369358299743866,9.05224321572436,-0.059081789060296507,2.4546788089410163,1.343551417098766,-2.102100259981791,2.8425318850525723,0.43275658371411074,8.0,4.0,1.2326250204548637
11-12,-1.3290729033973583,3.8326624485847205,-5.6396028282775115,5.1437300593964155,2.5834061590611634,7.674897776134304,2.3042874416187793,3.379942145231263,1.1818453578569263,-1.8751231959921861,1.6758520421574294,2.3731479401700417,9.0,3.0,1.7754977035453325
11-13,-1.5477826461947264,3.9850122670747368,-3.9909439798498014,6.070060709942491,-1.244852721520237,7.072678263207852,0.7090115204980763,3.2729102720228656,0.9768302649005304,-1.2325277870557954,1.5040361810102283,0.3140901338890272,8.0,4.0,1.3240435398271038
11-14,-4.048101884463005,4.9938205677721745,-5.7804222812722665,6.615821189293614,-1.771316489951474,7.674897776134304,-1.060665864350025,2.635578746989729,1.328847116781416,-1.826792389689949,1.93484816403241,-0.6979828088078155,6.0,6.0,0.8332109868724261
11-15,-4.990603430880532,4.4742710851159195,-7.362337535439269,7.466883038046257,-1.3984029106756606,7.758312578136159,-3.261413432416818,0.8449249552180744,2.460215578797043,-3.4989394728549965,2.123798360248147,-0.6979828088078155,6.0,6.0,0.3265605003738756
11-16,-2.9150640283114706,7.0699617245114155,-5.897760021095943,7.169811390100743,-0.3969093816913434,6.59175917130798,-4.318012326159625,-0.19756935117380978,1.9268798828124878,-3.5859260751041853,3.618418463409327,-0.6979828088078155,5.0,7.0,0.6973005533164801
11-17,-4.165952883916891,7.332517362913206,-3.1296785931928675,4.121073452954566,-0.9512821603728803,5.859428152553191,-3.20649004044703,-0.45752568346032596,2.0817188550067205,-6.739341248294458,3.074954143901157,0.0,5.0,7.0,0.3182851131370324
11-18,-2.074898055945793,5.542016451799928,-4.239403560168623,7.604086955255436,-1.2335526728564032,3.7662713579730447,-4.00119944860078,1.0190243799500576,-0.9312928847617432,-7.549428404904951,3.2495323309979103,0.0,5.0,7.0,0.09592970406150703
11-19,-0.3373832102865948,5.749088073602024,-2.1342973363110698,7.795694419654477,-0.6263242158169855,5.219108760650023,-3.143086696778251,-0.09365657514487821,0.18246510657289272,-10.882322653882598,3.2381762732834307,0.0,5.0,7.0,0.4139551621285391
11-20,0.05060522927567766,5.045421871524404,-1.1870892195724954,8.243374400481768,1.6358035141099785,4.319261712404692,-4.390342718305598,-0.2814890300408063,1.0763799445136124,-9.493278795126814,3.9118831258995614,0.0,7.0,4.0,0.7442108362636649
11-21,-3.807232642293732,5.68223819134698,-3.412112563317584,7.20982107294368,1.0311442246804075,3.108966334068629,-7.359531264403662,0.031177280104247744,0.8339792288401341,-10.764282091224723,4.534746576595184,0.0,7.0,4.0,-0.24259047105503662
11-22,-4.759432430077085,6.083052572975307,-0.6065831532237073,5.97515705062195,0.7828089303500324,5.039420051733743,-9.533700506690359,-1.0246793843452056,0.7661905914120448,-11.26205597426371,4.739833288014786,0.0,6.0,5.0,-0.3166657469576837
11-23,-3.94985274796762,7.9534492252622115,3.1523902773139927,5.97515705062195,0.5990289217866436,5.41026191420879,-8.47474810169481,-1.794089435728008,0.05165735717676681,-11.26205597426371,3.496448661410533,0.0,7.0,4.0,0.09647059567722822
11-24,-1.6646841515493,5.686229692681008,3.298450088941501,8.467889950965013,1.3021073514954125,6.110626483594863,-6.814495323983098,-2.3573531262013887,0.05165735717676681,-10.579990393895102,3.5328755658261186,0.0,7.0,4.0,0.5861094579209828
11-25,-3.057583267740873,5.8802205457329535,3.298450088941501,8.467889950965013,1.3021073514954125,6.184674141789478,-7.7966755586140275,-2.3573531262013887,0.2668777360665691,-10.579990393895102,3.5328755658261186,0.0,7.0,4.0,0.4284577528638045
11-26,-0.7813876465364961,5.8802205457329535,-0.4746827802641612,7.691725043617409,0.19945828419812855,6.1107066812719255,-7.543536641448808,-1.5437526704272606,0.284043579090941,-11.441026451392908,2.4810073898613094,0.0,6.0,5.0,0.07189794447525284
11-27,-0.7813876465364961,5.85672358862201,-0.230697474499981,9.50163086481474,1.620646399001468,5.30142364292731,-7.543536641448808,-2.4736826043379936,0.2926275584309447,-10.669461025564603,3.257444258968882,0.0,6.0,5.0,0.3443109100314561
11-28,-0.21922608733186624,6.038647120428883,1.1495618008805564,9.529466709081131,1.8765349387464318,5.30142364292731,-5.486831721080778,-2.8091624924826166,-0.9115906172356081,-8.431553369218978,3.519542597378745,0.0,6.0,5.0,0.7964010435077675
11-29,0.2350166029304201,6.287634066948078,0.9766551974342117,8.98026243893059,1.8765349387464318,4.867601348942474,-5.329214569825703,-2.2430897862344708,-0.44639392393936733,-9.267658797971059,3.519542597378745,0.0,7.0,4.0,0.7880741761116958
11-30,0.6021083874211333,7.024447819717358,-5.991060550335619,7.770527254898209,2.350062806207134,5.06066816616879,-5.845842090780921,-1.3309413336862073,-0.3090399321430011,-10.13398360852159,3.6442715867641673,0.0,6.0,5.0,0.23676820880912117
12-01,-0.9265485704267792,5.1656555295262825,-4.541613835790255,9.149634256716286,2.194054289045899,5.415990378154202,-6.144362887919219,-0.602091164940132,0.48072587248961146,-9.012028746463841,3.608129657702258,0.0,6.0,5.0,0.3989620648411927
12-02,-2.004714647023546,4.773775901640679,-2.5123829062122662,9.149634256716286,2.194054289045899,5.734320505058958,-4.732545655379239,0.09506320865246048,-0.9185335345920168,-9.012028746463841,3.608129657702258,0.0,6.0,5.0,0.5312310274288026
12-03,-0.3874655321284134,4.04939564159621,-2.8747399771698734,8.86209101528674,3.6133058388528747,3.626007520713591,-3.6985495655007408,-1.394316806121166,-0.33284918984646444,-9.216629351243744,3.731567222991021,0.0,5.0,6.0,0.4981514014525028
12-04,-1.7183295944673402,4.6511646951103724,-1.4049295573143232,11.11193784019431,3.5379134157465617,3.4317520601604397,-5.348973111429058,-0.713461675159218,-0.6334513488295545,-4.401838845968104,3.2886352603178572,0.0,5.0,6.0,0.983368261530162
12-05,-1.805608403354745,4.900681291230788,-2.0122174489895426,13.778421903140428,4.154805826562779,3.802986022327666,-5.232035077016191,-1.2980115025438124,1.059322033898305,-4.03185994265614,1.7679230753139916,0.0,6.0,5.0,1.2570339814927936
12-06,-3.0577398147128454,5.596889073705604,-0.37593947896939234,11.07181784871892,0.9596157803841456,3.595067176300785,-6.243673535720985,-1.0183739849901574,1.692190505699937,-4.03185994265614,0.7116729102838549,0.0,6.0,5.0,0.7416388781703107
12-07,0.44553902617953683,3.57186065687779,0.7385754516681898,12.399855594920375,1.1802665918937016,2.8596328392031016,-7.17639735095829,-0.9355440459699469,1.7598796751746013,-1.5144073936026368,-1.0486242857298558,0.0,7.0,4.0,1.0233863966380472
12-08,2.9683365026019706,4.839100255243708,3.1301356422223905,10.098006288282669,1.425477480618575,0.2863788266886669,-4.5163285033752025,-2.200068975941013,1.9206398388783334,-5.603754001596744,-2.53681334273955,0.0,7.0,4.0,0.8175925009069838
12-09,3.4908289016923706,4.5887942837921925,1.594373460369439,11.206714523561903,0.4319526131286112,-1.2380612103814252,-5.265887599019196,-2.0869810617353353,1.5237940724664527,-3.5531931660909426,-3.0134011155027363,0.0,6.0,5.0,0.6399111418567777
12-10,4.140281264398407,3.5756852746595627,2.3894064946596494,10.42962443357565,0.4939413011529824,1.3710218339290263,-4.571365167318371,-3.1687917718713607,2.7245189317667027,-3.2122917890314207,-3.4275447586572367,0.0,7.0,4.0,0.8953738372719663
12-11,5.000814780685257,3.7559801997130946,2.6427624312276454,10.832200866300557,3.7578482457989963,0.5894927099962709,-2.3426993963232756,-3.2011772206495372,2.5606476451056586,-1.9491453711798206,-3.037141799907288,0.0,7.0,4.0,1.550798590897296
12-12,3.5235176059657722,2.2594759684729544,2.146335999866827,11.916542837379513,2.9292252156017677,1.8310070017208389,-2.6036780650221454,-2.387133459452598,1.9709032371813655,-1.9310335807612378,-4.166334936648875,0.0,7.0,4.0,1.2907356520253486
12-13,3.336034612617041,2.567210825351171,5.549104728541819,11.449784661139402,3.4622882336673295,5.120064391185735,-3.4289401697683797,-0.6847221353756334,0.3087219007523142,0.5911315015971367,-3.582268291830838,0.0,8.0,3.0,2.0573675214897578
12-14,3.2263321475694227,0.8533426291100422,7.390302123147769,8.111740958843374,4.065644973339425,3.9035998425784015,-3.4727437953108753,0.4760417029364773,2.3925914595010074,1.339902079164101,-3.5675394118167496,0.0,9.0,2.0,2.0599345590885325
12-15,3.3207305555799316,1.0962578468747943,7.482674182119641,8.161110937108305,4.292164894521145,3.5977897854799727,-3.605971621251875,0.5484826600035052,1.3034939237672944,5.377500429037318,-4.0284204931177605,0.0,9.0,2.0,2.2954844250101893
12-16,3.5627174197430183,1.8672485385725408,6.616623358545868,8.374390319592672,2.85470854663684,4.5508619679582365,-7.705532438249478,0.7347605346718855,0.41163138188938286,4.643631777529087,-3.1187112995098816,0.0,9.0,2.0,1.8993608422816808
12-17,5.140718699624502,1.2046741046444824,8.625867612382718,7.679218552644912,3.8137140775179104,2.0751670654868866,-5.577640668238189,0.4242947784005317,1.2248043252054692,4.737153662636954,-2.4397857357266592,0.0,9.0,2.0,2.2423488728816263
12-18,6.002932110180994,0.7830400062057017,10.079548575661414,5.473097047488544,2.8683803399261536,-0.017620516331537155,-3.4819965153223484,0.6710039304730535,1.7263272803057923,4.257428764116631,-0.6960290386157989,0.0,8.0,3.0,2.305509332007383
12-19,5.270866461892237,0.21807645163463985,9.586379926253267,5.6925162732626955,2.8316696292082195,-0.4097425522225573,-4.492208670697977,0.1038190141589745,0.28292338201431805,5.958650824847362,-1.2849874599929267,0.0,8.0,3.0,1.9798302733631878
12-20,7.262304995704137,0.9381751082788566,8.246254044449977,3.4068894751757615,2.1394870982415437,-1.158745591341423,-3.911514025912545,0.34385935902593057,-1.4497848577374455,5.3345047511841965,-1.3232336353462353,0.0,7.0,4.0,1.6523497268102296
12-21,6.156325127789286,0.8534668393269355,8.609563662289228,4.219082994297888,2.7267944580269274,-1.5030986742459507,-5.799784268288359,0.8480708182018166,-1.46724917482601,6.065926628796477,-1.7362619843170841,0.0,7.0,4.0,1.5810697022542628
12-22,8.34501657311563,0.1811831431575372,8.387097650222904,2.7959457005158135,1.156284003899134,0.3385705194743951,-7.816598014608307,1.7478564471340983,-1.4759846649836121,6.768092821769563,-4.395252086780962,0.0,8.0,3.0,1.3360176744096826
12-23,6.066848988204883,-0.01208133363916033,7.107896864505621,4.747140750242805,2.1004833318985456,-1.275422341953898,-7.185630305731339,2.0684661800603346,1.7988386259074927,10.953802225571689,-3.5177747843682274,0.0,7.0,4.0,1.904380683391562
12-24,5.639159374399316,-0.27780616619841897,4.329994256220536,5.247663741735713,1.2736832468133223,-1.3550832585327357,-7.34602544181269,1.692309257311699,1.8237112610479234,9.323723610548175,-6.07672883753575,0.0,7.0,4.0,1.1895500869997575
12-26,-1.1675168514740037,-1.059032381044368,4.947359510917212,6.045602083222057,-0.49155703726434924,-1.5611970256770298,-8.68146596594428,4.379488710299677,0.8272931519856077,2.7241610245532537,-5.7070360964206435,0.0,5.0,6.0,0.021341593596094482
12-27,0.21695136413629315,0.3480985764324311,5.129944537319033,7.175237627889844,-0.33126474944230744,-0.47979277331634496,-7.234862171340667,5.8447980346440325,2.059865921764775,0.6173492052645598,-5.667401465550066,0.0,7.0,4.0,0.6399103423167986
12-28,2.111985718493337,-0.3230397668717055,7.414445749474978,7.4681029498480305,-0.8454180727779494,-2.0411787037912745,-9.64767957045613,6.341515182026873,1.4881488449042917,0.8035273594340968,-5.27482648505651,0.0,6.0,5.0,0.6246319337690033
12-29,1.0171762513504305,0.6840450817219811,6.072467475247112,5.993881011327728,-3.7830368316570953,-2.036695303518751,-8.641175028921321,5.708353945328295,1.7824135724449814,-0.009784911084938402,-5.65137965847282,0.0,6.0,5.0,0.09468880031380045
12-30,0.42009747446008505,1.1086241670674521,6.631626511523681,6.143818180336849,-2.882252693339908,-2.5225689409100105,-7.510768709157476,6.252472873306298,1.8384486326463323,1.2270498966825183,-8.100194501164706,0.0,7.0,4.0,0.2171960742875929
12-31,1.629973841983581,0.849158170690942,4.176515825732712,3.3214242117745534,-3.9631701346266377,-4.243703513216702,-6.487065134802698,6.480116419243813,2.856673405640589,1.4175444884943418,-7.6271924590603595,0.0,7.0,4.0,-0.13247707317882237
