,2009,2010,2011,2012,2013,2014,2015,2016,2017,2018,2019,2020,ups,downs,avg
01-02,-22.127513767473992,4.3799466506053495,2.274579017879713,0.09555331551341856,8.294150835588766,-4.989050195844808,-4.663946618200181,3.013990679450351,1.097121993633181,4.026032846284116,12.276266898774402,0.8979154280512042,9.0,3.0,0.38125392368845984
01-03,-18.479727171824063,4.731859079229976,2.195125638835774,0.24804630508245734,7.93680186445936,-4.551141554445651,-0.8272183265512083,4.276229867467392,0.2459020665028918,3.827488507099393,13.336582010571005,0.5840800054857682,9.0,3.0,1.1270023576594248
01-04,-20.18505595630067,4.050830714200804,2.785116832958971,0.038161529902502864,6.676696180768286,-3.228813862427872,-0.06195928909547076,2.5287291336824733,-1.4071126388430002,5.1290550827788435,11.410508763338996,1.8502529715573517,8.0,4.0,0.7988674552101015
01-05,-25.249998910086497,3.3635834285310438,2.6224784241600707,0.8776933520547796,7.292253540868583,-2.6709949769911008,0.9961709208871908,2.3170294589036446,-0.36885831108961725,4.136333386855226,9.649209019103608,2.2456459743777493,9.0,3.0,0.4342121089645567
01-06,-22.33812681618355,1.895352647691212,3.4966404838887883,1.068501001567294,7.362078332663432,-2.3391759996026575,2.9166063044780826,2.9848744165520316,-0.4098402517283393,4.354504003988675,9.799887437619159,1.0497996373820448,9.0,3.0,0.8200917665263475
01-07,-18.237409474692857,1.895352647691212,3.6796048162745123,1.8199034776732819,8.46511485964753,-3.5492886464268776,2.35455416777248,4.920267786850718,0.7008041299909044,5.041930513440047,9.453476922716275,1.8259268195070886,10.0,2.0,1.5308531683703597
01-08,-21.15108355929925,2.955152246675407,4.180973066048214,1.9500166324268338,1.0522273431104365,-5.719160932105858,-0.4253361256398875,4.665764878515689,0.29770123973012796,4.238964104812114,8.54684657792268,1.5563871683152255,9.0,3.0,0.1790377200426446
01-09,-18.49964311880546,3.4365099561900396,4.142256985717138,1.3523792085193453,2.085326464591589,-5.0062050914268275,0.5619610233401084,4.1986795745251495,1.21999742243261,4.181459759684236,8.585955990495874,0.30432003097133353,10.0,2.0,0.5469165171862614
01-10,-18.52123510180578,3.68916745781877,2.1654011454161277,0.9532888326539245,2.6592679882825365,-4.934471322946432,1.2090002183780209,4.093411032984345,1.9391360085939076,4.980041382863243,7.510268085995657,-0.7482820917671511,9.0,3.0,0.4162494697055974
01-11,-23.211568577201405,3.284287847864346,-0.0418419625165287,1.2392783916567445,2.2783814611115965,-3.8521006919568195,1.3580714381679755,4.185539916012797,1.642877976848189,4.336738579517818,8.136151247267632,-3.7685242586191743,8.0,4.0,-0.36772571932056936
01-12,-18.7821012334724,4.2132611176596475,-0.8368232892538938,1.8684452392396855,3.010223706502015,-4.287702950241819,1.402715327855666,5.506706971393766,1.2523569599010913,4.469708668443744,7.927490176734289,-6.400510871136318,8.0,4.0,-0.054685848031210536
01-13,-17.342501312942243,4.057220656272766,-0.7949813267373653,3.160271463502583,1.6698636417751684,-3.9164068716044684,1.0326504494043898,6.764984105342807,0.8364850561350284,5.2203540076038895,7.483259803877392,-8.659055821426255,8.0,4.0,-0.04065467906635911
01-14,-10.644455240322825,4.3433080637340975,-2.1496321208920706,2.9118903820967934,2.3446427062565256,-5.097008675939423,1.898253650668264,6.981468551536139,1.3717109522440536,5.001102639982331,7.254958692374022,-10.93809411049079,8.0,4.0,0.27317879093725983
01-15,-12.5633570163599,5.526587325738148,-2.144044045935815,2.9118903820967934,3.4644236628379073,-4.71203794818873,3.1435075820658227,8.434217045919638,1.530621599974514,3.642460487408345,6.5082396856096585,-11.492165403348844,8.0,4.0,0.35419527981812804
01-16,-10.090419363541512,4.256422116809556,-1.8683860495953428,2.028435440425059,3.4269696231521984,-4.71203794818873,2.701480316657882,7.104866977197132,1.5702667625759317,3.5562518120025683,6.606847781961076,-12.934658842237196,8.0,4.0,0.13716988560155174
01-17,-3.706346882827411,5.434501469113223,-3.39233173495425,2.0841199309625194,2.5468175496071233,-2.6408115877350644,2.520120833296173,7.583769376369702,3.5761258322520173,2.8852626748886436,5.403809445853645,-14.570310494746112,8.0,4.0,0.6437272010066839
01-18,-10.310846502028795,6.1561991836684,-3.457725867797376,1.3073108045990438,2.984792059036283,-1.5112589204654334,3.443610399289239,8.563754702574455,3.3920513863711683,2.437933739449431,3.9712973382616172,-14.405854954543305,8.0,4.0,0.21427194736789415
01-19,-11.408879963588058,6.937437039209776,-2.614374564181095,0.776809126363476,2.711802374857684,-2.8164645435781708,2.549704538986102,8.453165711548408,4.378115051995439,0.43820156140273875,4.334882673365366,-11.63351535947793,8.0,4.0,0.17557363724197797
01-20,-9.3163015178468,8.123111176293293,-1.7077827705656257,2.6256128177290052,2.584271589292832,-2.159693032616445,2.148740632570026,8.842899485577256,5.500591351058031,2.475469684599232,5.088080049099646,-12.524323520473974,8.0,4.0,0.9733896620597061
01-21,-14.087152072787056,9.006053859214958,1.2546290081292741,3.045110730549651,3.3085479638273103,-1.880779399408233,1.9506344942329228,10.361519062514482,4.721204529275695,3.2522150351564014,4.957128923608024,-7.622854268342218,9.0,3.0,1.5221881554976011
01-22,-12.659649983624172,9.031276668718366,-1.4601601647720248,3.3177070172269874,4.339831857295238,-1.60776210175527,1.3867778482480704,9.242017593465667,4.230012575137937,3.646576711476158,4.030247296704799,-7.660085201531347,8.0,4.0,1.3197325097158672
01-23,-16.272765787855086,10.631963477226682,-1.8212244579189067,1.1119593904412142,4.726001552675731,-0.5612054373871805,1.95294553529656,12.026314986379523,4.001595632189392,2.817839951992538,3.0948359801616,-9.242367907233865,8.0,4.0,1.0388244096640171
01-24,-18.864977479848154,10.874932799665409,2.1918362409437377,1.4370569452672428,4.192722598769814,1.931553829758771,0.7779620529304337,11.70100431526286,3.1603916891241846,2.1522103999803637,3.3436169586813884,-12.637044590720578,10.0,2.0,0.8551054799846227
01-25,-20.039532628704933,10.253854904411359,1.501322103310575,0.8239132333598402,4.5846324151196605,3.544807107953579,0.6388280546316,11.782557325904799,3.3052436865104595,0.7876626240072857,2.4929895196651177,-8.564766589595328,10.0,2.0,0.9259593130478344
01-26,-15.431400439770357,10.647805455556647,0.9129656209799213,0.07663748205122396,7.619907845199378,3.294685956606955,-0.03137326708026961,7.066579720736997,3.450095683896734,0.9004975943021185,2.577887862861364,-14.825038312421468,9.0,3.0,0.5216042669099372
01-27,-17.59755351521295,10.126586593057876,1.2172900744040231,1.8584600524862678,7.786807005259251,2.5514849293067376,0.7417948487619453,7.382990885664594,3.177318498611571,3.455485082800395,4.058027372940341,-12.020386822562907,10.0,2.0,1.0615254171264283
01-28,-21.958683646301946,10.846370432565262,0.4580416647869837,2.633544683043136,7.803467570801359,2.1064002572222646,2.0044198950910097,6.8292688324089035,5.274128146206182,3.3597658772593615,4.283204372495023,-17.046829912708578,10.0,2.0,0.5494248477390805
01-29,-20.2754447902091,12.091181849148953,0.16617785079286224,2.7425325519656574,6.163028283500735,2.5830262631111154,0.5681827760158618,3.2771674813493856,5.224758483687907,3.0607697713440953,4.243250283230473,-17.016552582528426,10.0,2.0,0.2356731851174597
01-30,-14.402372248885106,11.98019794501133,0.7024796319605122,4.190403943559881,6.271464134952444,1.2761405586889172,0.7079936331287716,4.579046287410512,4.952307560408097,2.6423862123702584,4.223699400061644,-17.622122286840895,10.0,2.0,0.791802064318864
01-31,-9.372719502820573,11.099996566772461,-0.7969821008453127,3.7458702714318957,6.867888895722038,0.545599813707175,-0.697309749677262,3.8942057261629324,5.528219525067215,2.942157804882491,3.0895542338962794,-22.362288420688703,8.0,4.0,0.37368275530088635
02-01,-9.572520466017451,11.8492780397033,-2.895179502789825,1.6893099236346065,5.857966883229351,4.789961036987365,0.39191095220559347,5.05515482981923,4.272391913039124,3.586103439411028,3.2461817063891147,-21.63087312599383,9.0,3.0,0.5533071358014668
02-02,-7.260374653491499,10.913575725790894,-2.704984758139969,3.0481084746940432,6.265712083775956,5.449508875337266,0.11004510949938172,6.832139971826557,5.062138970551267,4.962334723210498,3.1052930449982354,-33.409196094631916,9.0,3.0,0.19785845611839234
02-03,-1.6926201235734597,11.11111111111111,-2.282336935798436,2.532336318281275,6.02952160909915,6.186043953329109,0.7505856708519263,4.44154329240204,4.156929641583984,7.509710657650412,3.721917504991549,-21.555211584593227,9.0,3.0,1.7424609262779531
02-04,-0.6093378207464134,13.333337100935589,-2.5100160947879457,2.2652569244523413,6.450460849730813,4.209064934545547,1.1415160805742681,5.630313541691375,4.839132418690235,7.314364048487873,3.619691173003962,-20.878549817304602,9.0,3.0,2.0671027782727536
02-05,-1.8280263759059785,12.925679398728604,-2.9999971389770357,1.9967029667359657,7.237426616741372,3.94696476904202,0.21892007502455477,7.947190292361037,5.7682400758078005,7.12853821886522,2.770560209686167,-21.829460203185576,9.0,3.0,1.9402282420770132
02-06,-2.6955121259771513,11.705600820547964,-0.9185485462842378,1.6544145232252518,6.60194453261979,3.638607135589372,-1.0842276053171749,5.020159501875646,4.454862991392607,6.473931978396864,2.270322924133077,-21.478034914001938,8.0,4.0,1.3036267680166727
02-07,-2.67887731996884,11.438642625134602,-1.083620488551097,1.5475316350012376,6.67255514947752,1.8094678586110424,-0.664244799435778,5.621605878163751,5.361086791140133,6.40696294050622,1.9240019804866577,-18.02184485215312,8.0,4.0,1.5277722832010274
02-08,1.7202167753450945,12.015016634275955,-1.7149860360115836,2.0081064427061954,6.665481891002312,2.0694983051550433,-0.4101627050542611,6.455746042306541,4.294073504080212,9.163968545671624,3.932159835018863,-25.175657094062537,9.0,3.0,1.751955178369455
02-09,0.525623668216038,9.527466696183879,-1.04124569415458,0.9579964433639856,6.774539935246465,1.2151465404696635,-0.23622287539984116,4.688095359320835,4.268053148239685,6.593901185461857,2.0514348890008582,-37.972122757893835,9.0,3.0,-0.22061112182874906
02-10,5.952766618152998,10.395911969847212,-1.3270754021105926,1.7777760823567708,6.374999455043248,1.1689584973328255,-1.1908542480966944,4.9698953100869545,3.0715430716676573,4.805806534831217,2.6887428289642497,-31.501256259638527,9.0,3.0,0.5989345382031107
02-11,5.111614142690917,3.192847895992356,-0.7123925636310348,3.4444699116724395,7.449251733515546,-0.4090013174117378,-1.111465176289833,4.803381599409193,2.8582646344318285,6.35982390724123,3.547046098791948,-28.68707325242406,8.0,4.0,0.487230634499066
02-12,4.2381089369434495,2.0597302624038307,-0.5513588953098009,4.552075898308447,6.954990883109452,-0.5820338739357951,-1.7307084161804462,3.6344975173711767,2.8582646344318285,6.2216203939740256,3.0325976592536743,-27.201151803377186,8.0,4.0,0.2905527664160547
02-13,10.160096316409412,3.4509164391126403,-0.6952968138619844,4.325611803212032,6.142988990642566,-1.337106305177943,-2.5087297996847817,4.4450219260066035,3.4254565980304936,-1.8619429558983238,2.5777043952240644,-28.853400482382824,7.0,5.0,-0.060723324030670454
02-14,12.772581523411883,4.548898789342139,-0.8603072229988271,4.750631344911327,6.319508798987872,-1.6957105348476296,-3.2763527775017147,5.567616838564306,4.16666542877167,-2.9291573313126875,3.5538287711331233,-21.278588222530235,7.0,5.0,0.9699679504942695
02-15,9.531504653375897,4.95722480497673,0.8464292180293409,4.605021555400829,6.562279261476222,-1.104724989811888,-2.4332797778588624,5.808183752276258,4.984428766421791,-3.5081701562830503,4.002260007805419,-22.617023549181365,8.0,4.0,0.9695111288856101
02-16,10.083492136137421,4.95722480497673,0.8665866876903261,3.986164327358235,6.277242493294182,1.6943950726806607,-2.723550896991344,6.07139108964669,3.6864017828856954,-3.927117696620531,4.54929633016011,-14.709393198161155,9.0,3.0,1.7343444110880848
02-17,9.938887543976687,5.73729868569574,0.2216860393378314,3.8062286621666996,5.652099616829516,3.087247726486027,-2.723550896991344,6.8080787270530685,3.8511567277739536,-1.3692482494349243,5.719056805379618,-15.792647253483159,9.0,3.0,2.078024511232476
02-18,10.58218365834741,4.630095809947835,1.2766793856214311,4.144605511760405,6.080726140261547,3.2171522972159203,-3.6366520098295716,6.896989805218358,3.1172900278885645,-3.559646585414311,5.288190733437994,-19.800439905452937,9.0,3.0,1.5197645724168867
02-19,11.675783371821817,3.125793112915219,4.509643867427035,4.545454545454546,5.102400107328772,3.9022978409290756,-3.652386434835706,7.052679696995997,2.432963616219385,-1.6748548915699264,5.5085122375572215,-19.540591654357435,9.0,3.0,1.9156412846571662
02-20,16.60561326443432,3.240503238726248,5.1818493210972605,4.994568232655397,7.715393677570254,3.410784832208978,-3.9591462414055556,7.952956855960035,2.801670036133744,-1.5048472722086683,4.847863613375472,-19.457438310821427,9.0,3.0,2.6524809373105045
02-21,19.999994193763378,3.6308588811125273,5.9542273333113975,4.994568232655397,7.786016763654986,3.059389481389964,-4.940609725732021,7.742998766689239,1.9584719470338723,-0.5016214270752426,4.047639736402172,-16.46386019743746,9.0,3.0,3.105672832147351
02-22,19.999994193763378,3.8248625907514247,5.91773221358574,5.085048215607303,6.793715543528747,2.5287676344545025,-4.559790984927963,6.354508551271761,2.392218258440318,-1.0032343496419474,5.5966655945991075,-15.946487157604722,9.0,3.0,3.0820000253189708
02-23,17.0977916272812,4.611529028124165,7.256502933704945,3.8002145094217017,7.113570453935371,1.6050068048789876,-5.0071240724984465,6.55296279863164,2.5762342761572,-0.6526508052344577,6.602906424709447,-8.386261184093197,9.0,3.0,3.597556899584879
02-24,14.00631049589256,3.634086986184678,7.93558416751154,2.8472373557652473,7.607733573259912,2.2475258342195885,-4.541162040308516,5.21928638063124,2.835487003212062,-2.576269807115113,6.817139600702419,-8.000391730768678,9.0,3.0,3.1693806515989116
02-25,12.870661910128373,3.8596512697587446,5.692967784378973,2.0426952654299906,7.6895823142952295,2.4758445690491686,-3.8315994565349683,4.667872354893041,2.205882647576084,-0.9788623342399497,6.10207644235475,-5.755537516558179,9.0,3.0,3.086769604210938
02-26,12.776028539229698,4.130380453182979,4.348694231262762,1.6989879182235879,8.366813826248636,1.962553539082047,-4.478089008643039,5.1971515479879065,3.134342634731894,2.092323571899472,7.08914461851662,-3.52056711026352,10.0,2.0,3.566480396788253
02-27,13.55514400071263,4.66764401974395,3.7562459475986345,0.20622536564845811,6.724888164403669,1.1020467256662445,-4.010738736915402,4.718202555689353,3.1721202159321047,2.9810298102981028,6.997429557368477,-1.2658215432456819,10.0,2.0,3.5503680069083785
02-28,21.253733848457905,4.876859502210357,2.450390589301174,2.133583475552874,5.7816617874078995,-0.700044271620382,-4.740901310377617,4.718202555689353,3.133120241918862,3.067752662389905,6.703959553574071,2.919989335995719,10.0,2.0,4.299858997541676
02-29,0.0,0.0,0.0,2.077927114796597,0.0,0.0,0.0,5.0006411090951355,0.0,0.0,0.0,3.4399132352822983,3.0,0.0,0.8765401215978358
03-01,19.695584821568527,5.200493620880846,4.353083220290329,1.781081395162851,6.976336731851656,-0.9425225569316664,-4.839980577098802,4.719276539441792,1.1180455418923398,3.523035230352303,8.070404712719828,-1.201761968999537,9.0,3.0,4.037756392594206
03-02,17.56250262260437,5.911913542778314,4.413540253628954,2.3853197010285268,6.151142190054515,-0.21475592024140672,-5.055293525289545,4.834376085522592,1.4430585501491857,3.257817413686211,7.88686169956716,0.42299060393312093,10.0,2.0,4.083289434785168
03-03,19.28306444197674,5.1220666638910295,2.015316448057037,1.349858232649688,3.5927024475494744,1.0601195837999613,-4.587300618489584,3.824025322680738,0.24924889549931797,2.533691077219508,7.5348064658164375,-1.8131396269904276,10.0,2.0,3.347038277804993
03-04,17.73794704219506,5.1220666638910295,3.482986925733301,1.695231206711674,4.403865122795567,0.4240478335199974,-4.158734518384176,3.1230045169518443,0.1978911871236761,4.1458977138511965,7.307062521014427,-6.45001695882945,10.0,2.0,3.085937438047846
03-05,20.24104147363306,4.722550347250058,4.897469852461665,2.110094542897076,2.199598475535696,0.15144400419474427,-3.2222202845982366,4.454257134759463,2.0965383558520774,5.960673974049568,7.43477588184337,-3.021899378317356,10.0,2.0,4.0020270316300985
03-06,15.481311200938128,5.577595040270207,3.6700941504821527,4.258442941112011,1.1452413609170546,0.4240478335199974,-1.9996799795225415,4.910204907167713,2.4751813542593353,5.062236101231795,8.328776367502146,-5.351010956589742,10.0,2.0,3.665203360107355
03-07,14.72868496122784,5.731591774047614,4.783730912446422,4.203379101998703,0.872567818364083,1.009033363778098,-2.1323999830269043,4.694771391834003,2.6821428100608444,5.721160114824741,8.885244708195179,1.4474504156070422,11.0,1.0,4.3856131157798055
03-08,12.244192493885116,5.423094345544898,0.8770154330628196,2.2209968697495834,-1.2461064852090828,1.517203155866915,-2.181179592311439,4.9893392190395724,2.0760806537648087,5.919886649908226,6.713088145224018,5.133724862379798,10.0,2.0,3.640611312575436
03-09,14.55589761718629,6.340328960273619,1.7540308661256392,1.8335166542237875,-0.49018996748503973,2.265957410509866,-2.327804617437923,4.914126029722026,2.1921399235820984,4.145569808716248,5.720360866627592,4.400683827244112,10.0,2.0,3.7753847816073596
03-10,10.47975497675877,6.083917290252568,4.2654962482599155,2.350156549228568,0.19834225057237656,3.046443514219478,-1.383586064100635,5.5158506727439125,1.323565642940217,3.8754802705348834,6.3435267077485245,2.173099832239452,11.0,1.0,3.6893373242831693
03-11,11.05818328510988,5.920747844251519,5.607844334022671,1.21636540329598,1.442310141545239,3.1845230458815004,-0.763358037663473,3.5632514463129676,1.5899447335997117,3.783783521526416,7.30510729954089,6.79209878967517,11.0,1.0,4.225066817258207
03-12,8.336165044133201,6.264494301231519,5.781579653026681,0.7958547379063704,2.0176980347759956,3.2142799565578626,-1.0814254033475288,5.572292199298398,1.9795695930346653,2.575661642003231,6.985628647105857,11.194733004932036,11.0,1.0,4.469710950888191
03-13,8.171468466788106,7.4930655705323295,5.320808808369019,1.1086888500116097,2.0707932193722347,4.53868387034663,-0.2542101221848765,4.7835977472526885,2.514928581873633,2.844875450852981,6.967439959983489,8.217480031682838,11.0,1.0,4.48146836957339
03-14,9.6103031090601,7.1925721203504285,6.63579980050842,1.0178141923515667,1.8053105447144633,4.230995321106217,-0.790014208827941,5.867637211934996,3.5417162695932363,3.3064968122399896,6.412591318173908,15.597392494015457,11.0,1.0,5.369051248768404
03-15,9.46079638210724,6.323186685473928,8.536352717746716,0.2362796565496764,0.8367410028966435,3.246947162635648,-1.5926102650409582,4.7523705175994655,2.646834599257716,3.0810549646471967,5.847413499253816,21.939957519900602,11.0,1.0,5.442943703585641
03-16,8.766663869222006,6.076834840486594,9.226935113632667,-0.44037005223265485,-0.30691819013516014,2.8998541063646845,-1.6087960431173702,4.264627403400042,2.9745312451318613,3.3554859502342307,6.919762350724545,20.957009343229082,9.0,3.0,5.257134994745043
03-17,9.191301548898371,5.704309009124631,9.054289514661178,0.36503150136428164,-0.3794090423834716,3.218122130096858,-1.6946465007516267,3.376684566228937,2.170324996322804,3.74491764849748,6.836148608708078,12.381908299503065,10.0,2.0,4.497415190022549
03-18,4.0597595415128005,6.33294801486977,8.326968219113411,-0.14676542564317818,0.9625617032399234,2.8923123719994406,-2.238211899208806,3.0268653022665237,3.0635200751880127,3.786097235858122,6.769146821198705,12.109376461959831,10.0,2.0,4.078714868529547
03-19,2.4033830999128414,8.943274790121869,6.5967569764411715,0.14632891720648322,-0.6129441952508773,3.797089332721051,-1.7426061804682984,-1.8157858597604855,2.370509142689767,3.827241603608343,8.1641692082202,10.174422593874901,9.0,3.0,3.520986619109747
03-20,4.962941931838638,7.783462401390892,7.268597424750893,0.2383958487586439,-2.127276508397397,4.093732693257798,-1.8688575046164169,-0.6896535976839997,2.9426442645310957,3.0034559773373495,7.853914371152839,13.606648716547465,9.0,3.0,3.9223338349056505
03-21,-0.3910033554792984,9.113807440153728,6.471934556167835,0.4584632415119661,-1.4241879997205038,3.6314962832961344,1.0304506333528762,-2.1518115556672854,4.574270285607747,3.2087308762330324,6.444461306978017,20.925192398897583,9.0,3.0,4.324317009277653
03-22,1.6597525024894846,8.80055558540659,5.74291689591118,0.9719398334153346,-1.1510849314925635,3.7342499285745423,0.8911815243640233,-3.321866354328642,4.4748273594555465,4.969747834326752,8.115042627385233,21.421213160188014,10.0,2.0,4.692372997141291
03-23,1.6283532370727078,5.999998204848345,5.60801673085513,0.9848639385262564,-0.01785733386939401,3.8207903865510486,-0.6190466502356151,-3.4145075627536907,4.089488391465624,4.773931049600204,8.203773792771422,20.4907140523679,9.0,3.0,4.2957098530999955
03-24,3.579344858061152,7.882349350873162,5.318940747730676,-2.2337991827515333,0.12484340147175062,3.2846168675020113,-0.6339168550740251,-2.421918859427694,5.860666763530013,4.389771252961408,9.137536788016837,16.02136463281629,9.0,3.0,4.192483313809171
03-25,2.0905918713718386,8.611764346852022,4.634853601052026,-2.4818025985640824,0.24937547411917454,3.4897707245411134,0.19017263833053852,-2.9581909968728106,6.458308727892827,4.946124802092018,8.30042904549359,13.99961874854939,10.0,2.0,3.9609180320714703
03-26,-2.882482914820238,5.415864713276052,4.603973610867094,-2.1007570815857286,-0.33652576069293,4.377261605246124,0.19017263833053852,-2.6612464758557866,7.138527738641416,3.868791378717879,7.500654077194964,8.258633999334979,8.0,4.0,2.7810722940545305
03-27,-3.082848758153054,1.908776536566956,6.411480333246127,-1.991808768633916,-0.6730447649258647,4.196757805869822,-0.2857147701202877,-2.2991436142020154,7.104753118149514,5.249566804517199,7.4304775677122885,10.875131400350863,7.0,5.0,2.903698574198136
03-28,1.3073974471696068,6.14326414127554,6.679389118474448,-2.2710301159406354,-1.576336174424772,3.643179035017686,-0.8549729525521358,-1.5957391000521626,6.998917412244243,4.948363295422453,6.84270161289513,6.556305684363721,8.0,4.0,3.0684532836577603
03-29,0.4503035991036741,6.210000040687678,5.405930793513196,-2.215187266694186,-1.804864461677097,0.7358430555892483,-1.0149054483203694,-2.1866461865639644,7.035117217122508,3.367036665494955,5.84955806225802,5.483956669688487,8.0,4.0,2.276345228350179
03-30,0.673938015086674,6.888469085489795,3.8558450977186185,-2.2400611718789945,-0.8497070773133016,2.0740763346353956,-0.29916933778571564,-2.472994247815995,7.252325252853151,6.24800144274379,5.184858687291463,3.3381372709768855,8.0,4.0,2.471143279333481
03-31,-3.2151120679534637,7.8022535314997645,2.867660385067865,-3.0155471600618124,-1.7684917587751283,1.3285556322278453,1.2591346964644345,-2.056490685148013,6.712711738119018,6.745148529640348,4.512414742532956,2.811948159447644,8.0,4.0,1.9986821452551216
04-01,-3.0493870532563725,7.450797287811041,3.2208927045715874,-5.1022321336148515,-1.190056825438718,-0.4043190736694502,1.0570500323653416,-1.8807151051501214,7.254644346468732,5.826284975241049,4.664546039896641,6.063268107297804,7.0,5.0,1.9925644418768904
04-02,-8.584680936989256,6.174593286223131,2.2366697628113172,-6.300730992998696,-0.9881796212901445,-0.5390844817792293,1.834292354405242,-2.520465649784133,7.479124422844087,4.527685383314124,5.316139841603137,6.121848032767811,7.0,5.0,1.229767616760616
04-03,-6.933591173098276,2.8179404243577153,3.363565458967494,-7.761309744498579,0.0529359101220407,0.149743150567576,2.8063150468486593,-1.950907114291975,7.657934408956001,4.254867776330036,5.095369791518222,8.071439309938174,9.0,3.0,1.4686919371430907
04-04,-7.177810384900446,3.807906166033058,1.6538473275991585,-6.844778119705307,0.0,-0.09093294262075974,2.7914048547758834,-4.65517515278267,6.733107678316237,4.094506942023045,4.539031690756448,0.7290619347482927,7.0,5.0,0.46501416618691177
04-05,-5.967737013293828,1.6369043958520464,3.137325161200151,-5.967241509620343,0.8485054707897497,1.0886017952032403,3.472437506594124,-3.308967260823297,7.535241905961499,3.356851997985396,4.705987834422027,3.254920153607569,9.0,3.0,1.1494025364898612
04-06,-5.0863667101646755,1.2915962860045234,3.174898818791129,-7.997611059122469,1.1915197280743137,1.815997500150859,4.100462127309414,-3.6279114377855066,6.988332626770532,5.134527675548654,4.209879563119608,2.863203629217455,9.0,3.0,1.171544062326153
04-07,-2.126288105494062,0.8941798575827344,4.3020870471928285,-8.953723731645786,1.1742060419160867,0.5926141986271959,3.5899763320933524,-2.7906956466725497,7.280248078858255,3.9119240361487977,3.582805218468034,3.151039938830381,9.0,3.0,1.217364438825439
04-08,-4.574736234092627,0.17386909523735938,4.963202462369369,-7.1004747924796145,1.0528202687263042,0.2574949675692505,3.116408408278208,-3.353376335870315,6.641575012343575,4.371875882308511,3.956649066216069,0.2873317127051153,9.0,3.0,0.8160532927759337
04-09,-7.925254548694535,-5.192793223215089,4.702972580302028,-7.036966520168907,0.30030380111230576,-0.33323421976611745,3.2538913583993794,-2.694807818868273,7.1825171550867,4.3209850980774265,4.41007317408498,-2.739194407283532,6.0,6.0,-0.14595896424446944
04-10,-5.83117752966404,-5.941615322804598,2.9286309077033565,-4.485800097455989,-1.1305412166545867,0.46955100629544283,3.0094675123103536,-3.436287823725183,7.57302905020965,1.4560475826438037,3.632346933209321,1.9729959924672062,7.0,5.0,0.018053916211228132
04-11,-6.8640166516376375,-6.326156717694794,2.7588924615595465,-5.582766564958827,-1.5368290452300044,1.9690934390554995,2.2951292449085074,-1.2830628334301741,7.758725588270329,1.9555706339736003,3.0843993077378107,2.6072870484834283,7.0,5.0,0.06968882591977381
04-12,-7.073005695437434,-7.271772986095762,5.147906712408864,-6.758081908911903,-0.5122785945957186,1.1073964620996624,1.6589142555414242,-1.6240967760986003,8.58615671557811,1.4773083683165815,2.509946026501463,2.616555699263056,7.0,5.0,-0.01125431011918813
04-13,-3.8570956235362623,-6.689141434971033,4.686904297044591,-5.935362662639303,2.2931721089300874,1.212297997061313,0.8441471083677047,-2.4099594028267433,9.10180644375062,1.424164512748525,2.71777595583056,6.572345392117428,8.0,4.0,0.8300878909897907
04-14,-4.23452509691755,-8.322528156263944,4.59086273780216,-6.2867195419853,1.47634616334559,1.1523798968973178,1.8300311080026856,-2.7504892155733183,7.339012820932739,-0.2977760107751253,2.691933859304183,7.578859331322045,7.0,5.0,0.3972823246742902
04-15,-5.407165492373639,-9.800359889046408,3.515178222783457,-7.231771988288631,1.9125231232662738,-0.10612446300156374,2.295290446467481,-3.7982993894385793,8.175882065428924,-0.24446824305137063,2.6660780297159845,10.32430247135434,6.0,6.0,0.19175540781802244
04-16,1.5309485635925437,-11.096704208351902,4.597921144086284,-7.020314410498746,0.7286295434098241,-0.6670746626947949,2.27978436549249,-4.186833619606157,8.415320460331808,-1.0716965235928257,2.732914183728552,9.506889637947099,7.0,5.0,0.4791487061536814
04-17,2.5615785454916615,-7.434286231005649,5.0545652168991015,-9.284141101424808,2.2392076168121373,-0.9248038490272811,2.5585327428094224,-3.2278945857804464,8.59948449696038,-2.3094914751908515,4.436557351724033,7.759853182007904,7.0,5.0,0.835763492522967
04-18,7.029991257934263,-7.676862799141741,7.134833828505776,-9.244035911547044,3.021149367531063,-1.0697590102318026,1.5054086209525408,-3.0675576645837412,8.75191419179531,-1.7560680523160808,3.9840266063463954,3.9949699009117183,7.0,5.0,1.0506675280130546
04-19,10.382338934863409,-9.88222391178342,3.7413676187674167,-9.36435148118034,3.7735845284307237,-0.7358545128575972,1.7057904953984027,-2.901175871429335,8.775436886259381,-0.8940016767453935,4.034888331301372,4.020818346044211,7.0,5.0,1.0547181405890693
04-20,12.264152805207111,-7.352573192891223,2.1488851781222995,-8.328402157491066,2.221442364445098,-0.8721832045935151,1.7826417139139226,-3.315629567347812,8.457831150132318,-2.2963634679267355,3.8315498071097442,4.577493769418565,7.0,5.0,1.0932370998415588
04-21,9.725605795455726,-7.653709331352945,1.4389869826746722,-7.958615466738396,2.4450297747697998,-1.2987021964637249,2.213904244555511,-1.7743851351211142,9.587298942330323,-1.7031388252968922,4.4725059446786934,6.320618034843584,7.0,5.0,1.3179498970279362
04-22,10.396341240030187,-8.155583750173982,1.635563342029991,-8.044597775048615,1.9795028461227493,-2.191332352669204,1.9644501614020309,-3.0122842624673534,9.301515821824434,-0.5220518437920091,5.8676122052378314,6.161719458647051,7.0,5.0,1.281737924261926
04-23,8.963410655775581,-8.670521949129062,0.05865609599043093,-7.658723569030669,-0.6812496888333874,-1.5565948432809096,1.870908597378516,-2.3575126512562115,8.794403676826128,-0.45783679041633657,6.036028225568734,7.29166863103822,6.0,6.0,0.9693863658859195
04-24,7.823433506397862,-12.064481279516544,-1.1275958524769525,-4.74989697803215,-1.290787444352457,-1.7984018049508395,0.985602740089008,-2.5035677738476734,8.399625670573146,0.7773435507043155,6.138474328190859,7.15177161291006,6.0,6.0,0.6451266896407193
04-25,6.81257453153246,-13.361383364528834,-0.49144880135490365,-6.669248748723135,-0.6991742527487851,-0.9168805374176124,2.3179805414828967,-1.9744467950388553,8.122300018875384,0.8092877293083451,6.556817625940519,0.7231037775930607,6.0,6.0,0.10245681041004491
04-26,7.694657886301289,-13.421048616108141,-2.450596276403021,-5.661105206063165,1.581377769993554,0.31291772099951165,1.5058809168198528,-2.843539693465618,7.410439867658633,0.6708602473057864,7.327626168181599,0.8804366824077503,8.0,4.0,0.25065895563566915
04-27,8.449427246665461,-13.503460859349287,-3.023720632672824,-5.487105052314763,2.8947395190858005,0.49085499713972863,2.120032077946105,-2.8821382251507717,8.052283031030418,-0.2359515505615703,8.694224600817831,-0.09780440042470091,6.0,6.0,0.455948396017619
04-28,9.991004044746314,-14.168001016441407,-3.478265196254118,-4.026711324831232,3.217346033872019,0.34261244890393067,2.272725923137162,-2.020071629136826,5.806448033128666,0.17083456742817243,9.657524272025,0.41203787798955205,8.0,4.0,0.6814570028806027
04-29,7.620764404401399,-16.214785917094517,-2.661970260891991,-5.292636352215115,2.638522498259733,-0.7807872137759618,2.630757601039897,2.301068125029484,6.911848293612232,0.34107833709774804,9.185839425707885,1.3973464413494052,8.0,4.0,0.6730871152100165
04-30,6.9006931234735,-11.502597453165695,-4.821429030965517,-4.086307873391077,-0.089204706050178,-1.2312308012181612,3.377954920775552,1.7263408271161569,6.683051171947832,0.690389288735424,8.534784285806344,4.084555341744802,7.0,5.0,0.8555832579007486
05-01,9.814864428591317,-11.602343411458442,-2.6822177796920053,-5.195298989461233,1.0347868407711185,-0.8858918630672357,1.1268844416409234,-0.0911691793919299,7.484331544908122,0.8269707186393017,7.2438784649146655,-1.8129490548186449,6.0,6.0,0.43848718013132987
05-02,7.907114926107352,-12.003068194437038,-2.3837275064077303,-4.92591398588217,0.8028559662172311,-0.8774611867529021,0.96005377671558,-0.5363631863161163,7.014496291893116,1.8659903964429656,7.087652155824588,-1.3762309603666996,6.0,6.0,0.29461654108651486
05-03,5.887656767552373,-8.740035694396015,-3.5382504647724744,-5.503175953769702,2.269155552951313,-0.4969043569687711,0.4823363541083662,0.7468549490349046,6.724641219429348,3.3927024582229426,5.690857088397582,-1.3281413982035846,7.0,5.0,0.46564137679885675
05-04,5.003031053463722,-7.06026771009503,-2.569676286103048,-2.558228570567155,1.7005631226051976,-1.675805125456119,1.448385854091867,0.9958099309085947,5.634783316349638,2.7408796725617517,4.221833499402431,0.5400892395484835,8.0,4.0,0.7017831663925277
05-05,5.491851926203468,-4.551041585923026,-1.502269854202256,-2.5253485426900526,1.8725931155996152,-0.6181155154482295,2.7927752303297932,0.3406736599451287,5.009856809285228,2.233454654533597,4.285596741574874,1.2627500301864405,8.0,4.0,1.1743980557828817
05-06,4.7374765351221715,-1.7466151483921875,-1.1643974223576954,-1.8434079064858198,2.2148595297943223,-0.45406849272516964,2.6384804025438693,0.2875832950367647,4.002321040317468,2.150984146883402,3.7408999084587453,1.9175034903533228,8.0,4.0,1.3734682815457662
05-07,6.03500312865039,0.37046559560574027,-3.506340082833643,-2.2124734706469122,0.8127192524271517,-0.6205595035616567,2.7927752303297932,-0.26195753979551223,4.887605606650756,1.5384583005222299,4.555734255565095,1.3469295595175532,8.0,4.0,1.311530027702582
05-08,4.940894165456128,-4.047382455876089,-3.1589307520624743,-2.967073482502304,0.24734875163017656,-0.9535299777931154,3.232720858242034,1.3785102511753464,5.040853129456663,3.0431078529074505,4.538988051350097,-0.5047209330866066,7.0,5.0,0.8992321215747756
05-09,5.530233069774186,-5.137160727376228,-1.851853366604236,-2.8330771337750313,1.1307410015939503,0.13497895451896727,3.4155299601259155,1.4546823493545706,5.195398440306214,1.7751482629019721,5.368062528703671,1.1988856262275767,9.0,3.0,1.2817974138126274
05-10,2.9044356398511244,-8.1025637113131,-2.5641052444284487,-2.5459379280717824,-2.1149710594666624,-1.3057223209436677,3.7251887430671404,1.5706752214093036,4.7471232797907685,0.89813871471143,5.183206085481835,1.1529571901241964,7.0,5.0,0.29570205085101153
05-11,3.477177782425579,-9.328837677860612,-1.017812597789417,-4.420102238062635,-1.7263325168323476,-1.6719394796750584,3.25252979742072,1.889919261498748,5.137932437589799,-1.27819813201934,5.5118062933878695,1.0517543346378218,6.0,6.0,0.0731581053934272
05-12,3.3498814355708646,-10.59860102724983,-2.7011177608018455,-1.179428839818698,-2.0973876942865672,-2.272727272727273,1.4584928956069128,0.8683441787454863,5.056437923381089,-0.7988832074987301,5.034514050341428,1.878426890035872,6.0,6.0,-0.1668373690584409
05-13,6.420600168750671,-9.536150014575721,-2.93191988865469,-3.194641640366494,-2.0415583657019365,-0.9037482747961071,0.18618327830777773,3.9555754842628263,4.804153976645967,-1.2909551285165781,6.8230585440397675,3.3226394103660537,6.0,6.0,0.4677697958134613
05-14,4.714647289015278,-6.331423234885078,-4.56431047369178,-3.4598654342585444,-2.4381371450322105,-0.587436953206631,-1.1792120592973854,-0.8469075255751222,5.175582014941146,-0.7119012713051882,5.249911622765964,3.2848813259734584,4.0,8.0,-0.14118098704634097
05-15,7.00849371998501,-6.427459359542488,-3.683380132632477,-1.990936616093541,-3.1113520978128375,0.6175569159272448,-1.4312355109154242,-3.7533553740341423,4.330213470222528,0.0,5.031868590651048,5.669143643703867,5.0,7.0,0.188296437454899
05-16,7.074342227737403,-5.071350098492874,-2.5184022936070867,-1.0841696077734841,-2.929404361664957,0.25636883607950123,-1.8300251919091977,-2.2592139375294833,4.762451829189679,-1.5635205920343984,4.302245341599993,3.3141474697069415,5.0,7.0,0.20445580177516967
05-17,8.256883219690204,-7.90369152086922,0.07686570873100916,1.1630202206027493,-2.9958488575769935,0.5670868089810757,-3.012240246443583,1.7205418063366933,5.349133221620439,-1.2920765050182117,6.392434452800745,4.668190822994136,8.0,4.0,1.082524927654087
05-18,8.202547883373963,-6.610259175496854,-2.286699857366683,1.6425846752592743,-3.350846439949795,0.5670868089810757,-2.96378107382563,1.9160599547884793,5.5101816389182146,-0.9168358133049191,9.087981144583473,6.992321482699677,7.0,5.0,1.48252843572169
05-19,7.432633091080658,-6.451609324161114,-1.8255202656155187,0.9598391206513526,-1.9839152729499505,1.3035177825008977,-3.63806784298759,2.4374383691712005,4.775115453145381,-0.6746679174800132,9.03677157069082,7.367386812539486,7.0,5.0,1.561576798048801
05-20,8.084096846995172,-2.8556368053130603,-0.9223665138197742,0.9598391206513526,-1.9839152729499505,2.5181521609290254,-2.650146800341187,1.8117822830187102,4.220142925229373,-0.6746679174800132,9.03677157069082,6.760135263342532,7.0,5.0,2.025348905079417
05-21,8.97246267566726,-2.353250652644073,1.4902536817403922,2.3561171007474977,-2.1326208918940077,2.207088499504636,-1.803352207819585,5.48464108243497,4.628142118596592,-0.44877210682165125,8.143109506266274,6.152890527321414,8.0,4.0,2.72472577775831
05-22,10.05570285488313,-2.525254624965644,3.1555226375119734,3.693125208054609,-1.451615384168391,2.3552124381164132,-1.018013377310192,5.53239529458021,4.869092103822145,0.03191699114659143,8.410230947588209,6.561170574820734,9.0,3.0,3.305790472006649
05-23,6.002978524559054,-1.4199340858809264,3.009778929107684,2.8174368487128776,-1.594981006840806,1.1237638957239837,-0.2821763639949625,4.992378359036665,4.696985257324904,-0.10639267623566416,8.56402926392153,4.714271645992925,8.0,4.0,2.7098448826189387
05-24,4.585225626387071,-3.294053393706485,4.984303192740443,2.798396040673838,-0.6084469328722092,1.5230763832591945,-0.20363575783915724,2.9972068508747887,4.467867436103057,-0.04255869394245106,10.316072151097883,4.954016118899429,8.0,4.0,2.7064557518062835
05-25,2.8562720310180802,0.7270807361741982,3.895139130471511,3.599998837425595,0.2649200176815466,0.707620044655277,0.5132221079197272,3.0353053778124917,3.5972039829477045,0.4865655595705685,9.397318856525137,4.8632204949320466,12.0,0.0,2.8286555980944903
05-26,2.376550397682171,-0.15580726020822838,4.042825735158454,1.4574426998509258,0.7557122911151365,0.4378033286229346,-0.8354391637250408,2.933702846411486,3.367306029345251,0.8184569063292195,8.944266899718338,2.993002075873608,10.0,2.0,2.261318565514521
05-27,5.246915687894682,-3.739294999140678,3.8829602584222216,-1.9911460970706785,2.3010346607489898,0.5579052296209633,-1.6393517540001596,1.7199624294349027,4.029964320518768,1.8822302252869436,9.002980733795622,0.3364891989649335,9.0,3.0,1.7992208245397094
05-28,6.018520589827533,-2.1004090051086064,1.4941847855993864,-2.506565258079247,2.78877419113346,0.5428236007360203,-1.6551060211065203,3.1708218451775085,4.258212917644534,2.913331634560642,8.642175228137909,1.177722330169631,9.0,3.0,2.0620405698910207
05-29,4.3491610724829854,0.43333716780263226,0.1309139577822371,-3.006296071497175,3.133068841527862,-0.0753966405125223,-0.5677347598452247,3.665829082149556,4.11704358489655,2.4770095516542474,8.80401741512066,2.0833357085769983,9.0,3.0,2.128690742511567
05-30,1.650874138311082,0.07674284773541752,-0.018734100664554262,-1.3000190851096074,1.463244055583337,-0.49802926504842915,-0.34547930221230955,3.9174249252810855,4.9898879230153135,1.7976601329610178,8.148567361724778,3.0708994110598535,8.0,4.0,1.9127532535530822
05-31,3.4513851633004347,4.147235893764379,-0.2816930063453505,-2.925042941496584,4.38300486766176,-0.22607615573254017,0.5602250208276875,3.7018585272768196,4.461677984859022,3.5117063123272216,8.66795701578581,1.772019863195533,9.0,3.0,2.602021545452016
06-01,3.4803588310294495,3.9822982294290954,2.1220677335497222,-2.4668687121169643,4.694053612962668,0.060115592090425406,0.06255411587289363,3.764183156051114,3.0568679681794753,3.1021530049845927,7.6006843890018025,4.204281224565416,11.0,1.0,2.805229095466641
06-02,6.114283970424127,2.040319136745643,2.4037535761443527,-0.7624419481377356,4.869477793080116,0.478898078847201,-0.015643003511573064,3.589685606766967,2.595053022270722,1.0646169568777324,7.232345852649402,4.944870021714977,10.0,2.0,2.8796015886559942
06-03,6.285716465541275,2.1878057595176603,2.6085280273112703,-1.168416273541784,4.341244855807268,0.1959265356557631,-0.31279444359561814,3.728651206051302,4.003132974212339,-0.6109976302179959,7.413124887411302,3.9185773424845514,9.0,3.0,2.7158749755531115
06-04,6.142861502511181,5.4107249660491,4.006837479045787,-0.8028934731616816,4.715391018347474,0.27128908713690786,0.03128004096532806,3.541043413279691,4.388019157180905,0.8241745396526174,6.322348932057688,4.885497931877596,11.0,1.0,3.311381216245216
06-05,9.233360091714966,4.544316570630414,2.0918105921203427,-0.17889117497749946,6.062651101485763,-0.27128908713688643,0.031110842164068016,3.528979095211708,4.334744241418057,0.739806126947105,5.18092899629457,3.275329587051518,10.0,2.0,3.21440474857701
06-06,6.801364345932493,4.27996150728559,5.584612677135115,-2.5243498769568564,5.220616761630419,-3.19852663401382,0.2815584300274255,3.1776015089374208,5.117097533966855,0.7503689112906073,2.671412171110899,4.874371541413075,10.0,2.0,2.753007406479935
06-07,8.570630153488851,5.563829997905043,4.145469710929746,-3.239906994483408,4.730071443163117,-1.7865257390694271,0.32832877967260166,3.499383662759112,4.883998307627634,1.4584705588188944,1.9620476273969618,4.786653567482214,10.0,2.0,2.908537589640945
06-08,8.00561403448615,5.566604336563597,4.654232588857576,-3.332680875404945,4.011418480856737,-2.79816787210713,-1.0621403765011754,3.2129535902903177,5.372401525845094,2.7717202514207404,0.14586734436792723,3.8923662736863553,9.0,3.0,2.5366824418634373
06-09,7.584660283214317,6.510940947559747,3.7309205834222614,-3.3127116886707677,4.107982541939296,-5.491925058586721,-1.8253992474268128,3.1257808727760983,4.51504521756023,2.0463553032497175,-0.048715132193689975,5.088606564807489,8.0,4.0,2.1692950989709305
06-10,6.717038180603958,4.0755545127705615,5.191870446680542,-3.997592863128828,3.995301460983606,-5.434269175399869,-1.9682505774119543,2.1766392794889353,4.546977541828063,1.3874287400592935,1.0360620780617493,5.789030050929589,9.0,3.0,1.9596491396221374
06-11,4.7579087173787595,6.921978553852308,2.9977377925014737,-6.194872733874199,3.1516222568541563,-4.601853917760731,-2.8253948877728403,4.573701649327953,4.493624730836988,0.9815306650931728,0.5758772643363959,12.025316455696203,9.0,3.0,2.2380980455391364
06-12,5.7356599780335165,8.688522290830193,2.427458354653703,-6.11955532146035,4.514482949635664,-3.816554696181874,-3.3941767173497395,3.9649759724162306,3.6644491042235994,0.6122683526878977,1.3545284747702324,11.043567681050593,9.0,3.0,2.3896355352758056
06-13,7.681642685170169,10.305956789581776,2.1118732521868413,-5.309022953579128,2.4020440018500304,-4.107231084776958,-4.080966223589299,4.383566797864378,2.1349049574604493,0.43281288670973694,2.084515918355021,11.30836767737797,9.0,3.0,2.4457053920509155
06-14,5.560281090702571,9.995378686197823,-0.2525689728673874,-6.13982307534022,2.22831545022353,-3.370077778973917,-4.70836677201105,4.114398807165429,2.0554140458491448,-0.1372292291895647,2.3023119697455896,12.048389650275809,7.0,5.0,1.9747019893148128
06-15,4.804118520250947,7.123038185700409,1.709735860199033,-4.938765341596121,1.3807374111530595,-4.3395319485899355,-3.162114655105723,4.264929094100331,2.0781220217982708,1.1970454143145612,3.4701580600488224,10.70732660981512,9.0,3.0,2.024566602674064
06-16,4.737144541440228,5.9898243571939815,1.5543093700880444,-3.889432076323495,2.3080906993978854,-4.806000750757758,2.185376008422618,4.039138448817406,2.3295489224520596,7.832852350309465,3.8178359046358565,9.611984179457039,10.0,2.0,2.975889329594444
06-17,4.274984367123301,6.359851742025903,1.483220357796853,-4.239301523483413,2.1407775527766213,-6.79439893613493,2.3210263013465084,3.817080982786767,-5.394244409065326,7.473174304496951,2.9399882573503824,10.01598698848188,9.0,3.0,2.033178832125125
06-18,4.70825333248856,5.745524829649682,0.7835410718111493,-5.218957604379205,1.7982518377054377,-6.375783361065792,1.6277345228213618,0.7162926022100262,-7.191399571083417,7.409942345671977,1.2642528687299772,9.948657467983663,9.0,3.0,1.2680258618786187
06-19,5.9176664434338075,6.895753985946822,0.6862715178845115,-6.521737108617636,3.0655950235284313,-7.3579128158349425,3.274072717737268,-0.36204605889569297,-5.138768335951516,7.985941892809353,1.3303528554091002,8.743961383915574,8.0,4.0,1.5432626251137567
06-20,8.304690330025933,7.879624170371252,-1.4623465218548701,-6.135717965999113,5.257749146968613,-9.050734725695788,3.378080667650231,-1.3183685265419474,-5.641336643949469,7.605194662030783,0.9998340092847511,6.640619877725727,7.0,5.0,1.3714407066680083
06-21,10.257847018238914,7.6887667085106495,-3.4274209984632003,-3.8805359610773493,8.145553464437247,-8.604610223500831,2.645658162295661,-1.383447560162135,-5.775075987841945,9.108661332868554,-1.548145400323842,9.36288578077908,6.0,6.0,1.8825113613134004
06-22,10.78294510364625,10.550455585110711,-3.004035734485372,-6.485488049559507,9.341927503216917,-8.162264963100057,3.5772122688929717,-2.205683570126351,-5.556230632005129,10.050500841063313,-0.6439604794507664,9.332321226188153,6.0,6.0,2.2981415916159276
06-23,9.369729165087943,11.490822240525771,-2.4596799561186744,-1.2984372619862388,8.570950950512886,-8.889614663653438,5.275392213648777,-4.5940962110229515,-5.531918603960866,11.45052674703793,-1.4519960041470332,9.226088300636832,6.0,6.0,2.5964805763800776
06-24,9.285309938241387,11.972471533695606,-6.6821291640127845,-1.460583331177167,7.802252050455875,-7.282183857121483,6.336289442008616,0.03907108592578402,-5.803786721555818,11.543996626989081,0.7851674171581079,10.493408334655834,8.0,4.0,3.0857736129385867
06-25,7.259430963963455,11.248567412995628,-6.912440555168679,-1.3186810339117827,7.798318301930148,-7.916123042340101,6.583343903535867,2.5982477593944457,-5.317865167368579,10.980205129399083,0.49318271038527084,9.090910848888099,8.0,4.0,2.882258102641904
06-26,4.930178212349616,10.34955159223301,-12.770664622946324,-1.3221227690668387,7.6302536395417535,-7.786081055247444,5.689628833374433,2.0611785907385136,-5.317865167368579,9.955322543845863,1.9891547965599488,8.448072524246637,8.0,4.0,1.9880505931883825
06-27,4.331819910862231,10.34955159223301,-7.475256078313025,-1.622598964346334,6.8739498362821685,-8.817798219741919,7.341182104739086,1.8162737849978878,-4.71629392740735,10.54778623438173,0.0904164121654026,8.385744234800839,8.0,4.0,2.258731410054477
06-28,3.457140241350446,9.124591474902596,-13.675399923672469,-1.2219563956856159,8.501824751644811,-7.456705388657454,8.83866798100595,0.6953539370357751,-5.395243413103114,9.955322543845863,-1.1963811821022126,6.623931623931624,7.0,5.0,1.5209288542080166
06-29,4.870494143977971,8.741342108382428,-14.600310703355076,-2.448319006975315,6.936124822074392,-7.802449003738661,7.863542357200575,-0.6559957911207542,-4.861777817203303,10.125124271379997,-2.634617413090876,6.415965393891833,6.0,6.0,0.9957602801186006
06-30,5.43264821183524,9.672795176444119,-15.260956459947483,-3.7883331584898685,7.09066816872745,-7.473943506259347,7.284091902370389,-3.8178902992780603,-6.5636097827349555,8.58566238653994,-3.5238218054627706,5.174014032039194,6.0,6.0,0.23427707214865381
07-01,4.480533506417279,10.150465986192197,-12.439289111202093,-3.601439082726358,7.290800037167225,-6.971956081960803,7.16778190269429,-4.034165251485803,-6.0141252472772795,7.702174625702588,-2.516082652738312,4.7506081420353095,6.0,6.0,0.49710889773485323
07-02,5.768685554207907,9.409244416416266,-11.21339057720281,-3.622168329753508,7.478033549221211,-5.751857420870571,7.255013015893741,-4.154537329421258,-5.029547683943765,8.227109965546529,-3.7366737043226106,2.6420486188010925,6.0,6.0,0.6059966728810187
07-03,7.8398654409862,10.776579416895473,-9.789347083261246,-4.308971689129158,7.345382530761594,-6.116305772493393,7.51846837387683,-4.264902279076987,-5.23263061154645,7.2528110713706155,-5.735159997550189,2.750586060725001,6.0,6.0,0.6696979551298576
07-05,4.5493752870221975,12.429641915865526,-11.283230768260218,-4.2494030256396735,4.358111144940762,-4.928908324627728,8.91710160059457,-3.8659457313392145,-4.476358739870621,6.710080588211734,-5.307190638146972,2.5285394196782383,6.0,6.0,0.448484394035717
07-06,4.9870962860658015,12.244416399271774,-13.397524910723549,-1.5791536507503832,4.031032809484293,-4.302760443841942,8.577977261061639,-3.892330007397865,-4.500292482941843,7.465325538098572,-3.110185333696064,2.222595163075052,6.0,6.0,0.7288497189754573
07-07,7.552526278302627,9.494714425302623,-13.753400945920339,1.777948894058047,3.9500339066304693,-3.5708732474728,6.959915375653014,-3.5624711909576328,-7.256787146945413,7.454265767681094,-3.135914660444339,2.1582129856713257,7.0,5.0,0.6723475367965565
07-08,8.006813166055652,8.249114887118578,-17.541197614805043,1.680835434547339,4.111895214753518,-3.905879001991422,8.204314764241676,-3.8526604372358935,-7.486307257026077,7.544236914431364,-4.298452833455666,4.044525480063861,7.0,5.0,0.39643655972482383
07-09,7.9500367822585805,6.372319537968255,-14.59494512550609,1.2904461484317895,1.8675759937545062,-4.0313720703125,8.247722055562658,-4.454282656054806,-8.35686018715189,7.929133864665371,-3.972176142660533,3.3392813524091505,7.0,5.0,0.1322399627803742
07-10,7.310857931770428,7.061343613243764,-14.521316756080733,2.694726451166271,1.3752145200456711,-3.9372582529105395,6.449242558145974,-4.020750370263133,-7.525572453092742,6.852102804723067,-3.561551944009081,2.2118298902729947,7.0,5.0,0.032405666084328565
07-11,6.48330424934565,6.191500191329917,-11.791760764655773,3.166798988039753,-0.713069877868823,-3.785387388382983,4.95488602851482,-3.6979580369470266,-8.038227557324227,7.268850530933542,-3.9302729741441977,3.709679654814583,6.0,6.0,-0.015138079695397155
07-12,6.140845930072623,4.635280429561511,-10.606999965464622,3.5208515148602495,-0.1006903392135715,-4.589754845436091,2.857141868559182,-3.6478496574639925,-9.030759332756586,7.21070209284837,-2.3809546414333336,4.768701432348197,6.0,6.0,-0.10195712612650538
07-13,6.1144037222156715,0.7791567986413844,-10.31696601410608,1.3460021754043394,0.13369289914887755,-4.4256114890154326,1.953003908173009,-3.415830708086076,-8.60188284593148,7.812652443318872,-2.2118709341960487,3.9786650787433118,7.0,5.0,-0.5712154138074711
07-14,5.23172144920754,0.9495967678265811,-8.804640479999076,2.3219211181852066,0.5160668800831143,-4.033774027493734,4.1523017475328095,-3.364269848865612,-10.298468531759378,10.125242608123866,-1.5951734352032207,1.930860830514273,7.0,5.0,-0.23905124348730247
07-15,0.4833613244126119,0.99829522877688,-11.190876623219715,1.722429144318287,-1.719146079205452,-4.406249523162842,4.1523017475328095,-2.369666301207559,-8.981674451630898,10.761430936939123,-1.168722772794496,0.5902166587252774,6.0,6.0,-0.927358392542998
07-16,-1.6207095228819146,2.735040075746192,-6.453610449722118,2.628482080463175,-1.0542406349378788,-3.671872615814231,3.612645878863146,-1.8350992978273677,-9.68727125097651,10.203098023289886,-1.0668004638491542,1.1467121651340773,5.0,7.0,-0.42196883437605814
07-17,-0.14248856324632,5.4510763921080185,-3.0333275578720866,2.1602484557667405,-0.969222379721069,-1.6093730926513894,5.512863072785297,-1.4343804269129559,-9.50000111649676,9.608402914822301,-1.370423568505589,0.541442323494697,5.0,7.0,0.43456803779757375
07-18,-3.019842459697455,3.0983176524992233,-2.623732178081348,1.197951330694096,-1.734399649626441,-3.203129768371582,5.538325285341726,-1.5503891000785726,-8.159571584262096,9.627501905891304,-2.05153453756641,-0.98197214008301,4.0,8.0,-0.3218729369450471
07-19,-4.188477550817969,4.633854104366799,-6.0618094315368,0.41240984293815003,-1.309301887065362,-2.1555841224211623,5.047508157766273,-2.10310248659744,-8.58140895797755,7.994264910365918,-1.2637460264352947,-0.7602006339376659,4.0,8.0,-0.6946328401126753
07-20,-4.920914865877723,5.846585823510294,-5.130745198245995,1.59072582034723,-0.7262292042300426,-1.9485580206817839,2.7963584832022303,-2.97512130668296,-8.11136028507103,8.519578251138702,-1.2079884881347958,0.17573145144155333,5.0,7.0,-0.5076614616070266
07-21,-4.76750722103791,5.893350659458233,-5.309033933198514,1.3671536055426254,-1.4113211987346836,-1.3325078992130062,5.114322133264924,-2.51346370876808,-7.882368108119839,9.130847982087039,-0.7691068826851074,3.3371517747140915,5.0,7.0,0.07145976694248098
07-22,-5.150088356607515,1.683810650767217,-5.071318138878106,1.7176756572011187,-2.175776051059551,0.6856765455260977,5.234661824924016,-3.180297025876639,-6.996768845133603,9.139528009262818,-2.9335579535879037,3.0754147476955143,6.0,6.0,-0.33091991131387805
07-23,-6.209536900460761,0.14031235020777877,-7.174794155604755,2.3921592562806233,-1.6206086322917326,0.7791803245554275,6.046937529285911,-2.539432726099946,-6.652362915793147,10.565894109767312,-2.107593606174615,3.124488490166834,6.0,6.0,-0.27127973968008895
07-24,-6.12125326390689,-0.6017175231181771,-9.877052923497557,3.675164172930528,-0.13647531987784728,0.5921727664967679,7.114926471254888,-0.9979702496033986,-7.459458359726915,12.41449460832848,-1.107100579869022,2.789140849441283,5.0,7.0,0.023739220737678497
07-25,-3.2513199478501384,0.8665844165130911,-10.870475230576208,2.489630746957061,0.4776506045696707,1.9153504860763546,8.904714202846574,-0.6166597903539142,-7.048888442779309,12.432979210852048,-0.8036704181714097,-0.5706136742670385,6.0,6.0,0.32710684698473197
07-26,-2.769681586211193,0.252410752018762,-8.348800642938912,1.580713747110509,0.9403368712165797,3.512265656466135,8.755754227554661,-0.01245751166573275,-6.288472155011619,11.19430631927274,-2.7145222758811554,-0.9518170837256636,6.0,6.0,0.42916969318375925
07-27,-0.8583668970292828,1.253702417259039,-6.101840860827256,0.2952710894377704,0.034176454691585534,2.7816400286311573,9.761828730739891,0.7099261281911209,-6.216055064246686,5.553001919988494,-3.3587072139625502,-3.2655531580671617,7.0,5.0,0.04908529790051027
07-28,0.568657829555349,1.436054863817407,-5.627712742512644,1.9615500161322648,1.1158069829015027,1.5184740207953438,8.084980290542857,1.1333960041509836,1.5548415766867751,5.004635263683255,-4.903445879182023,-0.13572284582046593,9.0,3.0,0.9759596150625506
07-29,1.5638307241829075,2.0059203894313127,-4.503584097561296,1.232637567191962,1.6809547348894485,1.4321684518417102,2.1097673811297986,1.300339339984645,3.4478637558702965,5.5821644204836725,-4.894636723348318,-0.7803869486033003,9.0,3.0,0.8480865829577365
07-30,0.5402292766587171,2.06912200291905,-6.073207274836868,1.386987895135826,1.8820348907311317,2.2505512819820095,0.413099416257903,0.15492221533744704,4.922465115374421,5.547361619321464,-4.366518102592777,-0.016968591538303133,9.0,3.0,0.7258399787291684
07-31,0.9923512454656733,1.0906602148209286,-6.516288350633468,2.4766000155920684,1.8820348907311317,3.8401045109364857,-1.3151953448723097,1.4902633632714097,5.011733328653016,6.362555190882723,-2.0146669855710475,1.6981017592853247,9.0,3.0,1.249854486546828
08-01,-0.5637000155576861,2.573861947233876,-5.154639175257731,4.0171560211218775,-0.6721585232076355,4.169932292264064,0.1780456140433863,0.2579372907857007,2.3550270577154215,6.362555190882723,0.9019638536604295,-0.2534665851730105,8.0,4.0,1.181042914042618
08-02,0.6128167447138818,3.180605725745305,-1.4015816232478486,5.284709728906551,-2.2485172984746877,2.1052626455539816,-0.8393248626320648,0.9822956045636735,2.6627218934911245,5.859764209233025,0.02541838874687368,0.35270252140337294,9.0,3.0,1.381406139833599
08-03,3.043475421480001,4.986882180925477,-0.7515720806930521,3.989255927705985,-1.6268478672700055,2.1988484549472864,1.6518123407708303,0.9693679376703043,2.6627218934911245,6.0638885031660745,1.1148645927472425,-0.2788826383403988,9.0,3.0,2.0019845555500724
08-04,3.2875268138982854,4.63692626854535,3.635996205914322,4.727410570943699,0.5802362000859201,1.933214701266675,1.6077644780301839,0.7625745719793461,2.957466778604003,6.930429625462622,-0.5151085652723568,-0.721750978809833,10.0,2.0,2.4852238892206846
08-05,4.230664696853384,4.527558266745801,3.846928073942877,4.618324261779648,-0.7729842247424173,0.8456666833134335,0.33314506645938524,1.6816497590864472,2.3255828615210388,6.370174099625209,-0.05982368476731283,-0.500979862530965,9.0,3.0,2.2871588331072106
08-06,5.443277888818486,4.118293549342946,8.064191057521962,4.069095957724074,1.2454333855811286,-0.04878643434381346,0.9704492469011939,1.8427839346577741,3.1601176269726237,6.61349358868298,-1.2003365446440935,0.09339643720156884,10.0,2.0,2.8642841412014026
08-07,4.385487255306609,3.3134525841224165,6.718883152254457,4.502958628549003,1.195618077230463,-0.1463655067997954,-0.5407815791932734,3.103933879228267,3.2959324161890127,6.820835408080623,-2.8402371290569897,-2.837186048208484,8.0,4.0,2.2477109281418586
08-08,4.632154571114219,3.3561502032174855,5.9630224036776935,4.7510049336314735,-0.19926756800447207,-1.2337697322342547,-4.125087982312098,3.239333094785534,3.924761698810614,7.3517487364951934,-3.8630596592840427,-1.703754406184213,7.0,5.0,1.8411030244760942
08-09,5.277403850273497,2.05862205687218,-1.7352214395791346,4.922720900341343,-0.016633374532836746,-1.635055595969419,-3.3860727613908175,3.11144461742409,4.226659630236605,6.505890314252374,-2.740775051976667,-3.129134550243637,6.0,6.0,1.121654049642298
08-10,5.660373478413851,2.8571438379423943,2.720652205357541,5.29612926986492,0.03320129018325388,-1.5686259354656702,-4.764759375130391,2.8054029579324786,5.352996357788117,7.340031466333199,-1.6857245339477471,-2.3353434148376606,8.0,4.0,1.809289800369524
08-11,4.92505386115564,5.804278485425309,-1.4353002668490225,5.107269261868004,0.29801374276231496,-2.0019711982212387,-3.749250132810733,2.958428652122756,4.654674480796022,8.085567615682113,-1.6426777870207652,-4.102013999605659,7.0,5.0,1.575172726275395
08-12,4.416492234804006,5.5568080501868256,-4.366812299816886,5.071228691855199,0.31451519150618995,-2.2131122526575306,-3.14936782320036,4.882956579565532,3.278111897547522,8.135528130991124,-1.2910292394882295,-5.305864972914765,7.0,5.0,1.2774545156982189
08-13,3.7205550506958556,5.188040206598614,-4.918735792009668,3.866132085667869,-0.14935306188969827,-3.4590173940189546,-3.524292836481433,4.175657922703457,4.437526947124586,6.767194249529891,-1.7629268180833177,-5.689314506993748,6.0,6.0,0.720955504403621
08-14,3.694649713700815,6.602727589271384,-2.999361620411398,3.551438146721307,-0.08297884691435778,-3.5081957207351433,-6.5091530057663345,3.2795255427367302,4.426508746847983,6.095759862063917,0.025190067158793315,-5.5496130491595475,7.0,5.0,0.7522081187928457
08-15,4.535463104549002,6.121075416225381,-1.679964836212726,2.7986889104522614,1.7590401395928557,-4.043390989978519,-6.958641299462951,2.8813968681795847,4.3794787097666035,6.685084933919677,0.663197529644135,-5.486174495621129,8.0,4.0,0.9712711659211811
08-16,7.014722995772274,7.83623453527783,-5.104048057997452,2.2196516027728954,2.113255383434074,-3.747147600255295,-9.259539627002896,4.38875069514741,3.4550471829646745,6.3812158402812225,-1.1184004806031045,-5.242078459997623,7.0,5.0,0.7448053341495008
08-17,7.089356474468708,6.409134977231146,-4.644028173105206,1.9372336704608442,0.6873425598056785,-3.1255065670862856,-7.9303875929648635,3.5873294401843245,5.095913583839719,5.150447101970785,-1.3061456776557294,-4.999109497525582,7.0,5.0,0.6626316916352949
08-18,6.611352195799321,6.606677009441557,-1.0295671200348875,2.204601450071875,1.480125351470125,-4.909389628963192,-5.867196483168313,2.2643413884702097,5.661460957178841,4.529420224778922,-1.4943050384664365,-4.134275999420356,7.0,5.0,0.9936036922631389
08-19,5.728049664580291,8.033362021709124,-0.40886296905094516,2.261310293172083,3.0283163684731536,-8.218020705064992,-4.775623968467328,0.5569230802675357,5.584520717373486,4.555995347180646,-2.1670800471133114,-3.9664360549558797,7.0,5.0,0.8510378123419887
08-20,5.540684317469394,7.904525816488915,-4.522051803368942,2.506264244901377,1.559387268985535,-7.57678333722678,-3.1989093990880115,0.4004717392101384,7.271278549567669,4.891355377615518,-3.060250390977526,-3.8427616791407915,7.0,5.0,0.6561008920363748
08-21,2.1691299850302976,7.9726164038726735,-9.114273493194595,3.190466819831323,2.2893120128793734,-7.880530063980188,-0.5502718000254389,0.336093761865454,7.848018113147122,4.361110263400607,-3.4503713997243897,-3.6059861157093747,7.0,5.0,0.29710954061607214
08-22,1.7164976473392732,8.195640605255223,-4.568862331723997,2.2871394476805187,1.1446560064396867,-7.230738190512918,2.6919707865358102,-1.3140604731287406,6.8300393518875175,4.462962680392795,-4.4993519809804186,-5.547188498780548,7.0,5.0,0.3473920875336834
08-23,3.2961021919078535,10.271319118903463,-4.752522976115533,2.9021686660774044,-0.18416308587743882,-6.005657251199379,3.3036135290872037,-1.6160763601042114,7.408666694481266,4.712959572120949,-4.583011018666531,-3.980792175564931,6.0,6.0,0.8977172420875097
08-24,3.6111913248216116,11.678513653879143,-5.716164299329253,2.848406880806515,0.09978608386026636,-5.7944574215369835,2.26063648403956,-1.9314166455323787,8.009981401727702,3.072176112278715,-3.11940337134309,-3.9717206256316633,7.0,5.0,0.9206274648366789
08-25,4.262201320109598,11.50614128451814,-3.7231729492347,3.9185873792079042,0.3152980949239267,-8.091603725241123,4.571926872009353,-2.575218852653748,6.523712321100046,2.454042454374198,-3.800618049042792,-2.739601499841501,7.0,5.0,1.0518078875191084
08-26,5.1254425182641565,11.764703948339086,-4.345956277232962,3.6252652764942224,0.04991477547173715,-6.742324831413549,2.8683768374337997,-2.387789464546709,7.58636383133061,2.907028240593708,-5.410349495135866,-3.1483692916149186,7.0,5.0,0.991025505665276
08-27,5.34124509990967,8.990471272957706,-9.053318342417349,2.2639357134937974,1.7065424961548274,-6.809082035601975,1.485143620463153,-4.151241955295621,7.460997674009233,1.1161561592421756,-4.309749741063676,-4.409462121065828,7.0,5.0,-0.030696846601157235
08-28,6.882698672528265,11.735566557721064,-6.0753573876204685,0.4102345968086814,1.606155390865406,-6.84245427137877,2.7574296203940527,-3.72613817612561,7.471459838529693,-1.4352677670217366,-4.6188161902192455,-1.381737604476109,6.0,6.0,0.5653144400004352
08-29,9.478669082440751,12.30209626340051,-5.096477117496995,0.527447675340997,0.9369271691519213,-9.545765064031308,4.127528377035849,-4.94205288338165,7.197827712108995,-2.2261265573701268,-4.472869964218207,-1.3526255150053565,6.0,6.0,0.5778815981646152
08-30,9.407113631234882,12.208175446339597,-3.2847512192386823,1.4065196822063952,3.479400822692384,-12.243479853091033,4.548673796732474,-4.004756321224317,6.100044536460752,-2.2261265573701268,-5.081251643163404,-0.2965083627638755,6.0,6.0,0.834421163234587
08-31,9.621450471411935,11.514761427842735,-3.6337517779340236,1.2092820876713841,5.012207962269436,-14.880741482625744,3.990882134560087,-3.066348906332498,5.375735589847345,-3.091463423336453,-2.853949662655239,-0.7060240288291834,6.0,6.0,0.7076700326574814
09-01,12.213936936353683,9.156578290279743,-1.0059570676998746,0.44895480049088443,5.733203071767803,-14.452920046271556,5.554751283045835,-3.053129059985229,5.209629022082998,-4.653217566686259,-3.280106259653226,-2.627960747539133,6.0,6.0,0.770313554682139
09-02,12.625353367115327,8.200553718669356,0.5182421046879733,0.8746370384188573,4.686483781712851,-13.947742957290208,4.578720964332696,-4.7228568556355786,6.292206853127107,-4.1409649186029736,-3.8808831471258984,-4.998282010302197,7.0,5.0,0.5071223282589429
09-03,12.213936936353683,6.682279404524073,2.2203906864917844,2.1301105303212426,5.320360929135218,-13.2944895134887,3.2869254710962346,-4.511377561812848,6.397573965837059,-0.7386352183404733,-3.6199881016597155,-2.3445514172956474,7.0,5.0,1.1452113425968262
09-04,9.01857150417151,6.800677084314848,-0.12631868061267942,3.7735849056603774,4.914845935116836,-14.300844917737507,3.4725293636982477,-4.27821819788888,6.439652889142192,-1.2949920527743015,-5.603187972897566,-2.0457322999221716,6.0,6.0,0.5642139633559088
09-05,6.775142176070522,6.939995457879325,2.07946948297145,4.5094328106574295,5.125709276885622,-13.096262311414025,2.6059561716168163,-4.0188502675132005,6.038373099615526,-3.008954259301058,-4.962324124849598,0.24924874888746337,8.0,4.0,0.7697446884588562
09-06,6.874495337795404,6.0370831664026205,-0.10524742901360294,4.150944835734817,6.756974786401269,-10.238497859317997,2.8146896425652193,-3.896437757241415,6.489842098224753,-3.742144763661312,-3.7151386428855626,-0.7902701004396815,6.0,6.0,0.8863577762137093
09-07,5.718907335682474,8.039665768440548,-2.1048201122473307,2.370117482401147,6.393412230780558,-7.778144733068405,3.504044964615712,-4.981691149793,5.632051861972712,-3.481351299203176,-1.1207333235736505,0.7694951546886377,7.0,5.0,1.0800795150580187
09-08,4.560344668637527,7.427728430257272,-2.820459271581484,2.350018224399092,6.92367862156589,-5.648978097098214,2.6477830696895737,-3.5695549264009863,5.437725324924933,-4.064415142037151,-1.0178091032329541,1.4268730555945728,7.0,5.0,1.1377445712265055
09-09,3.959587125156801,7.195610659064426,-0.2711179688149498,2.795742049280257,7.923406767049909,-5.429940431163402,2.991275061009473,-1.9612976699064228,4.573984687496739,-4.414731445609189,-2.0915435757047023,-0.1274006527947104,6.0,6.0,1.2619645504220194
09-10,3.686506044503641,2.200003729926215,1.2579925535916319,1.1603142230595391,6.093128474551001,-4.868791476333169,4.236437624324328,-1.7496091369213238,4.391773656436439,-4.706787460507337,-1.4824894121596055,0.4671270870920609,8.0,4.0,0.8904671589636184
09-11,4.54667395738787,0.8213072988919934,3.4288033484392813,0.44729589736788744,6.06156313351224,-5.281400816769557,5.456584850178041,-1.961041735364245,4.488330202787623,-8.433248059147017,-1.0735234534810485,-0.04226443478120601,7.0,5.0,0.7049233490851553
09-12,2.8679588334705013,1.2596678338656768,0.9720732592317007,0.2722664228583771,6.6298295965357,-1.48915830660533,6.554622136078709,-1.961041735364245,3.7179353542219595,-9.302555343983688,-0.5793646496234365,-0.6168173775627207,7.0,5.0,0.6937846685936008
09-13,2.762721272083813,1.0190498243075825,0.9193069579687388,-1.4002357960758618,7.158594955080991,-1.3565894338304023,6.423564705502194,-1.6651426882898543,4.508981760754631,-10.731412537241706,-0.9033622132865123,-1.3791952658002222,6.0,6.0,0.44635679509778253
09-14,1.020123868803444,0.46490833071813603,-0.5720097547145799,-2.022561167953218,6.160546296942519,-3.958919052400609,5.961939266360852,-1.4422527231297904,4.09085230486782,-10.543982830134006,1.1876433059924996,-2.965845447402137,6.0,6.0,-0.21829646683742263
09-15,-3.8667765173138586,-1.2176291212160166,-1.430032179834865,-1.9058797974159627,5.999686121207149,-2.4653033820950254,4.787745142751423,-2.1371508516523336,4.756018935034686,-10.900759640168673,1.4551553601661804,-5.332032836415291,4.0,8.0,-1.0214132305793822
09-16,-4.741745105010228,-1.062659677643273,0.08118716288958476,-2.1442540061943705,5.764727883546909,-2.5561222423294647,3.9109222244532877,-1.730466329244986,2.8317955818578153,-11.122203456810272,1.712934556328292,-4.833541465359939,5.0,7.0,-1.1574520727930537
09-17,-4.261920148255286,-0.08843890323277674,1.2416051233254264,-1.4520812736553692,6.3719366964326385,-0.7537324403912014,4.773834903296759,-7.65544265170266,1.1797324240888032,-9.795797608884419,1.878404917207142,-3.2223632406876423,5.0,7.0,-0.9820218502048821
09-18,-2.6860633446781614,-0.913546875343991,-1.1465483074100244,-1.5990634055070756,5.254877407840042,-0.9339664201624919,7.1744471588994125,-10.03639127087938,1.8720538177684893,-9.444877736257755,0.7966431431800434,-1.859392977444459,4.0,8.0,-1.1268190674996126
09-19,-4.644574698003145,-1.071188412242343,-5.0216442781647475,-2.2035902788894743,5.427943185018886,0.8912643740403758,8.061447120702086,-11.314071867770132,2.1164695412517966,-8.993721313539895,1.1740054724351416,0.5609601281369065,6.0,6.0,-1.251391752252045
09-20,-5.782995820542139,-0.8461390991011805,-1.8839952540774676,-2.7301122449404533,6.109728428768164,1.6709525827136238,10.684104380433123,-10.998312539682642,1.4758046693533493,-8.366024770390453,0.08463687924642545,4.0104961462488635,6.0,6.0,-0.5476547201642322
09-21,-4.971590801334581,0.8211334560707798,1.185438936058037,0.8658063051423033,5.462510403991323,0.8585757058595864,9.537191919577449,-10.575296381330316,1.4414850514148376,-6.919945113908161,-6.598066159569139,5.110405432516995,8.0,4.0,-0.3151959371259072
09-22,-5.939457421955293,1.3537518680883638,3.0482692426800653,-6.385127783875233,5.742821785302092,1.7814164434080202,8.862495146327989,-12.041738770471188,1.0161631280870527,-6.339107907712849,-8.677648351953868,3.9647216293233174,7.0,5.0,-1.1344534160626276
09-23,-6.6818964077686935,2.0417264882462023,5.546457328325367,-5.99960432210514,5.299462712619456,4.242615947256965,8.94442544244079,-11.175388545229433,0.20703968267897574,-8.343149027435643,-8.687644481741833,5.804286841643498,7.0,5.0,-0.7334723617557906
09-24,-5.111367481808568,3.0073547229285404,3.5890075066454044,-4.964118193862506,6.151938372226018,4.148333461608824,10.419233282870058,-9.312412204808366,-1.0599926363233303,-6.032659818778044,-8.238199331854865,5.703486553104343,6.0,6.0,-0.14161631400437433
09-25,-2.0190724166684744,3.920723323168477,3.0921460562783856,-6.2755593303973995,6.384968540749464,4.399747429155364,10.782843428198182,-5.018156377847268,-1.213253500603267,-3.4725539955133984,-8.795328405060749,8.795057249941962,6.0,6.0,0.8817968334501066
09-26,-5.3893902974721275,3.754859026191922,2.891967631257382,-5.907611023134299,5.903375624695912,3.79310062364323,12.435162905689104,-3.063110325137728,-1.1897779110303883,-3.3203290300674064,-8.61265913705548,9.09384951661057,6.0,6.0,0.8657864670158909
09-27,-3.663612932406464,3.6509017238739396,-0.9325956419307662,-5.519216811118844,5.929661458099914,4.662647521365406,11.45617083778866,-3.5015274025380663,-0.944823896974967,-3.072967090460622,-8.473488586628182,8.776485929443863,5.0,7.0,0.697302925709489
09-28,-3.894291186288058,3.0102473160094716,3.242896925392849,-7.126576743497213,6.412449699431553,5.797105835002567,12.17141193622104,-4.659832208172868,-1.5747094614010766,-2.4826411857122985,-8.669721970864405,11.950474043617346,6.0,6.0,1.1814010833115758
09-29,-3.9488376523783635,2.7327044729442607,1.5048729967785952,-7.746774646483143,7.092089100764108,5.378489153131389,11.114146439267678,-2.7958972933781,-1.8286873328200866,-3.336845044576981,-9.090067186170025,11.74672658261358,6.0,6.0,0.9018266324744092
09-30,-3.8932190253681616,2.4978692993832876,5.957898591694079,-8.03926151156007,6.630435336321819,6.8589804075457135,9.718038203364202,-8.37183722719414,-3.4978135239840267,-5.895647241734267,-9.452962125435661,11.29222129393238,6.0,6.0,0.3170585397470962
10-01,-1.2791965967298413,2.8743032674576607,11.954727862157243,-9.734888661813967,6.145331710480089,9.068589862610018,7.9660551455077835,-7.66875748538124,-2.6755473928131974,-5.264699681820422,-7.343546087088805,10.900402472830173,6.0,6.0,1.245231201282958
10-02,-1.4606755057635348,1.3475308726420863,11.187213274196289,-12.662897264172768,7.389764678468266,8.961173088805593,3.983050244733273,-5.2373804410809095,-2.6515554571692515,-5.94631620880086,-5.227144302108412,11.56649327296779,6.0,6.0,0.9374380210597968
10-03,-1.9722196790907118,1.3903962776907566,11.93661086405994,-13.010420818105079,8.23474742236863,7.45188077798919,4.348424394478099,-5.423825982424944,-3.4510959667655445,-5.799371142981637,-4.898736528589358,10.234305694011848,6.0,6.0,0.7533912760534324
10-04,0.0,-0.22079591984907643,7.709796320559762,-13.618593251697945,7.378307510676111,7.095483817516844,5.11788472968714,-3.4389000812716666,-3.1118342632810414,-4.907909891231802,-6.209831207158468,10.234305694011848,5.0,7.0,0.5023261214968088
10-05,0.5418606441784526,-2.4035285320018045,5.62216031552701,-14.781660634364178,7.206658367615089,8.01772074762938,4.946502012243478,-3.4524954819403613,-3.1118342632810414,-2.271206443958825,-6.002181274165805,10.234305694011848,6.0,6.0,0.3788584292911035
10-06,-0.6284244986956028,-2.3373790715691065,3.927245729498531,-13.466121250556759,6.977463017810735,7.324201381743382,7.830586921017221,-4.17289616359778,-2.868425505975665,-1.3078654550372526,-5.63712291747394,10.226473622239917,5.0,7.0,0.4889779841169734
10-07,-1.2841563942562746,-1.7861111368134703,3.6889506504014986,-11.653177206508667,6.4140411667393,9.069876449237753,6.468745717362053,-2.799670436708689,-3.2807910198865753,-2.367368184583473,-5.484160686510194,9.897341268716708,5.0,7.0,0.5736266822658308
10-08,-2.02186259376495,-2.133268924488596,1.6447993356406454,-11.653177206508667,5.9320722362401614,7.573659607329208,5.175000729899174,-3.1228721992016744,-3.4983009489477737,-2.367368184583473,-3.685638612042852,8.69054456096096,5.0,7.0,0.04446565004434685
10-09,-4.3120013771046715,-2.5449754296011795,0.4425691909296549,-10.027675031008103,6.448581892696488,9.671448836455571,4.6416913067046615,-2.30333935031963,-3.4983009489477737,-1.3517435481841742,-5.221324813038464,8.46328892727998,5.0,7.0,0.03401830465519673
10-10,-4.430381407791241,-1.5645397947440898,0.4425691909296549,-8.984452408627536,4.632961516277993,11.196911196911197,5.007405000483192,-2.30333935031963,-2.2301829035796703,1.8119062734967353,-5.067751368570064,7.499411996749032,6.0,6.0,0.5008764951012975
10-11,-3.462378536524894,-1.5645397947440898,0.3136138827858343,-9.154777784347202,4.134161894327548,13.701994436284437,4.4414337807282,0.5563626716525386,-2.103073348243595,2.6267835566101074,-4.519315940142239,7.499411996749032,7.0,5.0,1.0391397345946398
10-12,-3.462378536524894,-2.72826808130801,-1.8398436540443763,-9.116078189023893,3.551400136568545,14.018972369306601,4.4414337807282,-0.2252030774284018,-2.253289724535133,1.7874381392474337,-5.203410447351173,7.499411996749032,5.0,7.0,0.5391820593653275
10-13,-4.190640000911097,-3.5643540257225577,-0.8572022406779586,-8.042843168755802,3.6114566811538866,14.018972369306601,5.546574023821605,-0.13246585898909763,-3.4828164436960893,1.6843118135702033,-4.41640528225046,7.875560695626668,5.0,7.0,0.6708457135396587
10-14,-6.5187652082458065,-3.388340791367118,-3.665816896475356,-7.6585054975861,3.6114566811538866,13.605021771303052,6.206247558039069,0.026304104744510094,-3.118843410326087,1.4851971060542335,-4.41640528225046,8.753231028539961,6.0,6.0,0.4100650969653157
10-15,-3.2593878283045536,-0.6240522771944165,-2.1285781857541926,-8.75079110013655,4.862515045148781,13.22199739125422,6.179316657676005,-0.170891618166805,-2.536320765296721,0.14662905318096625,-2.327649967492367,8.831599575704985,5.0,7.0,1.120365498384946
10-16,-1.819668628994476,-1.035605982169767,1.370431581194398,-9.520804129814511,4.225572634215183,11.674575622943536,6.7183200536493235,0.3530852205450702,-2.3357481230689494,-1.5091797685733186,-2.585291156029513,8.823761525252333,6.0,6.0,1.1966207374291091
10-17,-4.511275240235122,-2.0483818999969077,2.3035766279095546,-11.391336612786276,2.5167044857211094,10.09342940753528,6.692446513124725,-0.6870991556151507,-1.6217517564337511,-0.9516465206058925,-3.5447810764983476,9.764124304425335,5.0,7.0,0.5511674230453797
10-18,-3.903654178038854,-2.5399687072861643,4.370941485894783,-10.844892074056757,2.709774294424879,7.984672926394875,6.028471120827458,-4.3864431143567835,-1.1877580453692815,-0.23070063115034228,-4.387128306223052,9.764124304425335,5.0,7.0,0.28145325629050794
10-19,-3.359948663905242,0.9820646519516474,6.45796915705782,-9.566672914028606,2.110288001425282,7.772653882020045,6.642661432368172,-4.509432957086793,-1.2334420524988794,-0.4525770126229197,-5.155189651895601,9.764124304425335,6.0,6.0,0.7877081814341883
10-20,-1.6451835866144202,-1.1742084442118852,5.591652099615646,-10.29998710028901,2.185627146317601,8.125474648169345,4.653053465719272,-3.8125183163329615,-0.8935564454358083,0.07688786997428325,-5.2584584209585135,8.34574208521318,6.0,6.0,0.49121041676389393
10-21,-0.41129066674253517,3.9282667519082644,4.132068163162244,-11.9914823783333,1.027877054699587,7.797682193856907,5.491677995177166,-4.1576697555689535,-1.6324204681330376,0.07688786997428325,-4.604740026230063,7.734505680882665,7.0,5.0,0.615946867887769
10-22,-1.919377364442777,5.177855549108067,2.6889085600981777,-11.682242536303633,-0.673870053634715,8.79120898051972,3.570944648655186,-3.5642253937655277,-1.1015231065134896,0.46907703241820764,-4.365722791290941,7.287832463973356,6.0,6.0,0.3899054990684691
10-23,-2.495833823922848,6.159272388047908,3.2585330125762195,-9.439151501529432,0.7208946705374505,6.999851730418556,2.8042439208649195,-4.933228239407456,-0.03370649359199438,-0.7188632661930958,-5.000898218224451,7.256486240843501,6.0,6.0,0.3814667017016065
10-24,-1.0676140232160636,4.77693694422683,2.2283519499490043,-8.82539295014881,0.39178811255227863,6.985130760396325,4.102213160669922,-4.336039045957692,-1.0774692042256653,2.778317993512259,-4.974054051987997,7.953923264110972,7.0,5.0,0.7446744091567803
10-25,-0.7641888208545672,4.293567748960655,4.559813225915393,-8.571426956741899,-0.3121050913348733,8.889228817463449,3.9342469966583624,-4.79041437432686,-0.3629349001585066,1.602876905718045,-5.297008009671825,7.953923264110972,6.0,6.0,0.9279649004781954
10-26,-0.6543016951274835,3.3404739781696398,3.3754423403536764,-8.326344788785928,0.803840242442312,8.363689361336954,3.124993845172423,-3.7969422409798352,-0.8733177820708445,1.2496277451426185,-5.460380993223548,7.953923264110972,7.0,5.0,0.7583919397117466
10-27,1.1985797812103243,3.2762367644506165,2.7437808800535235,-7.505236811524144,0.6502526594802012,8.889228817463449,2.91462072994554,-3.8105542929307354,0.5091615322773554,-0.3909061162327628,-4.94539628043471,9.372305483323128,8.0,4.0,1.0751727622568155
10-28,3.4867851027495123,3.147754168496074,1.4640985425194282,-7.325240873627969,0.17112727510972725,6.331242435068473,1.6830915792491332,1.5902969726520124,1.6382280050157842,-1.0594319900025757,-5.592276550210629,11.96615014452265,9.0,3.0,1.458485400961802
10-29,2.6423247894226787,3.999997715261546,5.440564451878817,-7.415159146143907,-1.2656273743790178,6.66768718618732,1.0125964348971923,4.428090379389632,0.9395047047350849,-1.510089714010977,-5.2767188926974615,11.495962776255418,8.0,4.0,1.7632611092330273
10-30,2.754062137644484,4.781130332216688,3.9447285946705026,-7.799031129437497,-0.5537134850304776,5.627772349785866,-0.17703561606659257,4.248757730884537,-0.03470875759684401,-1.4410111448100142,-5.9340857451231885,10.59478427066492,6.0,6.0,1.334304128150199
10-31,4.510665509256846,4.435909668227907,3.40313860632653,-7.799031129437497,-1.5029340158147522,5.237513110117788,-3.925337066144944,3.9397609210259725,-0.4383403422728115,-2.031420767634815,-4.9569173369299095,7.381865154682233,6.0,6.0,0.6879060259502122
11-01,4.406131828166997,4.170224589901673,5.695041477725992,-11.688041641707128,-0.7728672744109144,4.501856242093533,-4.3693977058606155,3.3264889851600183,-0.8305470070666726,-3.252276583683418,2.9689957791099855,7.381865154682233,7.0,5.0,0.9614561536759735
11-02,4.719038596391188,3.750535803092292,3.572157460793066,-4.851696776508125,-0.5965479804771342,3.3354228746592995,-3.6408482767550954,2.9158176506896742,0.10382277627225805,-3.4689028783092413,4.65034921031048,7.381865154682233,8.0,4.0,1.4892511345700747
11-03,4.217684998804209,3.4290580354766695,0.265362448787944,-5.861040296928502,0.4505218318368682,3.2748357295234976,-1.7835333457010203,2.984257651065661,-0.6599509976822082,-1.5347827105169933,4.9422686677410015,6.3082854112178355,8.0,4.0,1.3360806186354137
11-04,4.707481747581845,0.9429889158762627,2.3432845513547793,-4.833256752227383,0.6049315685807427,4.520381039493854,0.29951477256509085,2.1244455068711083,1.2991547932866594,-3.284669387487376,4.128804912374367,6.707936304091976,10.0,2.0,1.6300831643634937
11-05,2.965986809762968,2.088170600407282,5.216885439081492,-4.436494395980468,1.9975461204389113,2.482382307006779,0.0,-1.9196510626910683,0.8316983056962768,-4.022865748210356,3.908735494671231,3.683094526888459,8.0,4.0,1.066290699755959
11-06,2.1264857145325324,1.6344734616591754,2.999400220643745,-4.347826431987526,1.0909635287285149,2.2372093953079575,-1.383891461994034,-0.7181554978055671,0.843154702581393,-8.902607450835538,3.174747001374086,3.1423886192703163,8.0,4.0,0.15802848345625467
11-07,-0.27831470434665123,2.1330482662744172,7.05115999618456,-1.7682514656071748,2.566075501930443,2.762353926475154,-1.884399277723477,-0.4730987540409337,0.7065916800804847,-9.959205604328842,3.2543334326027207,3.479353044565445,7.0,5.0,0.632470503505512
11-08,0.4421106755555716,2.2981238574205634,7.2960576105473365,-0.41606150241142514,0.8181518821921807,2.3536336456198943,-1.1024187074532985,-3.244271038190444,0.6950057470116512,-9.980124783984113,3.761259099312484,3.479353044565445,8.0,4.0,0.533401627515487
11-09,0.7438029295824539,2.403540759674074,9.651476058428726,0.3527664946873127,0.9791912234882846,2.295414175277055,-0.19361000466774203,-2.385496163358897,1.8186026427946367,-9.7673914015818,5.549754092055919,3.479353044565445,9.0,3.0,1.2439503209121223
11-10,0.9641831445653646,1.243938749297261,9.038684623453898,0.6225342303584696,0.9791912234882846,2.295414175277055,-1.0095469251565972,2.6308618990161867,1.644848996672336,-7.115034580404574,5.549754092055919,0.0,9.0,3.0,1.4037358023853004
11-11,0.9366395584955464,1.7077827705656108,6.9322149788591965,-0.2721965508458189,1.7160171292366595,3.232503301093184,-1.0372009754145892,2.0583453157951555,0.1982343681262836,-8.786737918929607,5.885412805651093,0.0,8.0,4.0,1.047584565219393
11-12,1.9283767979388446,4.065889908598389,7.683461251292354,0.20838150723222537,2.997436183257183,3.3659611362457773,2.088223700481208,-0.6710565813352318,0.3608907828655703,-13.455964443107765,5.674193276171505,0.0,9.0,3.0,1.1871494599700052
11-13,0.46999772615766633,3.8437438764226117,8.368203447418267,0.8203605009209506,1.9581308385439207,3.6921788301052456,2.6408963593579884,0.13584903313671653,-0.2342158914061692,-11.56151356485113,4.453935728088454,0.0,9.0,2.0,1.2156305736578767
11-14,-0.9348368506269406,4.243813040312932,8.263518878066458,3.155237633809291,2.2141907429092824,4.040846397561484,1.6371139531732137,0.8898423203564019,0.011682008770862878,-11.234614323991309,3.7130672113529752,0.0,9.0,2.0,1.3333217509745543
11-15,-0.8793616383385991,4.442598029883392,6.359605465169587,3.6600791858598463,2.7698734073396394,3.5072166696310094,2.1842363727429706,0.46120993170801977,0.1635124797447245,-14.187648195195452,4.232712613890242,0.0,9.0,2.0,1.0595028602029481
11-16,-0.9625920468809079,5.645831425984701,6.764305960337748,3.3075189782584764,2.907677466894653,4.2409973866142625,2.6202085594510054,0.2034746654843796,-0.5722936791065357,-15.05899709765846,4.068857974060721,0.0,8.0,3.0,1.0970824661200036
11-17,-1.5126491414413346,5.520836512247721,8.05550270638402,1.7374959662990772,2.907677466894653,4.2409973866142625,2.7957856148406766,0.1899069280117169,-0.03503711555074968,-13.868135950735091,4.068857974060721,0.0,8.0,3.0,1.1751031956354727
11-18,-0.6600601202993509,5.270830790201808,7.4388141371256005,0.8449546358040027,4.072264252495567,4.566814508128686,0.8238797984990784,0.09495346400585845,1.4755029156159942,-13.46278723601428,4.68210582093926,0.0,9.0,2.0,1.2622727472085187
11-19,-0.13751165077349387,4.724076743990038,9.601830356951437,1.634540180304425,5.04350138929018,4.80175729270987,0.4862244812264241,-0.7463636913305896,0.9388010779482198,-11.810354678849691,4.428301872474573,0.0,8.0,3.0,1.5804002811617828
11-20,-0.055067340120385624,3.2583545238685216,9.047340562905143,3.6710360181443633,5.780855788349045,4.919234286611844,-0.9100762618165191,-1.0755628976867508,1.7699125131800177,-15.668659575960334,4.255324062847151,0.0,7.0,4.0,1.2493909733601747
11-21,-2.6301023574806646,4.364086701443424,9.238711035070127,3.712054185601614,5.471168290880528,2.60322854443833,-1.6517507543543994,-1.6707768786496786,0.7455000661523351,-14.770458693444619,3.7363774366040263,0.0,7.0,4.0,0.7623364646884186
11-22,-1.2141241896531814,3.764113861454853,8.703946577053683,2.3379807811539406,4.364666207440666,1.9654991117736613,-2.4556001638499225,-1.6974194393839337,1.5368780017934633,-15.214017713765388,3.131595310553189,0.0,7.0,4.0,0.43529319538091915
11-23,-1.3259655583425793,5.114823976812998,10.440926292096739,2.717061920991099,3.9042642781240406,-1.1455075561123234,-3.0417194933323963,-2.4518383571569893,1.0781080572144197,-16.623645523363297,2.70957904461435,0.0,6.0,5.0,0.11467392346217194
11-24,0.653065791746386,2.985386763303508,11.223518107688783,3.6880251022768777,3.3984994529781485,-2.237516028622563,-4.355153780317813,-2.4787771179842695,-0.27903483061121287,-13.85747533641339,2.718111372700939,0.0,6.0,5.0,0.12155412472878287
11-25,-0.19047536006590135,3.23591440998261,10.47161186047005,2.8658533039580973,3.846729215294875,-1.5401336069850058,-5.184043868482444,-3.538857262722407,0.19561131190466408,-12.76781498945821,1.7359017361584919,0.0,6.0,5.0,-0.07247527082876509
11-26,2.28571470091943,2.3593905999175973,7.116680299519591,7.598608299341336,5.62966777515287,-1.5712541310062267,-5.38072747209049,-4.040817987351191,0.5275219043249394,-10.87468580346002,0.5829391052759273,0.0,7.0,4.0,0.35275310754531347
11-27,2.28571470091943,3.144790301555098,7.009077049517701,7.5615453474184315,4.77936106140863,-1.5090249519661254,-7.525802521834166,-3.7866461780285245,-0.4051377203308926,-9.435172633816565,0.34446156636953223,0.0,6.0,5.0,0.20526383510104565
11-28,1.7944531520311446,3.2672834779297015,7.2954780748166765,7.033994631995009,4.823341093221449,1.3008631105910213,-6.582722215677577,-5.012361358384262,-1.447420940430876,-11.285831240378071,0.9715584369026985,0.0,7.0,4.0,0.17988635188474314
11-29,1.874497190067757,4.035968878068968,6.138996818557149,6.662758552323142,4.177124473881458,0.5651485255586027,-6.674310630876189,-3.6144569503793753,-2.206139173624434,-11.093276363707295,2.2152458001069295,0.0,7.0,4.0,0.17346309333139245
11-30,1.9277840452650956,5.248967954248326,1.949803738241361,6.308967829761928,4.526086249712727,0.41304002006492324,-6.643767557767781,-0.1916749560427175,-3.1983256119145014,-10.012688768624766,3.264529535719147,0.0,7.0,4.0,0.29939353988864514
12-01,1.5722364487763394,2.821577985113342,2.355207382190474,8.013323039231441,3.2176316417246396,0.10741092034825415,-8.794075223545322,-1.4238785631042528,-2.252831033531399,-10.27129249734888,3.605847609340322,0.0,7.0,4.0,-0.08740352423375349
12-02,1.1385149793826221,1.431540312208432,1.6409237193829116,8.354477488855432,4.805859017284819,-1.160990739497388,-7.284859057156994,-1.7935344224718672,-2.0985478940217392,-11.174968180406438,3.547744092507684,0.0,6.0,5.0,-0.21615339032771042
12-03,2.2499268909999617,-0.04149472499398206,0.42743581792385793,8.92337253579248,5.573530758128447,-2.8328202388236523,-6.602808272473089,-0.06817867327818418,-1.7329020821478507,-10.178253110823118,3.427298458896285,0.0,5.0,6.0,-0.07124105339990379
12-04,0.9758758913196778,1.3698626883180163,0.4467745615413748,8.706608280667037,6.161762686336731,-3.049537565379816,-7.894347007563606,0.16326904296875,-2.1103893087975396,-8.689687927874616,4.224145612071792,0.0,7.0,4.0,0.025361412800650147
12-05,0.38064000623961125,1.9599767671012223,0.8320439292503574,8.376962808587706,5.764703189625459,-2.5696651723209585,-7.9563654119318175,-0.054541747374859825,-2.4873373482247687,-7.306512760889474,4.078486996461415,0.0,6.0,5.0,0.08486593804365783
12-06,-1.1037463925375934,3.158751266966152,2.649262937363755,7.543144100578411,4.86764346852022,-3.2925658738061165,-9.034819382181558,-0.43549221584789644,-1.5315544531804315,-7.306512760889474,3.967095612833359,0.0,5.0,6.0,-0.04323280768176433
12-07,0.6776904422236221,2.8559676226479547,2.74524918599897,7.50436097495881,5.014711267807925,-2.187057555479104,-8.954783071301572,0.0,-1.7733774533283806,-5.342622328694877,4.728475646730266,0.0,6.0,5.0,0.4390512276303012
12-08,-0.7138993665633074,4.0476627904680065,4.2810511340064545,8.186014721916331,3.941108878747902,-2.60083817591761,-8.506555340272337,-0.9798496984426921,-0.756537916403907,-3.314917434649699,3.9976154565342807,0.0,5.0,6.0,0.6317379207852852
12-09,-0.7962683418656028,3.9449316646377,3.131562770855725,8.69482685371827,3.841003277334483,-2.984155902429144,-7.739937871557577,-2.7773911038515484,1.500961315758432,-1.4535757328873355,2.5944824623882985,0.0,6.0,5.0,0.6630366160084752
12-10,0.30202306750275787,2.4461033667469763,3.1231826075258233,8.150714419753518,4.045378669788406,-1.631960073860724,-8.255931480097999,-4.1457303824771845,0.20580872062659086,-2.768558794435462,3.2246872884800415,0.0,7.0,4.0,0.3913097841293953
12-11,-1.4139233172869983,2.3328451802557746,3.1795330479385835,7.855625529711688,5.6426315865599195,-2.082692016716864,-9.235388221815677,-2.981371639880769,0.3652964616417813,-1.3247083096236996,2.6800367625088897,0.0,6.0,5.0,0.4181570886077193
12-12,-1.3311134885087803,3.59786188725248,2.9160187403682416,8.183751333873927,5.359003511526046,0.10817446424754373,-6.300370771806318,-1.4549900482776543,2.006798984477382,-2.618610724666378,1.2881454891987376,0.0,7.0,4.0,0.9795557814737688
12-13,-1.3311134885087803,3.4191552492238797,4.057184200578794,8.89789710124985,3.9215718991575907,-0.15684173690542008,-8.510323645622728,-1.2801340562434849,1.712011971748749,-3.0191030235452927,2.8968232481173155,0.0,6.0,5.0,0.8839273099375392
12-14,-1.5000025431315103,4.258807994586941,5.351616562773403,9.942419303042342,0.17059647119225563,-0.1411324320869337,-2.9224077889312623,0.5174959169803848,2.074823429681114,-3.304848322086936,2.3907129321165765,0.0,7.0,4.0,1.4031734603446981
12-15,-1.2427527597823653,4.4635550744572825,3.535544968509216,8.93714745392599,-1.5299703428353904,-1.542377532385197,-3.999996524688612,0.6400670281217424,2.739569428471078,-1.2834993406241486,1.8628193052960873,0.0,6.0,5.0,1.04834222987214
12-16,-1.4913033117388383,2.927928543628413,1.8600214617860842,7.170845967400198,-1.0994260998395036,-2.786277239466591,-4.55515579820952,0.5319140633820382,2.8831049051170012,-0.776463176907112,1.4227830546787523,0.0,6.0,5.0,0.5073310308192435
12-17,0.0,3.2450155286936164,4.342005567648577,8.744216604278646,-1.7518948858251744,-5.105495209940749,-2.861213005310276,-0.49019689322421695,1.3222428105808297,-0.7147201662170503,2.2339174682992424,0.0,5.0,6.0,0.7469898182486205
12-18,-0.027845592261516627,0.9621478476403241,4.066761371847932,8.29155261560532,-2.714648365110837,-7.279755913441208,-0.6226156117258842,-1.4572521571604975,1.2772296902721698,0.02041306987883595,2.466793643373378,0.0,6.0,5.0,0.4152317165765013
12-19,-2.0011248411304163,1.4773260068288463,4.597481746651115,7.308138972082537,-2.2411587046502204,-6.555551195901538,1.7009572535184956,-1.1374562384126679,0.9608743485298098,2.4193576650999513,2.311540666501341,0.0,7.0,4.0,0.7366988065931045
12-20,-1.7716457510914223,2.752105546071682,2.521483499689009,7.076748824623097,-1.7910006887961492,-6.306442226346981,0.898899071262831,-0.054099153646961905,1.246850103776175,3.0114301508908126,1.3557592402971863,0.0,7.0,4.0,0.7450073847274399
12-21,-0.3048691520841709,2.4074037153896666,2.4654457830638425,7.316127589893026,-3.213164986794772,-5.587024506157586,-0.47673018611893064,0.7844222503431886,1.8988744766463899,5.619450706700387,0.12120109692606935,0.0,7.0,4.0,0.9192613989839259
12-22,-0.8333312140570747,1.3168712134615175,2.521483499689009,8.117935862398033,-7.212635032958461,-5.703474157184482,1.148330758391004,1.2442598971631118,1.0824445551036646,9.894531191922134,1.5950146291885534,0.0,8.0,3.0,1.0976192669264175
12-23,-0.4722171359592014,1.5020567184277525,0.41666175981957637,8.082737942933415,-5.987441400375193,-6.6751046175575866,-0.4237833932020897,-0.3818338637737463,0.47785972905157736,10.165249555321287,1.3509997801533966,0.0,6.0,5.0,0.6712654229032654
12-24,-1.0277748107910354,0.6818219434936017,1.8317748453015477,8.677445527682979,-6.565008351003097,-6.8649102405733045,-0.2050601814763311,-0.5285977176755847,-2.4106526774298658,11.249631721493206,2.663951231425168,0.0,5.0,6.0,0.6252184408706066
12-26,-3.8823884034941454,2.771033515249015,1.7215535040928986,10.14930815984007,-7.207065382748542,-6.3469662277044705,-3.6417269936271173,-1.9799185281825498,-1.836614124689149,9.666305786804715,2.587599033415879,0.0,5.0,6.0,0.16676002824638392
12-27,-3.527732033970447,3.512645545402938,1.2596318598302625,9.714608589060205,-6.752001953124977,-6.29565569265721,-0.9311246289771993,-0.8429572963460025,-2.1109174772462516,9.075690445585481,2.1356267866077867,0.0,5.0,6.0,0.43648451201371535
12-28,-2.7385693699825744,2.6672124969755675,2.4440670626521777,10.459615833209062,-6.36320206965799,-7.4312578384086,0.940739877954301,-0.23113278299347348,-3.4585588296390286,9.073075308374971,0.8054797228731867,0.0,6.0,5.0,0.5139557842797999
12-29,-3.6487990663778826,3.0107125236067627,1.316031145544497,9.12206675669574,-6.49739621794515,-7.296403176811429,0.20218563275742496,-0.19034586517952778,-6.021137492325371,7.219646650448215,0.03454310403552976,0.0,6.0,5.0,-0.22907466712926597
12-30,-3.534771376983828,3.3340098402074316,2.9575896618862556,8.98340464821185,-5.796642397152608,-6.940951865206066,0.768297177607445,0.16311369726765632,-5.903113751147288,7.50245573488177,0.2498930701432004,0.0,7.0,4.0,0.14860703664298505
12-31,-1.8814133778859585,4.150717970897759,1.4328848474962463,9.466890439084603,-6.0525477244352,-4.962305303974679,2.0757526147052023,2.3666322379914053,-5.3389875830216225,8.062939820764406,-0.7933080545482881,0.0,6.0,5.0,0.7106046572561562
