,2009,2010,2011,2012,2013,2014,2015,2016,2017,2018,2019,2020,ups,downs,end_day_sum,avg
01-02,-5.245885848999023,1.5332164764404297,1.1173782348632812,0.23572540283203836,4.127418518066399,-2.647235870361328,-2.4618988037109375,2.392532348632784,1.0729827880859233,3.8301010131835938,12.657516479492173,1.368560791015625,9.0,3.0,02-16,1.4983676274617466
01-03,-4.401399612426754,1.651590347290039,1.0830192565917969,0.30558013916015625,3.959381103515618,-2.395233154296875,-0.22648239135742898,3.3095626831054545,0.47379302978514204,3.6569671630859375,13.720565795898423,1.0129776000976562,9.0,3.0,02-17,1.8458601633707639
01-04,-4.750404357910163,1.4232921600341797,1.3310775756835866,0.2099456787109375,3.3668022155761648,-1.6464767456054688,0.22408294677734375,2.046325683593736,-0.6720199584960938,4.7919921875,11.78951263427733,2.4793243408203125,9.0,3.0,02-18,1.716121196746822
01-05,-5.730934143066399,1.194845199584961,1.2626457214355469,0.5924758911132812,3.6494102478027344,-1.330249786376946,0.8585662841796946,1.88555908203125,0.04766082763671875,3.926300048828125,9.923225402832031,2.9449844360351705,10.0,2.0,02-19,1.6020407676696806
01-06,-5.020647048950188,0.7317352294921875,1.6305198669433594,0.6794166564941406,3.6849517822265625,-1.1404838562011719,2.0236053466796875,2.3420639038085938,0.01926422119140625,4.139747619628906,10.089607238769531,1.5480194091796875,10.0,2.0,02-20,1.7273166974385585
01-07,-4.078035354614254,0.7317352294921875,1.7075271606445312,1.0284385681152344,4.253746032714844,-1.8351364135742188,1.6848678588867188,3.66497802734375,0.7999038696289062,4.776893615722656,9.707931518554688,2.426300048828139,10.0,2.0,02-21,2.072429180145265
01-08,-4.7477912902832,1.078542709350586,1.9309806823730469,1.0895576477050781,0.7096519470214844,-3.095264434814453,0.009502410888671875,3.4876708984375,0.5145797729492188,4.033546447753906,8.871604919433594,2.1201171875,10.0,2.0,02-22,1.333558241526286
01-09,-4.08770751953125,1.239307403564446,1.9138107299804759,0.8101654052734375,1.1872596740722656,-2.6812095642089844,0.6045913696289134,3.15057373046875,1.1708145141601562,3.9437942504882812,8.910598754882798,0.6978225708007955,10.0,2.0,02-23,1.404985109965007
01-10,-4.071744918823239,1.3238487243652344,1.0550613403320312,0.6274032592773438,1.4525833129882741,-2.6530609130859375,0.9996032714843821,3.0757217407226705,1.6713485717773295,4.636344909667969,7.8377914428710795,-0.497528076171875,9.0,3.0,02-24,1.2881143887837718
01-11,-4.93593597412109,1.1885604858398366,0.1374206542968679,0.7578163146972656,1.2755203247070312,-2.0147247314453125,1.0915412902832031,3.1412124633789062,1.463035583496108,4.078453063964844,8.533149719238281,-3.825225830078125,9.0,3.0,02-25,0.9075686136881513
01-12,-4.121601104736325,1.501474380493164,-0.18766021728515625,1.0447120666503906,1.6318321228027415,-2.258686065673828,1.1191520690917969,4.095771789550781,1.1884078979492188,4.2147064208984375,8.236953735351577,-6.56964111328125,8.0,4.0,02-26,0.8246184984842957
01-13,-3.847267150878917,1.4509735107421875,-0.17055511474609375,1.6559066772460866,0.9919471740722656,-2.0508689880371094,0.8884620666503906,4.962165832519531,0.8942489624023438,4.88934326171875,7.757392883300781,-8.818672180175781,8.0,4.0,02-27,0.7169230779012029
01-14,-2.3175888061523544,1.543600082397461,-0.719207763671875,1.5431442260742188,1.3118820190429688,-2.751739501953118,1.4102973937988352,5.1112518310546875,1.2740402221679688,4.686607360839844,7.512725830078139,-10.988655090332031,8.0,4.0,02-28,0.634696483612062
01-15,-2.7558212280273544,1.9221744537353587,-0.7258529663085938,1.5431442260742188,1.8642425537109375,-2.5267257690429688,2.161003112792983,6.147098541259773,1.3881683349609375,3.450897216796875,6.7816162109375,-11.561515808105469,8.0,4.0,02-29,0.6407024065653498
01-16,-2.193431854248047,1.5186119079589844,-0.614215850830071,1.1240692138671875,1.8465652465820241,-2.5267257690429688,1.9063377380371094,5.155422210693359,1.4166946411132812,3.3736572265625,6.8791351318359375,-13.052955627441406,8.0,4.0,03-01,0.40276368459065753
01-17,-0.7447681427001953,1.9244880676269531,-1.2239303588867116,1.1502609252929688,1.4308815002441406,-1.327625274658196,1.7857208251953125,5.51099014282228,2.8908920288085938,2.7965240478515625,5.6893081665039205,-14.422966003417955,8.0,4.0,03-02,0.4549813270568895
01-18,-2.1407756805419957,2.178173065185547,-1.24969482421875,0.7937965393066406,1.6542892456054688,-0.6682624816894602,2.3650360107421875,6.250240325927734,2.7583160400390625,2.4117813110351562,4.2859878540039205,-14.07147216796875,8.0,4.0,03-03,0.38061793645223013
01-19,-2.356821060180664,2.457202911376953,-0.907501220703125,0.5503768920898438,1.5107536315917969,-1.427257537841804,1.8041114807128906,6.16601943969728,3.468536376953125,0.68853759765625,4.604675292968764,-11.58465576171875,8.0,4.0,03-04,0.41449817021688
01-20,-1.9413433074951136,2.8529491424560547,-0.5396308898925781,1.4029655456542969,1.4485702514648438,-1.0477561950683594,1.5558357238769531,6.436191558837912,4.262939453125,2.4511871337890625,5.3876190185546875,-12.397079467773438,8.0,4.0,03-05,0.8227039972941101
01-21,-2.9914379119873047,3.1476383209228516,0.6790809631347585,1.6039161682128977,1.8040542602539062,-0.8851013183593821,1.4368324279785156,7.488945007324233,3.7146682739257812,3.1462860107421875,5.2506103515625,-7.76031494140625,9.0,3.0,03-06,1.3862648010253913
01-22,-2.6772365570068324,3.1560611724853516,-0.4438629150390625,1.7348594665527344,2.319507598876946,-0.7231101989746094,1.0980873107910156,6.784149169921875,3.3437576293945312,3.5034713745117188,4.291511535644517,-7.799812316894531,8.0,4.0,03-07,1.215615272521971
01-23,-3.366855621337894,3.75641059875489,-0.5898513793945241,0.6958961486816477,2.505226135253899,-0.10204696655274148,1.42529296875,8.552742004394524,3.1725540161132812,2.7606048583984375,3.3747482299804545,-9.47891235351564,8.0,4.0,03-08,1.0588173866271946
01-24,-3.880567550659187,3.849424362182617,1.0932960510253906,0.8438034057617188,2.248748779296868,1.3734474182128906,0.4597587585449219,8.290733337402337,2.5873870849609375,2.1834640502929688,3.6185760498046733,-12.660018920898438,10.0,2.0,03-09,0.8340044021606415
01-25,-4.088306427001957,3.612661361694336,0.7924613952636648,0.5655899047851634,2.443958282470703,2.1053504943847656,0.37700653076171875,8.356224060058587,2.691535949707017,1.0003433227539062,2.7679901123047017,-8.748413085937514,10.0,2.0,03-10,0.989700158437091
01-26,-3.2490348815918004,3.7561969757080043,0.5443687438964844,0.2265014648437642,3.7414817810058594,1.9517478942871094,-0.01839447021484375,5.015625,2.7957000732421875,1.0958709716796875,2.8675384521484375,-14.544380187988267,9.0,3.0,03-11,0.3486018180847186
01-27,-3.8224048614501918,3.579389572143551,0.6726837158203054,1.056427001953125,3.8303489685058594,1.4999504089355469,0.43218994140625,5.2401962280273295,2.5964736938476562,3.3402938842773438,4.3844757080078125,-12.027847290039077,10.0,2.0,03-12,0.8985147476196259
01-28,-4.769691467285156,3.823558807373047,0.3435096740722656,1.231060028076179,3.8392295837402344,1.237903594970696,1.1678237915039062,4.8471832275390625,3.8519210815429688,3.2533950805664062,4.6193695068359375,-16.733970642089844,10.0,2.0,03-13,0.5592743555704752
01-29,-4.404071807861325,4.253236770629883,0.0687103271484375,1.2834358215332102,3.0305023193359375,1.5180015563964844,0.3310432434082031,2.311286926269517,3.813873291015625,2.9831008911132812,4.2474746704101705,-16.704254150390625,10.0,2.0,03-14,0.2276949882507333
01-30,-3.2241134643554723,4.092567443847656,0.2919731140136719,1.9906272888183594,3.0838356018066406,0.7499618530273366,0.413799285888679,3.2470474243164062,3.6046218872070312,2.2976608276367188,4.227897644042983,-17.2987060546875,10.0,2.0,03-15,0.2897644042968759
01-31,-2.135557174682617,3.7543296813964915,-0.32631683349609375,1.781097412109368,3.377105712890625,0.3162651062011719,-0.40459060668946023,2.7417221069335938,4.0611724853515625,2.558319091796875,3.0926361083984375,-20.91498565673828,8.0,4.0,03-16,-0.17490021387736063
02-01,-2.1771011352539062,4.041831970214851,-1.1764793395996094,0.8032341003417898,2.8883056640625,2.792072296142571,0.2298889160156179,3.6026382446289062,3.1386184692382812,3.118255615234375,3.268791198730483,-20.657386779785156,9.0,3.0,03-17,-0.01061089833577474
02-02,-1.6868400573730469,3.737430572509769,-1.0991897583007812,1.4493255615234375,3.1016159057617188,3.1986846923828054,0.06437301635741477,4.893928527832031,3.7187881469726562,4.325004577636719,3.13177490234375,-29.088775634765625,9.0,3.0,03-18,-0.3544899622599293
02-03,-0.41547393798828125,3.8050765991210866,-0.9274330139160156,1.2136001586914134,2.9771995544433594,3.659503936767571,0.4413871765136719,3.1815261840820312,3.0434646606445312,6.535797119140625,3.7776947021484375,-20.597938537597656,9.0,3.0,03-19,0.5578670501708979
02-04,-0.149566650390625,4.566097259521477,-1.0219192504882812,1.0826339721679688,3.199371337890625,2.4667701721191406,0.6712684631347585,4.033058166503906,3.547576904296889,6.35235595703125,3.6700439453125,-20.013389587402315,9.0,3.0,03-20,0.7003583908081078
02-05,-0.4487247467041051,4.396980285644535,-1.2365951538085938,0.9516754150390625,3.6437187194824148,2.3131637573242188,0.1287384033203125,5.745491027832031,4.270401000976577,6.1785888671875,2.8185958862304688,-20.924888610839844,9.0,3.0,03-21,0.6530954043070482
02-06,-0.6730747222900426,3.9403686523437678,-0.3864288330078125,0.7857856750488281,3.32379150390625,2.1324501037597656,-0.6344833374023438,3.6119842529296733,3.2527236938476705,5.5993499755859375,2.3096771240234233,-20.588027954101562,8.0,4.0,03-22,0.22284301122029623
02-07,-0.656463623046875,3.838886260986339,-0.4551277160644531,0.7333908081054759,3.3593292236328196,1.0571823120117188,-0.386199951171875,4.0704879760742045,3.9185104370117188,5.541435241699219,1.9573516845703125,-17.655380249023438,8.0,4.0,03-23,0.4436168670654306
02-08,0.440399169921875,4.058750152587901,-0.7213478088378906,0.95166015625,3.3326797485351634,1.2107887268066406,-0.23907470703125,4.716171264648423,3.1386184692382812,7.92596435546875,4.061515808105483,-23.074844360351562,9.0,3.0,03-24,0.48344008127848453
02-09,0.13294029235839844,3.1539974212646555,-0.43796539306641336,0.453990936279304,3.3859939575195312,0.7047996520996094,-0.1379241943359304,3.424842834472642,3.1196060180664205,5.5993499755859375,2.0845947265625,-31.575592041015625,9.0,3.0,03-25,-0.8409471511840808
02-10,1.5289573669433594,3.441474914550785,-0.5581932067871094,0.838165283203125,3.1727027893066406,0.6776885986328054,-0.6896591186523366,3.6306838989257812,2.2540817260742188,4.0257415771484375,2.7500991821289062,-27.483741760253906,9.0,3.0,03-26,-0.5343332290649411
02-11,1.312906265258789,1.0569610595703196,-0.3005714416503906,1.6326484680175781,3.7503623962402344,-0.23493194580078125,-0.6436882019042969,3.509063720703139,2.0829010009765625,5.415916442871094,3.6602706909179688,-25.631034851074233,8.0,4.0,03-27,-0.3657663663228347
02-12,1.0885505676269531,0.6764564514160156,-0.23186492919921875,2.182704925537095,3.5015296936035156,-0.3343162536621094,-1.002307891845696,2.65753173828125,2.0829010009765625,5.290428161621094,3.1317672729492045,-24.30340576171875,8.0,4.0,03-28,-0.43833541870117365
02-13,2.742155075073253,1.1415023803710938,-0.2919769287109375,2.0691986083984304,3.0927276611328196,-0.7680511474609375,-1.4528732299804688,3.2189559936523438,2.5108871459960938,-1.5832595825195312,2.6620025634765625,-25.779632568359375,7.0,5.0,03-29,-1.036530335744221
02-14,3.406925201416012,1.5220184326171875,-0.360687255859375,2.2787513732910085,3.181591033935547,-0.9758644104003906,-1.9034423828125,4.079841613769531,3.053009033203125,-2.4907379150390625,3.670051574707017,-20.280899047851562,7.0,5.0,03-30,-0.40162022908528855
02-15,2.4513225555419886,1.665771484375,0.3606681823730469,2.2088966369628906,3.314891815185554,-0.6415443420410156,-1.4252853393554688,4.2669830322265625,3.6521987915039062,-2.9831161499023438,4.159393310546875,-21.063613891601562,8.0,4.0,03-31,-0.3361194928487139
02-16,2.6092052459716797,1.665771484375,0.3692626953125,1.9120445251464844,3.1993675231933594,1.0120086669921804,-1.5908050537109446,4.4728546142578125,2.7011032104492188,-3.3499374389648438,4.736793518066406,-14.643470764160156,9.0,3.0,04-01,0.25784985224405804
02-17,2.5676555633544886,1.9279060363769531,0.09445953369140625,1.8247261047363281,2.8616561889648438,1.8704299926757812,-1.5908050537109446,5.015594482421875,2.8152313232421875,-1.1874465942382812,6.028648376464844,-15.574790954589844,9.0,3.0,04-02,0.5544387499491364
02-18,2.733840942382809,1.55584716796875,0.5495948791503835,1.9818954467773438,3.0927162170410227,1.9517173767089844,-2.1241531372070312,5.0811004638671875,2.2826461791992188,-3.0217208862304688,5.549110412597642,-18.8740234375,9.0,3.0,04-03,0.0632143020629868
02-19,3.0163707733154297,1.040050506591804,1.9665374755859375,2.1826858520507812,2.5683670043945312,2.367359161376953,-2.1333236694335938,5.174674987792969,1.7690505981445312,-1.4481124877929688,5.793777465820327,-18.62631988525392,9.0,3.0,04-04,0.3059264818827317
02-20,4.52039909362793,1.0823402404785156,2.2756919860839844,2.409698486328132,3.8836631774902344,2.0691871643066406,-2.3172492980957102,5.885841369628892,2.0448684692382812,-1.303314208984375,5.098922729492202,-18.54706573486328,9.0,3.0,04-05,0.5919152895609537
02-21,5.459379196166992,1.2176437377929616,2.6363525390625,2.409698486328132,3.9192161560058594,1.8432960510253906,-2.8689537048339844,5.717422485351548,1.417144775390625,-0.4344482421875,4.257263183593764,-15.683769226074219,9.0,3.0,04-06,0.8241871198018392
02-22,5.459379196166992,1.2852783203125,2.619182586669922,2.453350067138679,3.4215316772460866,1.50897216796875,-2.6574630737304616,4.6225814819335795,1.7309799194335938,-0.8688735961914062,5.9210128784179545,-14.881248474121094,9.0,3.0,04-07,0.8845569292704246
02-23,4.5037841796875,1.555858612060554,3.2117233276367188,1.8334617614746236,3.545970916748047,0.9487495422363281,-2.9057350158691406,4.7816619873046875,1.864166259765625,-0.5695724487304688,7.02691650390625,-8.371932983398438,9.0,3.0,04-08,1.4520877202351905
02-24,3.6894493103027344,1.2260818481445312,3.5122718811035156,1.3620033264160156,3.8125839233398438,1.3372993469238281,-2.6482887268066406,3.8084716796875,2.0638580322265625,-2.2011032104492188,7.271598815917969,-8.015266418457031,9.0,3.0,04-09,1.2682466506958008
02-25,3.390306472778331,1.3021812438964773,2.4903640747070312,0.9691314697265625,3.8570137023925852,1.48187255859375,-2.234489440917976,3.4061355590820312,1.5978469848632812,-0.8495407104492188,6.4592971801757955,-5.7662353515625,9.0,3.0,04-10,1.3419903119405125
02-26,3.3653736114501953,1.4036521911621094,1.8806533813476491,0.8032379150390625,4.256938934326172,1.1746482849121094,-2.61151123046875,3.7617111206054688,2.2921295166015625,1.872894287109375,7.565185546875,-3.5271148681640625,10.0,2.0,04-11,1.8531498908996575
02-27,3.6562118530273473,1.615032196044929,1.6144485473632741,0.096038818359375,3.421539306640625,0.6596107482910085,-2.33563232421875,3.4154815673827983,2.3206710815429688,2.6548614501953125,7.467308044433608,-1.2681732177734375,10.0,2.0,04-12,1.943116505940755
02-28,5.916416168212891,1.6911468505859304,1.039081573486321,1.0040359497070312,2.9416465759277344,-0.4156494140625,-2.767810821533203,3.4154815673827983,2.292144775390625,2.7321014404296875,7.154129028320327,3.0119247436523295,10.0,2.0,04-13,2.334554036458331
02-29,0.0,0.0,0.0,0.97784423828125,0.0,0.0,0.0,3.630706787109361,0.0,0.0,0.0,3.655914306640611,3.0,0.0,04-14,0.6887054443359352
03-01,5.376287460327152,1.8095321655273438,1.854888916015618,0.8381614685058594,3.563762664794922,-0.551177978515625,-2.8229904174804688,3.4529037475585938,0.8179473876953125,3.1375579833984375,8.661323547363281,-1.2186355590820312,9.0,3.0,04-15,2.0766301155090328
03-02,4.669975280761722,2.088573455810547,1.8806533813476562,1.1349906921386648,3.110485076904297,-0.12650680541991477,-2.9425315856933594,3.5371246337890483,1.0557174682617188,2.9155197143554688,8.514518737792969,0.4359283447265767,10.0,2.0,04-16,2.1895373662312827
03-03,5.185161590576175,1.8095436096191406,0.8587341308593821,0.6373443603515625,1.7685317993164062,0.6325111389160156,-2.657470703125,2.7978897094726562,0.1807098388671875,2.2686920166015625,8.103469848632812,-1.8130874633789062,10.0,2.0,04-17,1.6476691563924162
03-04,4.769683837890625,1.8095436096191406,1.4856414794921875,0.803234100341804,2.18621826171875,0.253009796142571,-2.4091949462890625,2.2925643920898438,0.142669677734375,3.7747344970703125,7.839225769042969,-6.449851989746094,10.0,2.0,04-18,1.374789873758952
03-05,5.442766189575199,1.691150665283196,2.1125335693359304,1.0040473937988281,1.0753326416015625,0.09035491943359375,-1.8666725158691406,3.3031768798828125,1.5407638549804688,5.531745910644531,7.976234436035156,-3.021820068359375,10.0,2.0,04-19,2.073301156361897
03-06,3.8888778686523473,2.020923614501953,1.5629196166992116,2.0255470275878906,0.5598793029785227,0.253009796142571,-1.1586189270019531,3.6587295532226562,1.8260955810546875,4.6725692749023295,8.93533325195314,-5.399665832519517,10.0,2.0,04-20,1.9038000106811532
03-07,3.631284713745117,2.0801162719726562,2.061000823974595,1.9993629455566406,0.42658233642578125,0.6054039001464844,-1.232177734375,3.4903182983398438,1.978271484375,5.280769348144517,9.532333374023438,1.4762420654296733,11.0,1.0,04-21,2.6107923189798954
03-08,2.9332790374755824,1.9617347717285156,0.3778533935546804,1.0564346313476634,-0.6043319702148366,0.91259765625,-1.2597541809082031,3.7242660522460938,1.5312576293945312,5.4641952514648295,7.075851440429702,5.439285278320298,10.0,2.0,04-22,2.384389082590738
03-09,3.581426620483402,2.299968719482422,0.7556877136230398,0.8730812072753906,-0.23994827270507812,1.3734283447265696,-1.3425254821777344,3.6681060791015625,1.616851806640625,3.7940444946289062,6.0580291748046875,4.626869201660156,10.0,2.0,04-23,2.2554183006286626
03-10,2.5593433380126953,2.2069435119628906,1.8377151489257741,1.12628173828125,0.0977630615234446,1.861370086669929,-0.7999916076660156,4.117279052734375,0.9796218872070312,3.5333938598632812,6.762687683105469,2.288665771484389,11.0,1.0,04-24,2.2142561276753763
03-11,2.700611114501953,2.147754669189453,2.456024169921875,0.57623291015625,0.7198638916015625,1.93365478515625,-0.4413795471191406,2.620086669921875,1.1793365478515625,3.446502685546861,7.868583679199219,7.153297424316406,11.0,1.0,04-25,2.6967140833536773
03-12,2.0358467102050817,2.283039093017578,2.550487518310547,0.5674667358398366,1.2376632690429688,1.9517364501953125,-0.625286102294929,4.154731750488281,1.4742050170898438,2.3169784545898438,7.516265869140625,11.790069580078125,11.0,1.0,04-26,3.1044336954752594
03-13,2.027536392211914,2.7396659851074148,2.4901657104492188,0.7281455993652415,1.2643165588378906,2.7559051513671875,-0.14713287353514914,3.8165740966796875,1.8831787109375,2.5583267211914062,7.496688842773423,8.550277709960938,11.0,1.0,04-27,3.0136373837788892
03-14,2.4180870056152344,2.7481498718261648,3.110637664794922,0.6844787597656321,1.1310157775878906,2.5751876831054688,-0.4597663879394531,4.671333312988281,2.6725616455078125,2.9734573364257812,6.8997039794921875,16.089988708496094,11.0,1.0,04-28,3.792902946472168
03-15,2.5015869140625,2.4087562561035085,3.9788436889648438,0.3090553283691406,0.6408843994140625,1.9697837829589844,-0.6629600524902273,3.8385848999023438,1.9972610473632812,2.770721435546875,6.2635345458984375,24.471839904785156,11.0,1.0,04-29,4.207324345906575
03-16,2.3095149993896484,2.3333778381347585,4.287986755371094,-0.015827178955078125,0.06903076171875,2.006103515625,-0.6721992492675781,3.4736785888671875,2.24456787109375,3.0217056274414062,7.545623779296875,23.438133239746094,10.0,2.0,04-30,4.170141379038492
03-17,2.4789791107177734,2.1980857849121165,4.210716247558594,0.36934661865235086,0.033317565917975855,2.2057266235351562,-0.7191200256347656,2.8092727661132812,1.6263656616210938,3.3789215087890625,7.447746276855469,13.853965759277344,11.0,1.0,05-01,3.3244436581929544
03-18,1.1660690307617188,2.4263839721679688,3.902252197265632,0.1238861083984375,0.7028350830078125,2.0170974731445312,-1.0317649841308594,2.5261993408203125,2.3396987915039062,3.4175491333007812,7.722679138183594,13.55673217773436,11.0,1.0,05-02,3.239134788513183
03-19,0.742279052734375,3.434883117675774,3.1296424865722656,0.26415252685546875,-0.08172988891601562,2.568279266357422,-0.7467079162597656,-1.0225448608398438,2.1009750366210938,3.4561614990234375,9.371833801269531,11.446418762207045,9.0,3.0,05-03,2.8886369069417324
03-20,1.4080371856689418,2.9593734741210938,3.457111358642578,0.30731201171875,-0.8282470703125,2.748992919921875,-0.8130455017089844,-0.224151611328125,2.5497589111328125,2.6838302612304688,9.029304504394531,14.775741577148423,9.0,3.0,05-04,3.1711681683858224
03-21,0.02724456787109375,3.4939346313476562,3.0693130493164062,0.41209030151366477,-0.48164749145508523,2.459003448486328,0.868621826171875,-1.25738525390625,3.80615234375,2.8672561645507812,7.473205566406236,22.342185974121094,10.0,2.0,05-05,3.756664594014483
03-22,0.5617008209228516,3.3666458129882812,2.7157516479492188,0.6565437316894531,-0.34783172607421164,2.5022239685058594,0.7854843139648509,-2.0815048217773438,3.73004150390625,4.440864562988281,9.333297729492188,23.00811767578125,10.0,2.0,05-06,4.055944601694744
03-23,0.5533523559570312,2.2813072204589844,2.6556472778320312,0.6663627624511719,0.2136077880859375,2.5566635131835866,-0.10118484497070312,-2.147003173828125,3.4352188110351562,4.199516296386719,9.502380371093736,21.765693664550767,10.0,2.0,05-07,3.798463503519691
03-24,1.0695858001708984,2.9577674865722585,2.526836395263672,-0.8567543029785085,0.2850189208984375,2.2209510803222585,-0.10996627807617898,-1.4451904296875,4.846412658691406,3.9099044799804688,10.651130676269531,16.97808837890625,9.0,3.0,05-08,3.5861487388610827
03-25,0.6790313720703125,3.219898223876953,2.1988754272460938,-0.9707145690917898,0.3475189208984375,2.3478622436523438,0.3681983947753906,-1.8364410400390625,5.342987060546875,4.431221008300781,9.620193481445312,14.877677917480469,10.0,2.0,05-09,3.3855257034301762
03-26,-0.6255683898925781,2.015850067138672,2.181427001953118,-0.7953910827636648,0.055511474609375,2.8809738159179688,0.3681983947753906,-1.629791259765625,5.915931701660156,3.7337265014648438,8.729652404785156,8.913284301757798,9.0,3.0,05-10,2.6453170776367174
03-27,-0.6688995361328125,0.76983642578125,3.034564971923828,-0.7432479858398438,-0.11333084106446023,2.772560119628899,0.09191513061522727,-1.3762130737304688,5.887275695800781,5.0217132568359375,8.651359558105483,11.699272155761719,8.0,4.0,05-11,2.9189004898071285
03-28,0.470428466796875,2.3141403198242188,3.163837432861328,-0.8742141723632812,-0.5666007995605469,2.4481048583984375,-0.23846054077149148,-0.878387451171875,5.8316802978515625,4.7513885498046875,7.995635986328125,7.326637268066392,8.0,4.0,05-12,2.645349184672036
03-29,0.24494934082030895,2.3395843505859375,2.5517616271972656,-0.8480148315429688,-0.6752395629882812,0.6947364807129048,-0.330821990966804,-1.300323486328125,5.860206604003906,3.332244873046875,6.827880859375,6.114028930664077,8.0,4.0,05-13,2.067582766215008
03-30,0.30340576171875,2.611614227294922,1.8647651672363281,-0.8572959899902344,-0.20211410522460227,1.5204391479492259,0.08480453491210938,-1.506195068359375,6.031402587890625,5.970573425292969,6.1251373291015625,3.7683258056640767,9.0,3.0,05-14,2.1429052352905296
03-31,-0.6812171936035192,2.9413833618164062,1.4267997741699219,-1.2158775329589844,-0.6573753356933594,1.0576782226562642,1.0077018737792969,-1.206756591796875,5.583106994628906,6.454956054687514,5.339653015136719,3.178924560546875,8.0,4.0,05-15,1.9357481002807637
04-01,-0.6396675109863281,2.8145523071289062,1.6097145080566477,-2.1451187133789134,-0.3717193603515625,0.008724212646484375,0.8881645202636719,-1.0916671752929688,6.001197814941406,5.5637054443359375,5.516395568847656,6.478157043457031,8.0,4.0,05-16,2.0527032216389975
04-02,-2.027362823486328,2.331359863281257,1.1626853942871094,-2.6623191833496094,-0.27248001098633523,-0.07256317138671875,1.347930908203125,-1.5431671142578125,6.192192077636719,4.3333892822265625,6.2511978149414205,6.537605285644531,7.0,5.0,05-17,1.7982056935628268
04-03,-1.6428565979003906,1.0925178527832102,1.6883697509765554,-3.292594909667976,0.25186920166015625,0.3430747985839844,1.9492301940917898,-1.1392745971679688,6.344963073730469,4.154785156250014,6.006530761718736,8.519256591796875,9.0,3.0,05-18,2.0229892730712877
04-04,-1.7013092041015625,1.4489059448242259,0.895538330078125,-2.8822479248046875,0.2252044677734375,0.19546127319335938,1.9399871826171804,-3.017822265625,5.5821380615234375,4.0099868774414205,5.389961242675781,1.0557632446289062,9.0,3.0,05-19,1.0951306025187186
04-05,-1.4090213775634766,0.6767463684082102,1.5948562622070312,-2.4893760681152344,0.6513862609863281,0.9008560180664062,2.3648605346679616,-2.0638961791992188,6.209861755371094,3.343841552734389,5.6178436279296875,3.689704895019517,9.0,3.0,05-20,1.5906386375427246
04-06,-1.1918983459472656,0.558197021484375,1.6120262145996094,-3.322856903076172,0.8311004638671875,1.3454818725585938,2.762012481689446,-2.2884674072265625,5.781883239746094,4.9358978271484375,5.049148559570298,3.2722549438476562,9.0,3.0,05-21,1.6120649973551415
04-07,-0.4200325012207031,0.42290496826171875,2.127277374267578,-3.7085723876953125,0.8221778869628906,0.6014328002929688,2.4283981323242188,-1.6989669799804688,6.000068664550781,3.8459091186523438,4.322578430175781,3.5914688110351562,9.0,3.0,05-22,1.5278870264689128
04-08,-1.051559448242191,0.17769622802734375,2.418529510498047,-2.9546546936035227,0.7596931457519531,0.4034271240234375,2.143341064453125,-2.0840225219726562,5.5158843994140625,4.2818603515625,4.754592895507827,0.6290893554687642,9.0,3.0,05-23,1.2494897842407242
04-09,-1.915756225585934,-1.593536376953132,2.279693603515625,-2.928356170654297,0.3760414123535085,0.051036834716796875,2.2261009216308594,-1.6331558227539062,5.9742279052734375,4.233406066894517,5.242881774902315,-2.501716613769517,7.0,5.0,05-24,0.8175722757975228
04-10,-1.3756275177001953,-1.8308677673339773,1.4524002075195312,-1.8179092407226562,-0.34381866455078125,0.5299453735351562,2.0789642333984375,-2.1403732299804688,6.308448791503906,1.6368942260742045,4.381660461425753,2.372833251953125,7.0,5.0,05-25,0.9377125104268362
04-11,-1.6261482238769496,-1.9496650695800781,1.374835968017571,-2.3068313598632812,-0.5482254028320312,1.424468994140625,1.6353950500488281,-0.6469039916992188,6.470893859863281,2.090637207031236,3.7748641967773153,3.0486984252929688,7.0,5.0,05-26,1.0618349711100221
04-12,-1.6762561798095703,-2.2381591796875,2.458648681640625,-2.8306884765625,-0.032764434814453125,0.9090576171875,1.2474708557128906,-0.8903350830078125,7.127159118652344,1.6562042236327983,3.1387252807617045,3.0586395263671875,7.0,5.0,05-27,0.9939751625061012
04-13,-0.8829250335693395,-2.0680503845214915,2.2525558471679688,-2.4639854431152344,1.3806037902832031,0.9725914001464773,0.7579536437988281,-1.4517822265625,7.536109924316406,1.6079330444335795,3.36322021484375,7.481681823730469,8.0,4.0,05-28,1.5404922167460098
04-14,-0.9532432556152308,-2.6007766723632884,2.209606170654297,-2.621105194091804,0.9610443115234375,0.9362754821777273,1.3485336303710938,-1.6950759887695312,6.1380157470703125,0.0437774658203125,3.3337631225585795,8.808944702148423,8.0,4.0,05-29,1.3258132934570275
04-15,-1.2523841857910156,-3.082733154296882,1.7287025451660156,-3.015586853027351,1.1842155456542969,0.18634796142578836,1.6243972778320312,-2.4436798095703125,6.863746643066406,0.09222412109375,3.3043136596679688,11.870384216308594,8.0,4.0,05-30,1.4216623306274407
04-16,0.5175514221191442,-3.5055198669433665,2.209369659423828,-2.9279212951660227,0.5879936218261719,-0.14797592163085227,1.6152076721191406,-2.7240676879882812,7.0738067626953125,-0.653717041015625,3.3721847534179688,10.958892822265625,7.0,5.0,05-31,1.3646504084269202
04-17,0.7741127014160156,-2.3937530517578125,2.4247970581054688,-3.8651161193847656,1.3433952331542969,-0.30156707763671164,1.78076171875,-2.05718994140625,7.2361297607421875,-1.7810440063476705,5.2512435913085795,8.934700012207045,7.0,5.0,06-01,1.4455391565958653
04-18,1.9397697448730504,-2.4701309204101562,3.433074951171875,-3.8476524353027415,1.7344322204589773,-0.39038467407227273,1.1433219909667898,-1.9444503784179688,7.399604797363281,-1.279052734375,4.752128601074219,4.7629318237304545,7.0,5.0,06-02,1.2694660822550423
04-19,2.9084777832031286,-3.1489295959472656,1.831939697265632,-3.900047302246101,2.1470870971679688,-0.19076919555664062,1.263397216796875,-1.8230133056640625,7.418632507324219,-0.49707794189454546,4.842765808105469,4.7927398681640625,7.0,5.0,06-03,1.3037668863932284
04-20,3.484685897827152,-2.360229492187493,1.119171142578125,-3.5043182373046946,1.3451766967773366,-0.2724266052246165,1.3095779418945312,-2.1224517822265625,7.161834716796875,-1.7382659912109375,4.60711669921875,5.438804626464858,7.0,5.0,06-04,1.2057229677836103
04-21,2.7864360809326136,-2.461700439453118,0.8014450073242188,-3.313690185546882,1.4612197875976491,-0.5264854431152415,1.5678367614746165,-1.0089263916015625,8.193809509277344,-1.2154388427734233,5.35333251953125,7.453887939453111,7.0,5.0,06-05,1.590977191925048
04-22,2.969247817993164,-2.630805969238274,0.7325172424316406,-3.348735809326179,1.2201957702636648,-1.0598030090332102,1.4207038879394602,-1.90673828125,7.965751647949219,-0.15950775146482954,7.0126724243164205,7.2755584716796875,7.0,5.0,06-06,1.6242547035217303
04-23,2.578695297241211,-2.800098419189453,0.02585601806640625,-3.1909561157226634,-0.11604690551757812,-0.6802902221679688,1.36553955078125,-1.7094955444335938,7.507408142089844,-0.10138702392575283,7.2911834716796875,8.543739318847656,6.0,6.0,06-07,1.5595122973124205
04-24,2.2714462280273438,-3.9371147155761648,-0.4911994934082031,-2.1477584838867188,-0.6427268981933594,-0.8248558044433594,0.840484619140625,-1.8128128051757812,7.1540985107421875,1.0184555053710938,7.408607482910156,8.302330017089858,6.0,6.0,06-08,1.4282461802164732
04-25,1.8455543518066406,-4.310466766357415,-0.21544647216796875,-3.0156288146972727,-0.34812164306640625,-0.2994117736816406,1.3761978149413991,-1.4370956420898438,6.9456634521484375,1.0474014282226562,7.888175964355469,1.1728439331054688,6.0,6.0,06-09,0.8874721527099604
04-26,2.1044349670410156,-4.327430725097663,-1.0685997009277344,-2.5597801208496094,0.7944793701171946,0.19054412841797586,0.8866691589355398,-2.0758209228515625,6.365531921386719,0.9219131469726562,9.003936767578125,1.3517532348632812,8.0,4.0,06-10,0.9656359354654948
04-27,2.329912185668949,-4.310476303100597,-1.3185157775878906,-2.4984016418457102,1.4729347229003835,0.29943084716797586,1.2561302185058594,-2.1039886474609375,6.88861083984375,0.09908294677734375,10.761131286621094,0.24848175048828125,8.0,4.0,06-11,1.0936943689982084
04-28,2.780864715576172,-4.522600173950206,-1.5167198181152415,-1.8496894836425781,1.6425514221191335,0.20868301391601562,1.3484840393066406,-1.4746780395507812,5.0323028564453125,0.4673309326171875,12.037551879882812,0.45721435546875,8.0,4.0,06-12,1.2176079750061015
04-29,2.1211395263671875,-5.175958633422862,-1.1719894409179688,-2.4019775390625,1.3390274047851491,-0.47183990478515625,1.5609207153320312,1.6813201904296875,5.652976989746094,0.6223220825195455,11.409164428710923,1.5505447387695312,8.0,4.0,06-13,1.3929708798726386
04-30,1.9207191467285192,-3.767414093017578,-2.094085693359368,-1.8759994506835866,-0.044643402099609375,-0.7440299987792969,2.0042724609375,1.2680206298828125,5.45245361328125,0.9420166015625,10.191642761230469,4.532363891601577,7.0,5.0,06-14,1.482109705607099
05-01,2.78921127319337,-3.8522567749023438,-1.1892318725585938,-2.3669166564941406,0.5177497863769531,-0.535350799560554,0.6742401123046946,-0.06574249267578125,6.159080505371094,1.0680770874023438,8.650138854980469,-1.8785552978515625,6.0,6.0,06-15,0.8308703104654956
05-02,2.2464122772216797,-3.9710540771484375,-1.0599594116210938,-2.2441864013671875,0.4017028808593679,-0.5262527465820384,0.5726585388183594,-0.38509368896484375,5.777137756347656,2.0141754150390625,8.463584899902344,-1.4412078857421875,6.0,6.0,06-16,0.8206597963968901
05-03,1.6367835998535192,-2.978282928466797,-1.5425567626953125,-2.5071792602539134,1.1604881286621094,-0.29943084716796875,0.28632736206053977,0.535400390625,5.538421630859375,3.4043655395507812,6.745330810546889,-1.391510009765625,7.0,5.0,06-17,0.8823464711507164
05-04,1.3779106140136719,-2.4352149963378906,-1.1202964782714844,-1.1747055053710866,0.86590576171875,-0.9981002807617188,0.8682212829589773,0.713836669921875,4.640815734863281,2.8269424438476562,4.978012084960923,0.5764846801757812,8.0,4.0,06-18,0.9266510009765613
05-05,1.5198707580566406,-1.5697402954101562,-0.6549453735351562,-1.157154083251946,0.9551849365234375,-0.37200927734375,1.6717567443847727,0.24420166015625,4.125144958496094,2.3637313842773438,5.0565567016601705,1.341819763183608,8.0,4.0,06-19,1.1270348230997758
05-06,1.31109619140625,-0.6024398803710938,-0.5084457397460866,-0.8503456115722656,1.1337203979492188,-0.27221298217772727,1.579387664794929,0.20662689208984375,3.2848281860351562,2.2862396240234375,4.388893127441406,2.0375747680664062,8.0,4.0,06-20,1.1662435531616229
05-07,1.670186996459961,0.12728118896484375,-1.5253219604492188,-1.0168991088867188,0.4106178283691406,-0.3720130920410085,1.6717567443847727,-0.18785858154296875,4.048744201660156,1.7146835327148438,5.341293334960952,1.4312667846679688,8.0,4.0,06-21,1.1094781557718936
05-08,1.3612022399902344,-1.391571044921868,-1.3788108825683594,-1.3587722778320312,0.12496566772460938,-0.571643829345696,1.9488449096679688,1.0050430297851562,4.18243408203125,2.7899932861328267,5.3216629028320455,-0.5367279052734233,7.0,5.0,06-22,0.9580516815185595
05-09,1.5198650360107422,-1.7479515075683594,-0.8186721801757812,-1.2974090576171875,0.5713157653808594,0.08165740966796875,2.0596923828125,1.0614089965820312,4.3161163330078125,1.627494812011733,6.293693542480483,1.2821884155273153,9.0,3.0,06-23,1.2457833290100098
05-10,0.7766380310058629,-2.681324005126946,-1.1288986206054688,-1.1659049987792969,-1.0444374084472727,-0.7893943786621094,2.2536392211914134,1.1553268432617188,3.9437255859375,0.8234405517578267,6.097320556640639,1.2324905395507528,7.0,5.0,06-24,0.789385159810385
05-11,0.9353046417236364,-3.054645538330078,-0.44811248779296875,-1.9811897277832031,-0.848052978515625,-1.0071754455566406,1.9580879211425781,1.3901214599609375,4.26837158203125,-1.152824401855483,6.460609436035156,1.1231536865234233,6.0,6.0,06-25,0.6369706789652486
05-12,0.9018993377685547,-3.470428466796875,-1.189220428466804,-0.53472900390625,-1.0265846252441406,-1.361053466796875,0.868213653564446,0.6387176513671875,4.191986083984375,-0.7168807983398438,5.871490478515625,1.9779510498046733,6.0,6.0,06-26,0.5126134554545061
05-13,1.7286396026611328,-3.122539520263672,-1.284027099609375,-1.420135498046868,-0.9998207092285156,-0.544414520263679,0.11083602905273438,2.9775161743164062,3.9818954467773438,-1.1528091430664062,8.110107421875,3.4986724853515625,6.0,6.0,06-27,0.990326722462972
05-14,1.2693443298339844,-2.061889648437493,-1.9906997680663991,-1.534088134765618,-1.1962013244628906,-0.3538818359375,-0.7019538879394531,-0.6105270385742188,4.306571960449219,-0.6393890380859375,6.1464080810546875,3.4589157104492188,4.0,8.0,06-28,0.5077174504598
05-15,1.9290637969970703,-2.1128158569335938,-1.6201210021972585,-0.8854026794433594,-1.5265007019042969,0.37201690673828125,-0.8497314453125,-2.6299896240234375,3.5713043212890625,0.0,5.891143798828125,6.063034057617173,5.0,7.0,06-29,0.6835001309712722
05-16,1.9708194732666051,-1.6885528564453125,-1.1203117370605398,-0.48213958740234375,-1.4372367858886719,0.1542510986328125,-1.0898857116699219,-1.6061553955078125,3.953277587890625,-1.3950042724609517,5.036918640136719,3.548362731933608,5.0,7.0,06-30,0.4870285987854013
05-17,2.3299083709716797,-2.562530517578118,0.034473419189453125,0.5172348022460938,-1.4818534851074219,0.34477996826171875,-1.7733612060546804,1.239837646484375,4.440284729003906,-1.1527938842773438,7.629013061523452,5.069091796875,8.0,4.0,07-01,1.2195070584615095
05-18,2.3131999969482457,-2.1212921142578125,-1.0255050659179688,0.7276229858398438,-1.6514625549316406,0.34477996826171875,-1.7456588745117259,1.3807525634765625,4.573982238769531,-0.8234405517578125,11.094947814941406,7.782554626464844,7.0,5.0,07-02,1.7375400861104326
05-19,2.096076965332035,-2.0703773498535156,-0.8186836242675781,0.429546356201179,-0.9908790588378906,0.7984809875488281,-2.1428108215332102,1.7564697265625,3.9437179565429688,-0.6103286743164205,11.026229858398438,8.200004577636705,7.0,5.0,07-03,1.8014539082845031
05-20,2.2798061370849645,-0.9164009094238281,-0.41364288330078125,0.429546356201179,-0.9908790588378906,1.5425300598144531,-1.560924530029304,1.30560302734375,3.4853744506835938,-0.6103286743164205,11.026229858398438,7.524124145507798,7.0,5.0,07-04,1.925086498260496
05-21,2.5303268432617188,-0.7551841735839844,0.67218017578125,1.0694961547851634,-1.0622978210449219,1.3519859313964844,-1.062175750732429,4.07647705078125,3.8386993408203125,-0.4068756103515625,9.87746429443358,6.8482589721679545,8.0,4.0,07-05,2.2481962839762346
05-22,2.864374160766605,-0.8060894012451207,1.4477615356445312,1.7006721496582031,-0.7230758666992188,1.4427261352538991,-0.6003494262695312,4.114051818847656,4.0487823486328125,0.02907562255860796,10.201477050781264,7.335289001464844,9.0,3.0,07-06,2.5878912607828792
05-23,1.68689155578614,-0.4582061767578054,1.3788337707519531,1.29742431640625,-0.7944908142089844,0.6805000305175781,-0.16626358032226562,3.6913833618164062,3.9150772094726562,-0.09684753417967329,10.388031005859375,5.387153625488281,8.0,4.0,07-07,2.242457230885826
05-24,1.269344329833988,-1.043670654296868,2.3267707824707102,1.2886543273925781,-0.3035163879394531,0.9255294799804688,-0.1200714111328125,2.2166976928710938,3.724090576171875,-0.03873443603515625,12.754287719726577,5.6753997802734375,8.0,4.0,07-08,2.3895651499430364
05-25,0.7766399383544993,0.23759078979492898,1.8183250427246094,1.656848907470696,0.13390350341796875,0.4264793395996094,0.3047943115234446,2.244903564453125,2.9983596801757812,0.4456024169921875,11.49752044677733,5.566062927246094,12.0,0.0,07-09,2.342252572377523
05-26,0.6430301666259801,-0.050903320312492895,1.8872718811035156,0.6574668884277415,0.38384628295897727,0.26314544677735086,-0.4895286560058594,2.16973876953125,2.8073959350585938,0.745941162109375,10.888771057128892,3.3595123291015625,10.0,2.0,07-10,1.938807328542074
05-27,1.4196605682373011,-1.22186279296875,1.8183479309082102,-0.8678741455078125,1.1872673034667969,0.33573150634765625,-0.9605674743652344,1.268035888671875,3.389892578125,1.7340621948242188,10.96731567382814,0.377685546875,9.0,3.0,07-11,1.6206412315368668
05-28,1.6284313201904297,-0.6957817077636719,0.6980438232421875,-1.0870361328125,1.4461517333984375,0.32664108276366477,-0.9698104858398438,2.376373291015625,3.590423583984375,2.7125015258789062,10.4862060546875,1.321937561035142,9.0,3.0,07-12,1.8195068041483544
05-29,1.1774806976318253,0.14424896240234375,0.060344696044921875,-1.29742431640625,1.6246871948242188,-0.04537200927734375,-0.332508087158196,2.7614822387695312,3.466278076171875,2.295928955078125,10.682579040527344,2.3556365966797017,9.0,3.0,07-13,1.9077801704406747
05-30,0.4509544372558594,0.02544784545899148,-0.00859832763671875,-0.5610427856445312,0.7587814331054688,-0.29941177368165484,-0.2032012939453125,2.958709716796875,4.2397613525390625,1.6662445068359517,9.887283325195312,3.5086135864257955,8.0,4.0,07-14,1.8686285018920916
05-31,0.960342407226566,1.433990478515632,-0.1292572021484375,-1.2623481750488281,2.3209762573242188,-0.13609695434570312,0.332500457763679,2.7896575927734375,3.79095458984375,3.2549819946289062,10.554946899414062,1.9978256225585938,9.0,3.0,07-15,2.1590394973754896
06-01,0.9687099456787109,1.3745880126953125,0.9737968444824219,-1.0607261657714844,2.499530792236328,0.0363006591796875,0.036937713623046875,2.8366317749023438,2.5973129272460938,2.8771591186523438,9.209800720214844,4.860374450683594,11.0,1.0,07-16,2.2675347328186035
06-02,1.7871017456054688,0.7042694091796804,1.1030464172363281,-0.33313751220703125,2.59771728515625,0.2903594970703125,-0.009243011474609375,2.7051239013671875,2.1962814331054688,0.9784317016601562,8.728691101074219,5.794677734375,10.0,2.0,07-17,2.211943308512369
06-03,1.8372039794921875,0.7551727294921875,1.1806182861328125,-0.5084762573242259,2.3031387329101562,0.11796188354492188,-0.18473052978516336,2.8084716796875,3.4185562133789062,-0.5522003173828125,8.964340209960923,4.592010498046889,9.0,3.0,07-18,2.06100559234619
06-04,1.7954463958740234,1.8667449951171804,1.8183403015136719,-0.350666046142571,2.4995346069335938,0.16333770751953125,0.0184783935546875,2.6581649780273438,3.7623138427734375,0.7556304931640767,7.668281555175753,5.72509765625,11.0,1.0,07-19,2.3650587399800607
06-05,2.7558155059814453,1.5358314514160014,0.9307022094726562,-0.07889175415039062,3.2136764526367188,-0.1633148193359375,0.01847457885742898,2.6487884521484375,3.7145538330078125,0.678138732910142,6.283874511718736,3.8167266845703267,10.0,2.0,07-20,2.112864653269448
06-06,1.9958724975585938,1.4424781799316335,2.576690673828118,-1.1133232116699219,2.7673454284667898,-1.8873138427734446,0.16626739501953125,2.3763961791992188,4.4020843505859375,0.6878204345703125,3.2401046752929545,5.7847366333007955,10.0,2.0,07-21,1.8699299494425432
06-07,2.5637340545654297,1.9006767272949148,1.8958816528320384,-1.4289169311523438,2.52630615234375,-1.0706787109375,0.19395828247071023,2.6393966674804688,4.201545715332031,1.3368759155273438,2.3957366943359375,5.6753997802734375,10.0,2.0,07-22,1.9024930000305182
06-08,2.3799972534179688,1.900676727294929,2.128562927246101,-1.4815139770507812,2.1335105895996023,-1.6604843139648509,-0.6188316345214844,2.4233627319335938,4.621696472167969,2.5865402221679688,0.176727294921875,4.5721282958984375,9.0,3.0,07-23,1.596864382425944
06-09,2.263107299804684,2.2231159210205185,1.7062759399414134,-1.4552192687988281,2.1870765686035156,-3.17578125,-1.0621719360351634,2.35760498046875,3.8673171997070312,1.8987426757812358,-0.05891418457032671,5.9934539794921875,8.0,4.0,07-24,1.3953839937845849
06-10,2.0042266845703125,1.3915634155273438,2.3784828186035085,-1.7444992065429688,2.1245956420898438,-3.1394844055175852,-1.1452865600585938,1.6343460083007812,3.8864288330078125,1.2787322998046733,1.2665863037109375,6.818428039550781,9.0,3.0,07-25,1.3961766560872373
06-11,1.4196643829345597,2.4691696166992188,1.370208740234375,-2.6474380493164062,1.6514739990234375,-2.6585845947265696,-1.6440467834472727,3.4565353393554688,4.145179748535156,0.9009399414062358,0.6971130371093892,14.163650512695312,9.0,3.0,07-26,1.9436554908752421
06-12,1.7286338806152344,3.1480026245117188,1.1030654907226562,-2.647434234619155,2.3656272888183594,-2.2049140930175852,-1.9580955505371236,3.2585601806640625,3.4072647094726562,0.5618743896484375,1.6397018432617188,13.000740051269531,9.0,3.0,07-27,1.9502522150675425
06-13,2.3132095336914027,3.801342010498047,0.9565582275390625,-2.296783447265632,1.2586936950683594,-2.3772811889648366,-2.3275375366210938,3.5885543823242188,2.0968856811523438,0.3972015380859375,2.5233688354492188,13.358558654785142,9.0,3.0,07-28,1.9410641988118476
06-14,1.7597427368164027,3.6740646362304688,-0.11204147338867898,-2.6561965942382955,1.1605033874511719,-1.941741943359368,-2.4110298156738352,3.361053466796875,2.0300445556640625,-0.12593841552734375,2.778648376464858,14.352493286132827,7.0,5.0,07-29,1.822466850280762
06-15,1.524953842163093,2.6134109497070312,0.7583541870117116,-2.1565284729003906,0.714130401611321,-2.2242774963378906,-1.5574302673339844,3.4737930297851562,2.0491409301757812,1.1140594482421875,4.241615295410142,12.916915893554688,9.0,3.0,07-30,1.9556781450907372
06-16,1.4903144836425781,2.1976318359375,0.6894149780273366,-1.7269668579101562,1.4313926696777344,-2.4794692993164062,1.6184005737304688,3.304718017578125,2.259033203125,7.808082580566406,4.683448791503892,11.706588745117173,10.0,2.0,07-31,2.7485491434733045
06-17,1.3567028045654297,2.3334083557128906,0.6549491882324219,-1.8759994506835938,1.3417396545410156,-3.5794830322265554,1.7015342712402273,3.125091552734375,-3.9577484130859375,7.42059326171875,3.9252395629882812,12.18367767333983,9.0,3.0,08-01,2.0524754524230944
06-18,1.4819622039794922,2.0958366394042898,0.5344009399414134,-2.2880172729492188,1.1632041931152344,-3.34356689453125,1.2766647338867188,0.80084228515625,-5.2802276611328125,7.6830215454101705,1.845611572265625,12.104164123535142,9.0,3.0,08-02,1.5061580340067546
06-19,1.850673675537113,2.673755645751946,0.4911346435546946,-2.8139991760253906,1.8238067626953125,-3.897052764892578,2.325183868408203,0.008880615234375,-3.7660675048828125,8.254577636718764,1.9241485595702983,10.60061645507814,9.0,3.0,08-03,1.6229715347290055
06-20,2.5435791015625,3.065715789794922,-0.443603515625,-2.647449493408203,2.9664344787597656,-4.772190093994141,2.4003219604492116,-0.679351806640625,-4.148933410644531,7.876762390136719,1.531410217285142,7.9486160278320455,7.0,5.0,08-04,1.3034426371256504
06-21,3.1808986663818395,2.989032745361328,-1.2806892395019531,-1.6743736267089844,4.588081359863281,-4.527072906494141,1.9271240234375,-0.7263031005859375,-4.253959655761719,9.368644714355483,-1.4534225463867188,11.39801788330081,6.0,6.0,08-05,1.6279981931050658
06-22,3.3569812774658203,4.058742523193352,-1.0997352600097656,-2.761402130126946,5.277637481689453,-4.299228668212891,2.530220031738274,-1.3180465698242188,-4.082069396972656,10.358535766601562,-0.4113464355468608,11.358139038085952,6.0,6.0,08-06,1.914035638173423
06-23,2.9048233032226562,4.406620025634766,-0.8670539855957031,-0.56982421875,4.820392608642578,-4.672901153564453,3.6422309875488352,-3.03692626953125,-4.0629730224609375,11.883079528808594,-1.3369598388671875,11.208274841308594,6.0,6.0,08-07,2.0265652338663744
06-24,2.879772186279297,4.5848121643066335,-2.5555076599121094,-0.63995361328125,4.372119903564453,-3.8177452087402344,4.316478729248054,0.2980804443359375,-4.2822418212890625,11.989982604980455,1.26263427734375,12.699180603027344,8.0,4.0,08-08,2.592301050821939
06-25,2.278505325317383,4.321956634521484,-2.66644287109375,-0.38460540771484375,4.372249603271484,-4.171623229980469,4.47349929809571,2.1384124755859375,-3.9180755615234375,11.348495483398438,0.9343109130859375,11.049240112304702,8.0,4.0,08-09,2.481326897939048
06-26,1.5671100616455043,3.9999351501464915,-4.8128509521484375,-0.38510894775390625,4.2829742431640625,-4.099029541015625,3.8805580139160156,1.7424240112304688,-3.9180755615234375,10.261604309082031,2.7212677001953125,10.23211669921875,8.0,4.0,08-10,2.1227437655131025
06-27,1.4008960723876953,3.9999351501464915,-2.8828277587890625,-0.5165939331054688,3.8812637329101562,-4.67951583862304,4.953723907470696,1.5633087158203125,-3.4319610595703125,10.852531433105469,0.45318603515625,10.296508789062528,8.0,4.0,08-11,2.1575379371643097
06-28,1.1325454711914062,3.497203826904297,-5.182830810546875,-0.3412666320800781,4.812904357910156,-3.9686393737792898,6.002155303955071,0.7657318115234375,-3.966705322265625,10.261604309082031,-1.0946884155273438,8.053405761718764,7.0,5.0,08-12,1.6642850240071627
06-29,1.5686092376708949,3.254962921142571,-5.5447845458984375,-0.8763504028320312,3.9550704956054688,-4.150913238525391,5.3155860900878835,-0.20171356201171875,-3.546539306640625,10.526184082031264,-2.7885818481445312,7.7941970825195455,6.0,6.0,08-13,1.2754772504170744
06-30,1.7446479797363246,3.5858840942382812,-5.803314208984375,-1.4634780883789062,4.044731140136719,-3.9777450561523438,4.91673660278321,-2.4653701782226562,-4.8294525146484375,8.8453369140625,-3.8126602172851562,6.426597595214858,6.0,6.0,08-14,0.6009928385416682
07-01,1.460708618164059,3.7555866241455185,-4.899868011474609,-1.3842391967773438,4.161285400390632,-3.7387924194335938,4.84283447265625,-2.6160888671875,-4.4358062744140625,7.892814636230469,-2.6507186889648295,5.92962646484375,6.0,6.0,08-15,0.6931118965148949
07-02,1.8448600769042933,3.5014266967773438,-4.441463470458984,-1.3930282592773438,4.25932693481446,-3.04010009765625,4.898265838623047,-2.68365478515625,-3.6978836059570312,8.456558227539062,-4.0313720703125,3.4547195434570312,6.0,6.0,08-16,0.5939712524414066
07-03,2.4804420471191406,3.976116180419922,-3.9048614501953125,-1.707122802734375,4.187911987304695,-3.2488136291503906,5.084037780761719,-2.7591018676757812,-3.8512039184570312,7.446983337402344,-6.368171691894531,3.595153808593736,6.0,6.0,08-17,0.4109474817911778
07-05,1.440591812133789,4.649261474609382,-4.4674224853515625,-1.680835723876946,2.5321311950683594,-2.576610565185547,6.067535400390625,-2.4856719970703125,-3.285064697265625,6.9141998291015625,-5.8303146362304545,3.325988769531264,6.0,6.0,08-19,0.38364903132121125
07-06,1.574773788452152,4.5725669860839915,-5.337795257568359,-0.504955291748054,2.362895965576179,-2.2302818298339773,5.826309204101548,-2.50445556640625,-3.3041610717773438,7.6805496215820455,-3.3309478759765625,2.9571151733398438,6.0,6.0,08-20,0.6468011538187678
07-07,2.3442096710205007,3.5797996520996165,-5.484298706054695,0.9851722717285156,2.318065643310554,-1.8201560974121094,4.733390808105462,-2.2696304321289062,-5.409812927246094,7.751892089843764,-3.3604965209960795,2.877044677734361,7.0,5.0,08-21,0.5204316775004075
07-08,2.47781944274902,3.130096435546882,-6.800323486328125,0.9411430358886719,2.40771484375,-2.0031509399414134,5.527713775634766,-2.51019287109375,-5.591178894042969,7.849090576171875,-4.6799850463867045,5.083595275878892,7.0,5.0,08-22,0.48602851231892874
07-09,2.4611186981201243,2.415027618408203,-5.6952552795410085,0.7650337219238352,1.2098045349121094,-2.0757369995117188,5.555427551269531,-2.94244384765625,-6.223663330078125,8.267036437988281,-4.315414428710952,4.258621215820298,7.0,5.0,08-23,0.3066296577453607
07-10,2.277633666992191,2.6701583862304616,-5.669292449951172,1.398040771484368,0.9509201049804688,-2.0213127136230398,4.341094970703118,-2.6407699584960938,-5.619926452636719,7.1816864013671875,-3.8343048095703125,2.9362640380859233,7.0,5.0,08-24,0.1641826629638651
07-11,2.053359985351559,2.337837219238274,-4.682643890380859,1.608428955078118,-0.14707565307617188,-1.938915252685554,3.3785820007324148,-2.4144821166992188,-5.984519958496094,7.598258972167969,-4.266319274902344,4.6962890625,6.0,6.0,08-25,0.18656667073567443
07-12,1.9443492889404261,1.7584190368652273,-4.232898712158203,1.7662277221679616,0.1769561767578125,-2.3938446044921875,2.023975372314446,-2.3854446411132812,-6.758003234863281,7.5401458740234375,-2.475921630859375,6.002265930175781,7.0,5.0,08-26,0.24718554814656368
07-13,1.9359722137451136,0.4180450439453054,-4.112239837646484,0.7919273376464844,0.3029022216796875,-2.3027000427246165,1.4579849243163991,-2.2163925170898438,-6.4237823486328125,8.120498657226562,-2.2705154418945312,5.0252685546875,7.0,5.0,08-27,0.06058073043823035
07-14,1.6592540740966797,0.477447509765625,-3.4831504821777344,1.2314071655273509,0.5091094970703054,-2.083984375,2.8391036987304688,-2.1788253784179688,-7.69561767578125,10.51620483398436,-1.55169677734375,2.6312789916992188,7.0,5.0,08-28,0.2392109235127755
07-15,0.26465415954589844,0.49440765380859375,-4.391395568847656,0.9584579467773509,-0.6743354797363281,-2.30157470703125,2.8391036987304688,-1.463226318359375,-6.783973693847656,11.235450744628906,-1.0495071411132955,1.050910949707017,6.0,6.0,08-29,0.014914353688556167
07-16,-0.35332298278808594,1.0964241027832102,-2.5171127319335938,1.372295379638679,-0.325958251953125,-1.8751182556152344,2.5065879821777273,-1.0767440795898438,-7.291908264160156,10.60366058349608,-0.930671691894517,1.706916809082017,5.0,7.0,08-30,0.2429207166035964
07-17,0.08065032958984375,2.0929946899414062,-1.123687744140625,1.161651611328118,-0.2813301086425781,-0.6773948669433594,3.7297821044921875,-0.7844619750976562,-7.15771484375,10.083122253417955,-1.293952941894517,1.0055618286132812,6.0,6.0,08-31,0.569601694742838
07-18,-0.7555561065673722,1.2238578796386719,-0.950592041015625,0.7320976257324219,-0.6830329895019531,-1.602916717529304,3.74847412109375,-0.8693008422851562,-6.180397033691406,10.102493286132812,-2.1089019775390625,-0.799224853515625,4.0,8.0,09-01,0.15475002924601267
07-19,-1.0826072692871094,1.7862472534179688,-2.449440002441399,0.3814430236816406,-0.4598541259765554,-0.9948844909667898,3.4237403869628835,-1.2663192749023438,-6.514617919921875,8.445953369140625,-1.1663131713867188,-0.5400161743164062,4.0,8.0,09-02,-0.0363890329996733
07-20,-1.2838687896728516,2.273853302001953,-2.044384002685554,0.9074363708496094,-0.15481185913085938,-0.8763999938964844,1.976318359375,-1.9050369262695312,-6.142189025878906,8.978759765625,-1.0980529785155966,0.5665817260742188,5.0,7.0,09-03,0.09985049565633315
07-21,-1.234298706054684,2.2908172607421875,-2.1219635009765625,0.8004875183105469,-0.5134201049804688,-0.5209770202636719,3.420032501220703,-1.5668716430664062,-5.960777282714844,9.598770141601562,-0.576179504394517,4.421394348144531,5.0,7.0,09-04,0.6697511672973647
07-22,-1.3428859710693324,0.7634925842285156,-2.018543243408203,0.9589691162109375,-0.907909393310554,0.6571159362792898,3.4939117431640625,-2.0552978515625,-5.606193542480469,9.60848999023436,-3.1068267822265625,4.103340148925781,6.0,6.0,09-05,0.37897189458211056
07-23,-1.6435127258300746,0.20345687866210938,-2.8592262268066406,1.2671546936035227,-0.6212882995605469,0.7115669250488352,3.9926795959472727,-1.8667373657226562,-5.347450256347656,11.231689453125,-2.1773834228515625,4.162971496582031,6.0,6.0,09-06,0.5878267288208029
07-24,-1.6184597015380824,-0.066436767578125,-3.906463623046875,1.8266944885253906,0.15535736083984375,0.6026725769042898,4.6484527587890625,-0.7448196411132812,-5.9511871337890625,13.359016418457045,-0.979522705078125,3.755455017089858,6.0,6.0,09-07,0.9233965873718283
07-25,-0.9308261871337891,0.4788818359375,-4.2786102294921875,1.3007125854492259,0.4767189025878906,1.385284423828118,5.566993713378913,-0.4619598388671875,-5.5966033935546875,13.37838745117189,-0.6162338256835938,-0.3190155029297017,6.0,6.0,09-08,0.8653108278910325
07-26,-0.7966461181640625,0.2488250732421875,-3.3098907470703125,0.8974533081054616,0.7172622680664134,2.087066650390632,5.464939117431655,-0.00945281982421875,-4.992851257324219,12.080284118652358,-2.8864212036132812,-0.7676315307617188,6.0,6.0,09-09,0.7277447382609079
07-27,-0.25157928466796875,0.6232070922851562,-2.370563507080071,0.3283882141113281,0.01793289184571023,1.6404876708984375,6.160804748535163,0.5373992919921875,-4.935371398925781,6.212165832519517,-3.6433563232421733,-3.4194793701172017,7.0,5.0,09-10,0.07500298817952533
07-28,0.16770935058592684,0.6910896301269531,-2.1723594665527344,1.084972381591804,0.5917282104492188,0.884033203125,5.084518432617195,0.8579330444335938,1.245819091796875,5.5790939331054545,-5.396110534667969,-0.1595153808593892,9.0,3.0,09-11,0.704909324645994
07-29,0.46122169494628906,0.9032096862792969,-1.9040679931640696,0.7503814697265625,0.8965568542480469,0.8293609619140696,1.326793670654304,0.9710693359375,2.7695541381835938,6.220603942871094,-5.386260986328139,-0.9171829223632812,9.0,3.0,09-12,0.5767699877421055
07-30,0.15932655334472656,0.7754058837890696,-2.5272254943847727,0.8208274841308594,1.0041389465332031,1.30328369140625,0.25978851318360086,0.11312103271484375,4.0153656005859375,6.1817169189453125,-5.100708007812528,-0.01994323730470171,9.0,3.0,09-13,0.5820914904276501
07-31,0.2935028076171875,0.4090003967285156,-2.7003135681152415,1.3120689392089844,1.0041389465332031,2.2237701416015696,-0.8165092468261719,1.1030654907226562,4.092033386230469,6.764907836914034,-2.353416442871108,1.9839096069335938,9.0,3.0,09-14,1.1096798578898077
08-01,-0.1677074432373047,0.9798927307128977,-2.163719177246101,2.0046043395996094,-0.3586311340332031,2.4242820739746094,0.11133575439452414,0.1885528564453125,1.9070510864257812,6.764907836914034,1.0536117553710795,-0.29907989501954546,8.0,4.0,09-15,1.0370917320251412
08-02,0.18449020385741832,1.218486785888679,-0.5971794128417969,2.574413299560547,-1.192413330078125,1.2030220031738281,-0.5195960998535227,0.7165298461914062,2.1562271118164062,6.230323791503892,0.029541015625,0.41870880126951704,9.0,3.0,09-16,1.035212834676104
08-03,0.9392070770263601,1.9427490234375,-0.3202323913574219,2.0254859924316406,-0.860687255859375,1.2577018737792969,1.0484466552734304,0.7071151733398438,2.1562271118164062,6.5316162109375,1.2997970581054688,-0.32898712158204546,9.0,3.0,09-17,1.3665366172790503
08-04,1.0230903625488281,1.8064117431640625,1.5492095947265625,2.3773765563964844,0.3137855529785156,1.1027755737304688,1.0298614501953125,0.5562591552734375,2.4054031372070312,7.5424880981445455,-0.5908126831054688,-0.8473968505859517,10.0,2.0,09-18,1.522370974222819
08-05,1.3165817260742188,1.7638053894042969,1.6530838012695312,2.3245468139648438,-0.4124107360839844,0.47393035888671875,0.21340179443358664,1.2350540161132812,1.8878936767578125,6.891265869140639,-0.06893157958984375,-0.5881958007812642,9.0,3.0,09-19,1.3908354441324864
08-06,1.6939334869384766,1.6019248962402273,3.43597412109375,2.0604019165039134,0.6724128723144531,-0.027347564697265625,0.6216239929199219,1.3481979370117188,2.5874786376953125,7.1731338500976705,-1.3982696533203125,0.10965728759764204,10.0,2.0,09-20,1.6565934816996257
08-07,1.358512878417958,1.278125762939446,2.8214759826660156,2.078014373779297,0.6455192565917969,-0.0820159912109446,-0.3433074951171875,2.3004379272460938,2.7024688720703125,7.367507934570298,-3.308563232421875,-3.2799148559570455,8.0,4.0,09-21,1.1281884511311804
08-08,1.4256076812744105,1.295166015624993,2.483959197998047,2.1924705505371094,-0.1075897216796875,-0.692638397216804,-2.5700759887695312,2.4041366577148438,3.2391357421875,7.940979003906236,-4.500053405761719,-1.9539947509765625,7.0,5.0,09-22,0.9297585487365696
08-09,1.6352348327636719,0.7839126586913991,-0.7010269165039062,2.2717132568359375,-0.0089569091796875,-0.9113845825195312,-2.124725341796875,2.3004150390625,3.4882888793945312,7.0273361206054545,-3.1805572509765625,-3.539123535156236,6.0,6.0,09-23,0.586760520935058
08-10,1.7610187530517614,1.0821571350097656,1.0991668701171875,2.4566268920898438,0.017932891845703125,-0.8749198913574219,-2.95050048828125,2.07415771484375,4.417877197265625,7.882667541503906,-1.9595336914062358,-2.6618194580078125,8.0,4.0,09-24,1.0287359555562352
08-11,1.5430011749267614,2.198375701904297,-0.5798606872558594,2.368572235107422,0.16136932373046875,-1.1118888854980398,-2.3196029663085938,2.1873016357421875,3.8428955078125,8.669960021972656,-1.9103012084960938,-4.585899353027344,7.0,5.0,09-25,0.8719935417175302
08-12,1.3836708068847656,2.1046524047851562,-1.7309799194335938,2.350963592529304,0.17034149169921875,-1.230377197265618,-1.948455810546875,3.6580581665039062,2.6928863525390625,8.728271484375,-1.506584167480483,-5.9317626953125,7.0,5.0,09-26,0.7283903757731119
08-13,1.1656360626220703,1.9512786865234375,-1.9646568298339844,1.7698249816894531,-0.08069610595704546,-1.9230308532714773,-2.180419921875,3.101806640625,3.689544677734375,7.1537017822265625,-2.0678558349609517,-6.360443115234361,6.0,6.0,09-27,0.3545575141906732
08-14,1.1404705047607386,2.5221595764160156,-1.2203330993652344,1.6201438903808594,-0.044834136962904836,-1.9503593444824219,-3.9618415832519673,2.41357421875,3.679962158203125,6.434425354003906,0.02954864501953125,-6.210899353027358,7.0,5.0,09-28,0.3710014025370241
08-15,1.3836669921875,2.3261871337890625,-0.6923942565917969,1.276763916015625,0.9503555297851491,-2.2420005798339844,-4.230915069580078,2.1118850708007812,3.632049560546875,7.0565032958984375,0.7779083251953125,-6.131156921386733,8.0,4.0,09-29,0.5182377497355125
08-16,2.197093963623047,3.033405303955078,-2.016563415527351,1.0125999450683594,1.1475830078125,-2.0961799621582102,-5.511310577392578,3.2526626586914062,2.8653945922851562,6.735755920410142,-1.3096466064452983,-5.871948242187528,7.0,5.0,09-30,0.2865705490112269
08-17,2.2222537994384766,2.4880905151367116,-1.8348159790039062,0.8805084228515696,0.3675804138183594,-1.7589683532714915,-4.778339385986328,2.65869140625,4.226226806640625,5.4235763549804545,-1.5262680053710938,-5.612747192382827,7.0,5.0,10-01,0.22964906692504586
08-18,2.071304321289059,2.5647850036621023,-0.4067649841308594,1.0037689208984375,0.7979240417480469,-2.7159156799316406,-3.59070587158201,1.6781768798828125,4.724555969238281,4.7432098388671875,-1.742919921875,-4.665657043457031,7.0,5.0,10-02,0.3718134562174488
08-19,1.7945728302001989,3.118621826171875,-0.16445159912110086,1.0301971435546875,1.6586265563964915,-4.438442230224609,-2.9226531982421804,0.40540313720703125,4.619117736816406,4.772369384765625,-2.5109710693359375,-4.4762496948242045,7.0,5.0,10-03,0.24051173528035688
08-20,1.7358760833740199,3.076000213623047,-1.7482948303222656,1.1446647644042898,0.8427619934082102,-4.092113494873047,-1.9577026367187358,0.2922821044921875,6.123695373535156,5.141716003417969,-3.4759597778320312,-4.336677551269531,7.0,5.0,10-04,0.22885402043660572
08-21,0.6624851226806641,3.0760231018066406,-3.3753929138183594,1.4616470336913991,1.2372512817382812,-4.2561683654785085,-0.343292236328125,0.245147705078125,6.6507568359375,4.5779800415039205,-3.9190750122070312,-4.087440490722656,7.0,5.0,10-05,0.16082684199015418
08-22,0.5199203491210938,3.169757843017578,-1.7655868530273438,1.047801971435554,0.618621826171875,-3.9098358154296875,1.6979293823242188,-0.9427947998046875,5.769111633300781,4.684890747070327,-5.110542297363281,-6.240814208984375,7.0,5.0,10-06,-0.038461685180662286
08-23,1.0146865844726562,4.064445495605476,-1.8781051635742188,1.329559326171875,-0.09862136840820312,-3.29010009765625,2.096893310546875,-1.1596527099609375,6.257850646972656,4.9473342895507955,-5.1893310546875,-4.5460205078125,6.0,6.0,10-07,0.29574489593506037
08-24,1.1153182983398438,4.618312835693359,-2.2589073181152344,1.311962127685554,0.053794860839850855,-3.1807403564453054,1.4195785522460938,-1.3859176635742188,6.765754699707031,3.19775390625,-3.603973388671861,-4.5360565185546875,7.0,5.0,10-08,0.29307333628336885
08-25,1.324951171875,4.550144195556641,-1.4713287353515625,1.8138465881347656,0.17034912109375,-4.347305297851555,2.9133834838867188,-1.8478927612304688,5.510353088378906,2.5562744140625,-4.3621826171875,-3.1403427124023438,7.0,5.0,10-09,0.30585416158040424
08-26,1.593301773071289,4.652393341064453,-1.7482872009277344,1.6729698181152344,0.026901245117194605,-3.681976318359375,1.8278274536132812,-1.7253265380859375,6.43994140625,3.0422592163085938,-6.114936828613281,-3.6089019775390625,7.0,5.0,10-10,0.19801378250122129
08-27,1.660390853881836,3.536151885986328,-3.6004066467285085,1.0301933288574219,0.91448974609375,-3.71844482421875,0.9463691711425781,-2.9603805541992188,6.324943542480469,1.1469268798828125,-4.943145751953111,-5.054466247558608,7.0,5.0,10-11,-0.39311488469441674
08-28,2.1551609039306534,4.643863677978523,-2.483936309814453,0.18491744995117188,0.8606910705566406,-3.7366714477539134,1.7814598083496165,-2.668121337890625,6.33453369140625,-1.4287948608398295,-5.297630310058594,-1.6050643920898438,6.0,6.0,10-12,-0.10496600468953361
08-29,3.018892288208008,4.899494171142578,-2.1031150817871094,0.23775100708007812,0.5020828247070312,-5.094631195068359,2.690704345703125,-3.497772216796875,6.094940185546875,-2.2160873413085938,-5.130249023437514,-1.575164794921875,6.0,6.0,10-13,-0.18109623591105262
08-30,2.9937343597412145,4.856895446777344,-1.3847694396972585,0.6339797973632812,1.9006843566894531,-6.416126251220703,2.9783401489257812,-2.856689453125,5.165382385253906,-2.2160873413085938,-5.819519042968764,-0.34893035888671875,6.0,6.0,10-14,-0.04275878270467152
08-31,3.0692062377929688,4.618282318115234,-1.531909942626946,0.545928955078125,2.7613906860351634,-7.619148254394531,2.5979461669922017,-2.1872787475585938,4.5520477294921875,-3.0519866943359233,-3.269172668457017,-0.8274612426757812,6.0,6.0,10-15,-0.028512954711909327
09-01,3.983255386352532,3.6724777221679688,-0.42408370971678977,0.20252227783202414,3.1827659606933594,-7.427768707275391,3.5907096862792898,-2.1778640747070312,4.417877197265625,-4.597419738769531,-3.7418441772460795,-3.0506210327148438,6.0,6.0,10-16,-0.19749943415323892
09-02,4.117422103881825,3.289031982421875,0.21637344360351562,0.3962440490722585,2.5731163024902415,-7.199916839599609,2.9597854614257812,-3.3657913208007812,5.357025146484375,-4.1114349365234375,-4.4015731811523295,-5.802162170410156,7.0,5.0,10-17,-0.49765666325887015
09-03,3.983255386352532,2.675567626953125,0.9347114562988281,0.9773674011230398,2.9407005310058736,-6.862712860107422,2.124736785888672,-3.2338104248046875,5.452857971191406,-0.7581329345703125,-4.116012573242173,-2.7216262817382812,7.0,5.0,10-18,0.11640850702921668
09-04,2.85117340087891,2.7096290588378906,-0.0519256591796875,1.7610130310058594,2.7165603637695384,-7.382194519042969,2.24536895751951,-3.0735397338867188,5.4911956787109375,-1.3218765258789205,-6.3709564208984375,-2.372711181640639,6.0,6.0,10-19,-0.23318862915039387
09-05,2.1300182342529297,2.769287109375,0.8741302490234375,2.104412078857429,2.833110809326179,-6.880943298339851,1.6886482238769531,-2.8943939208984375,5.127037048339844,-3.0714111328125284,-5.642280578613281,0.2891082763672017,8.0,4.0,10-20,-0.05610640843709369
09-06,2.1635360717773438,2.3858413696289134,-0.043281555175774145,1.9371070861816477,3.8013839721679545,-5.4774169921875,1.8278236389160014,-2.8095474243164062,5.510368347167969,-3.81982421875,-4.263710021972685,-0.9072113037109375,6.0,6.0,10-21,0.025422414143877248
09-07,1.777801513671875,3.2464370727539062,-0.8654937744140554,1.1006317138671804,3.6220779418945312,-4.256156921386719,2.291759490966797,-3.5920486450195312,4.78204345703125,-3.5282669067382812,-1.2997970581054688,0.8972396850585938,7.0,5.0,10-22,0.34801896413167316
09-08,1.4004478454589844,2.9993324279785156,-1.159748077392571,1.0830192565917969,3.944835662841797,-3.15338134765625,1.7164878845214986,-2.5738372802734375,4.619110107421875,-4.12115478515625,-1.1816177368164062,1.6748504638672017,7.0,5.0,10-23,0.4373620351155629
09-09,1.2159481048583984,2.905597686767578,-0.1125030517578125,1.2943458557128906,4.563453674316406,-2.9984474182128906,1.9391746520996165,-1.4047698974609375,3.9099655151367188,-4.461357116699219,-2.4026412963867188,-0.14953613281247158,6.0,6.0,10-24,0.3582692146301299
09-10,1.1320934295654297,0.843578338623054,0.5279388427734375,0.528289794921875,3.460693359375,-2.6885833740234446,2.7463874816894673,-1.2727737426757812,3.7470474243164062,-4.743217468261719,-1.713356018066392,0.5483093261718892,8.0,4.0,10-25,0.2597006162007685
09-11,1.4171848297119105,0.3152809143066406,1.4713096618652415,0.2025146484375,3.4427642822265625,-2.916431427001953,3.6092605590820312,-1.4236221313476562,3.8332977294921875,-8.203414916992173,-1.240699768066392,-0.04985046386717329,7.0,5.0,10-26,0.038132826487227156
09-12,0.8888893127441406,0.4857025146484304,0.406768798828125,0.123291015625,3.765522003173828,-0.8384666442871094,4.342266082763672,-1.4236221313476562,3.1528854370117188,-9.049034118652315,-0.6695861816406392,-0.7277603149414062,7.0,5.0,10-27,0.0380713144938157
09-13,0.9815196990966797,0.3919677734374929,0.3894767761230469,-0.6339530944824219,4.079315185546875,-0.7655525207519602,4.249485015869141,-1.1973342895507812,3.8237075805664062,-10.438941955566392,-1.0437774658203125,-1.6150360107421875,6.0,6.0,10-28,-0.14826027552286783
09-14,0.4342174530029297,0.1789245605468679,-0.2423248291015625,-0.9157142639160156,3.5503692626953125,-2.178203582763672,3.9247398376464844,-1.037078857421875,3.4691238403320312,-10.380630493164062,1.378570556640625,-3.065032958984375,6.0,6.0,10-29,-0.406919956207276
09-15,-1.0277824401855398,-0.4686546325683594,-0.6058425903320312,-0.862884521484375,3.4517364501953125,-1.3761749267578125,3.1917572021484375,-1.5367431640625,4.0537109375,-10.633354187011719,1.69366455078125,-5.627342224121094,4.0,8.0,10-30,-0.8123257954915358
09-16,-1.2877483367919886,-0.4090156555175781,0.034622192382819605,-0.9685478210449219,3.3082923889160156,-1.4217567443847585,2.6072463989257812,-1.244476318359375,2.3862228393554688,-10.827743530273438,2.3554229736328125,-5.0690536499023295,5.0,7.0,10-31,-0.8780446052551243
09-17,-1.1452026367187358,-0.0340576171875,0.5279502868652344,-0.6603775024414062,3.6310386657714844,-0.419239044189446,3.1824874877929688,-5.2702407836914205,0.97747802734375,-9.316055297851548,2.5644454956054688,-3.2646026611328125,5.0,7.0,11-01,-0.7688646316528303
09-18,-0.6829261779785121,-0.3493461608886719,-0.47601318359375,-0.7220306396484446,2.994487762451172,-0.5194931030273366,4.815444946289077,-6.46337890625,1.872039794921875,-9.022506713867188,1.294189453125,-1.7474136352539205,4.0,8.0,11-02,-0.7505788803100583
09-19,-1.2546157836914062,-0.25524139404296164,-2.0079269409179688,-0.9949913024902344,3.0931053161621094,0.5012702941894531,5.502044677734375,-7.239898681640625,2.0840988159179688,-8.575393676757798,1.7373046875,0.987709045410142,6.0,6.0,11-03,-0.5352112452189122
09-20,-1.5745716094970703,-0.16968154907226562,-0.7702980041503906,-1.23272705078125,3.5144996643066406,0.9478454589843679,7.79388427734375,-7.0595245361328125,1.5474319458007812,-7.953330993652344,0.45389556884764204,5.087715148925753,6.0,6.0,11-04,0.04876152674356682
09-21,-1.3472290039062464,0.46988677978515625,0.4846649169921875,0.40505218505859375,3.128986358642578,0.7372703552246094,6.8995132446289205,-6.7766876220703125,1.5186843872070312,-6.598274230957017,-6.8648223876953125,6.457710266113281,8.0,4.0,11-05,-0.12377039591471088
09-22,-1.6245746612548864,0.6743736267089844,1.246307373046875,-2.78240966796875,3.5250167846679688,1.2682533264160227,6.299888610839844,-7.757209777832031,1.1516265869140625,-6.0519027709960795,-8.958747863769531,5.070411682128892,7.0,5.0,11-06,-0.6615805625915524
09-23,-1.842620849609375,0.9385223388671875,2.3454666137695384,-2.428642272949226,3.2550010681152344,2.722846984863274,6.355560302734375,-7.1728515625,0.4820098876953125,-7.9244537353515625,-8.968620300292969,7.253700256347642,7.0,5.0,11-07,-0.41534010569254737
09-24,-1.3813838958740234,1.3429794311523366,1.514587402343757,-1.9952468872070384,3.777069091796875,2.6681671142578054,7.357608795166016,-5.9732666015625,-0.566436767578125,-5.759315490722642,-8.552543640136719,7.134063720703111,6.0,6.0,11-08,-0.03614314397176225
09-25,-0.4819145202636719,1.7100715637207031,1.4885215759277344,-2.510814666748047,3.911552429199226,2.813983917236328,7.627490997314453,-3.2081756591796875,-0.6914825439453125,-3.1997222900390625,-9.153213500976577,11.153579711914062,6.0,6.0,11-09,0.7883230845133458
09-26,-1.4805908203125036,1.6416206359863352,1.4015655517578125,-2.352344512939453,3.633617401123047,2.4683151245117188,8.730899810791001,-1.8729705810546875,-0.6722793579101562,-3.044189453125,-8.95627593994142,11.584365844726577,6.0,6.0,11-10,0.9234778086344392
09-27,-0.9838123321533203,1.5988540649414062,-0.19572830200195312,-2.185039520263679,3.594390869140632,3.0191307067871094,7.976276397705078,-2.1678619384765625,-0.47104644775390625,-2.791473388671875,-8.798995971679688,11.154365539550795,5.0,7.0,11-11,0.8124216397603364
09-28,-1.0511703491210938,1.3621673583984375,1.5092544555664062,-2.8391685485839844,3.9201087951660156,3.7332305908203125,8.525936126708999,-2.98809814453125,-0.9885406494140625,-2.1887969970702983,-8.977432250976562,15.594367980957045,6.0,6.0,11-12,1.3009881973266637
09-29,-1.0679073333740234,1.2513885498046875,0.7995719909667969,-3.086700439453125,4.3431396484375,3.467742919921882,7.811588287353516,-1.668182373046875,-1.1836395263671875,-3.0371856689452983,-9.392272949218764,15.335166931152344,6.0,6.0,11-13,1.1310591697692878
09-30,-1.0511398315429688,1.1576805114746094,2.6356468200683594,-3.2016830444335938,4.055118560791023,4.34228515625,6.865180969238274,-5.341514587402358,-2.5439376831054688,-5.494903564453125,-9.747840881347656,14.756950378417969,6.0,6.0,11-14,0.5359869003295886
10-01,-0.2628631591796875,1.3017463684082031,5.219097137451172,-3.856182098388672,3.815467834472649,5.654685974121101,5.677581787109375,-4.8966522216796875,-1.889862060546875,-4.899971008300781,-7.597000122070298,14.258476257324219,6.0,6.0,11-15,1.0437103907267264
10-02,-0.31441497802734375,0.6861763000488281,4.853954315185547,-4.952369689941399,4.541683197021484,5.590885162353523,2.885498046875,-3.3247299194335795,-1.870635986328125,-5.5619125366210795,-5.3125228881835795,15.105873107910156,6.0,6.0,11-16,1.027290344238286
10-03,-0.47236824035644176,0.7032661437988281,5.210407257080078,-5.093242645263672,5.034793853759766,4.678592681884773,3.1573104858398438,-3.4478225708007955,-2.5227432250976562,-5.4161224365234375,-4.9580307006835795,13.411079406738281,6.0,6.0,11-17,0.8570933341979989
10-04,0.1254425048828125,0.07018280029296875,3.4180374145507812,-5.339786529541023,4.5231475830078125,4.459381103515625,3.6976470947265767,-2.0799636840820312,-2.2448348999023438,-4.531616210937472,-6.422668457031264,13.411079406738281,7.0,5.0,11-18,0.7571706771850604
10-05,0.29384422302246094,-0.7731666564941406,2.5439071655273438,-5.780986785888672,4.424598693847663,5.054454803466797,3.5765151977539062,-2.0893936157226562,-2.2448348999023438,-1.9663619995117188,-6.168190002441406,13.411079406738281,6.0,6.0,11-19,0.8567887941996263
10-06,-0.06780433654785156,-0.7476158142089773,1.8342208862304688,-5.2951812744140625,4.280590057373054,4.605861663818359,5.614051818847656,-2.5890655517578125,-2.0604934692382812,-0.9991836547851562,-5.7928695678710795,13.401115417480469,5.0,7.0,11-20,1.015302181243899
10-07,-0.2690601348876953,-0.5345916748046804,1.7104034423828054,-4.63184738159179,3.9295539855957102,5.625946044921875,4.686237335205078,-1.6368255615234517,-2.3879547119140625,-2.0719985961914205,-5.63482666015625,12.982398986816406,5.0,7.0,11-21,0.9806195894877104
10-08,-0.4954853057861328,-0.670513153076179,0.8721427917480469,-4.63184738159179,3.6229629516601562,4.741901397705078,3.8047637939452983,-1.8628005981445455,-2.5610809326171875,-2.0719985961914205,-3.6845321655273438,11.447120666503906,5.0,7.0,11-22,0.7092194557189906
10-09,-1.1921501159667933,-0.83203125,0.3678855895996094,-3.9625396728515625,3.9188194274902344,5.981376647949219,3.4531326293945312,-1.3040924072265483,-2.5610809326171875,-1.0251541137695312,-5.358512878417969,11.158012390136719,5.0,7.0,11-23,0.72030544281006
10-10,-1.2259445190429723,-0.455596923828125,0.3678855895996094,-3.5311012268066406,2.878826141357422,6.87420654296875,3.7338180541992045,-1.3040924072265483,-1.5414581298828125,2.1823577880859375,-5.191116333007798,9.931777954101562,6.0,6.0,11-24,1.059963544209799
10-11,-0.9396495819091939,-0.455596923828125,0.31743621826171875,-3.601531982421875,2.6016273498535156,8.397663116455078,3.323883056640625,0.709228515625,-1.4360580444335938,3.0085372924804688,-4.618186950683594,9.931777954101562,7.0,5.0,11-25,1.4365941683451322
10-12,-0.9396495819091939,-0.900653839111321,-0.5740051269531321,-3.584014892578125,2.270263671875,8.617366790771484,3.323883056640625,0.152984619140625,-1.5606307983398438,2.1407928466796875,-5.311004638671875,9.931777954101562,6.0,6.0,11-26,1.1305925051371244
10-13,-1.158273696899414,-1.2244300842285085,-0.16722488403320312,-3.1851539611816406,2.306255340576179,8.617366790771484,4.1048812866210795,0.218994140625,-2.55975341796875,2.044921875,-4.4912261962890625,10.410308837890625,6.0,6.0,11-27,1.2430555025736492
10-14,-1.871061325073235,-1.1562843322753835,-1.3045768737792969,-3.0347900390625,2.306255340576179,8.361907958984368,4.559539794921875,0.33447265625,-2.2708282470703125,1.8401031494140625,-4.4912261962890625,11.526870727539062,6.0,6.0,11-28,1.2333652178446464
10-15,-0.8731594085693395,-0.08765792846679688,-0.6743965148925781,-3.459320068359375,3.0329208374023438,8.134056091308587,4.5409622192382955,0.19312286376953125,-1.7995071411132812,0.48447418212890625,-2.241302490234389,11.626571655273438,6.0,6.0,11-29,1.5730636914571117
10-16,-0.43603515625,-0.24997711181640625,0.7601356506347656,-3.8016433715820312,2.6653366088867116,7.213558197021477,4.9514923095703125,0.5719070434570312,-1.635986328125,-1.1816024780273438,-2.5268630981445455,11.61660003662108,6.0,6.0,11-30,1.4955768585205043
10-17,-1.2357749938964844,-0.6435203552246094,1.1600494384765625,-4.585289001464851,1.6791305541992259,6.274921417236335,4.942741394042997,-0.17618560791015625,-1.0491180419921875,-0.6178588867187358,-3.59033203125,12.812919616699219,5.0,7.0,12-01,1.2476402918497762
10-18,-1.0589523315429688,-0.8317451477050781,2.1206207275390696,-4.356365203857422,1.8066749572753906,5.017036437988281,4.448974609375,-2.722709655761733,-0.6849594116210938,0.11114501953126421,-4.534797668457031,12.812919616699219,6.0,6.0,12-02,1.0106534957885749
10-19,-0.8989734649658168,0.5526771545410085,3.0380325317382812,-3.83612060546875,1.4569244384765625,4.879726409912109,4.905471801757827,-2.807556152343764,-0.7232818603515625,-0.11302185058595171,-5.354248046875,12.812919616699219,6.0,6.0,12-03,1.1593791643778468
10-20,-0.37851905822753906,-0.3079185485839844,2.6572113037109446,-4.135898590087891,1.5019264221191406,5.10859298706054,3.472625732421875,-2.326713562011733,-0.4423370361328125,0.42223358154296875,-5.462890625,11.008468627929688,6.0,6.0,12-04,0.9263984362284331
10-21,-0.0011653900146484375,1.728546142578118,2.0072860717773438,-4.772705078125,0.8178749084472727,4.99456787109375,4.047897338867173,-2.5963897705078125,-1.0585479736328125,0.42223358154296875,-4.771507263183594,10.23085784912108,7.0,5.0,12-05,0.9207456906636532
10-22,-0.46236610412597656,2.2591400146484304,1.3855857849121023,-4.657707214355469,-0.16077804565429688,5.596088409423828,2.730377197265625,-2.1898651123046875,-0.6160812377929688,0.8221054077148438,-4.469047546386733,9.662605285644517,6.0,6.0,12-06,0.8250047365824346
10-23,-0.6314945220947266,2.6961441040039062,1.646411895751946,-3.7413063049316335,0.6371536254882812,4.511539459228516,2.190460205078125,-3.1084060668945455,0.2881011962890625,-0.3784637451172017,-5.168182373046889,9.622726440429688,7.0,5.0,12-07,0.7137236595153773
10-24,-0.32839012145996094,2.0972824096679688,1.1769256591796804,-3.4859771728515554,0.4488792419433594,4.512096405029304,3.1123809814453125,-2.7106857299804688,-0.596527099609375,3.120620727539034,-5.138633728027358,10.510002136230469,7.0,5.0,12-08,1.0598311424255342
10-25,-0.23577880859375,1.8919525146484375,2.197986602783203,-3.3803138732910085,0.0463714599609375,5.640968322753906,2.99127197265625,-3.013702392578125,0.0072174072265625,1.9445343017577983,-5.502464294433594,10.510002136230469,8.0,4.0,12-09,1.0915037790934239
10-26,-0.20208168029786222,1.4894828796386719,1.6786842346191406,-3.3081703186035156,0.6940650939941406,5.293056488037109,2.4136428833007812,-2.3254776000976562,-0.4240264892578125,1.57086181640625,-5.689147949218736,10.510002136230469,7.0,5.0,12-10,0.9750742912292484
10-27,0.37047767639160156,1.4639320373535156,1.4017372131347585,-2.9646682739257812,0.6040534973144531,5.640968322753906,2.2539443969726562,-2.33489990234375,0.7458877563476562,-0.04876708984375,-5.145919799804702,11.959999084472656,8.0,4.0,12-11,1.1622287432352685
10-28,1.0777606964111293,1.4127731323242188,0.8273773193359375,-2.8939361572265554,0.3250274658203125,4.042442321777344,1.41888427734375,1.42041015625,1.6929168701171875,-0.6924514770507812,-5.827423095703139,15.270004272460938,9.0,3.0,12-12,1.5061488151550284
10-29,0.8167400360107422,1.7537956237792969,2.5877342224121094,-2.9292984008789062,-0.4946136474609304,4.242950439453118,0.9642639160156108,3.1343841552734375,1.0965576171875,-1.12158203125,-5.866943359375,14.669998168945327,8.0,4.0,12-13,1.5711655616760254
10-30,0.8420085906982457,1.9249229431152273,1.900909423828125,-3.079662322998047,-0.09116363525389914,3.6232070922851562,0.15840911865234375,3.001800537109375,0.27895355224609375,-1.404411315917983,-6.597846984863281,13.520004272460938,8.0,4.0,12-14,1.1730942726135245
10-31,1.3892955780029297,1.7794647216796804,1.6574592590332031,-3.079662322998047,-0.629108428955071,3.4056587219238352,-2.6644668579101562,2.7745437622070312,-0.36551666259765625,-1.979827880859375,-5.511383056640625,9.419998168945327,6.0,6.0,12-15,0.5163712501525897
11-01,1.3556270599365234,1.6682510375976491,2.6068992614746094,-4.708625793457031,-0.21600341796875,2.6641159057617188,-2.9532852172851562,2.30108642578125,-0.69256591796875,-3.1696548461914205,3.3483123779296875,9.419998168945327,7.0,5.0,12-16,0.9686795870463047
11-02,1.4566593170166016,1.4971427917480469,1.706787109375,-1.8307876586914134,-0.3420143127441406,1.95001220703125,-2.4781646728515625,2.0170135498046875,0.086578369140625,-3.393974304199247,5.2348175048828125,9.419998168945327,8.0,4.0,12-17,1.2770056724548322
11-03,1.3050956726074183,1.3688278198242188,0.3047027587890554,-2.432209014892578,0.26102447509765625,1.9134025573730398,-1.2204666137695455,2.0643539428710938,-0.5482635498046875,-1.501922607421875,5.58050537109375,8.050003051757798,8.0,4.0,12-18,1.2620878219604454
11-04,1.4566574096679688,0.37643814086914773,1.2084808349609304,-2.0253639221191477,0.35103225708008523,2.70074462890625,0.20493316650390625,1.4677810668945455,1.0869293212890625,-3.1598892211914062,4.6224365234375,8.559997558593764,10.0,2.0,12-19,1.4041814804077173
11-05,0.9177703857421875,0.8469467163085866,2.3213119506835938,-1.8661537170410156,1.1700973510742188,1.4831199645996165,0.0,-1.3257369995117188,0.6925506591796875,-3.8425979614257812,4.365638732910142,4.6999969482421875,8.0,4.0,12-20,0.7885786692301421
11-06,0.648336410522468,0.65875244140625,1.3040924072265625,-1.8484992980957031,0.6390571594238281,1.336639404296882,-0.9316329956054545,-0.5018768310546875,0.7021713256835938,-8.299636840820327,3.5458450317382812,4.010002136230469,8.0,4.0,12-21,0.10527086257934688
11-07,-0.08419609069824574,0.8640785217285085,3.1994094848632812,-0.7517929077148438,1.5031166076660085,1.6845321655273509,-1.2483825683593608,-0.3314208984375,0.58673095703125,-9.284660339355469,3.634735107421861,4.44000244140625,7.0,5.0,12-22,0.3510127067565909
11-08,0.13472557067871094,0.932514190673821,3.312450408935547,-0.1768951416015625,0.4770355224609375,1.4464874267578196,-0.735992431640625,-2.2537460327148438,0.5771102905273438,-9.30416870117189,4.207611083984361,4.44000244140625,8.0,4.0,12-23,0.2547612190246558
11-09,0.22734069824219105,0.97528076171875,4.381805419921875,0.15035247802735086,0.5760536193847656,1.4098777770996094,-0.1304168701171875,-1.65716552734375,1.5101318359375,-9.050605773925795,6.301536560058608,4.44000244140625,9.0,3.0,12-24,0.7611827850341806
11-10,0.2946987152099645,0.5047492980957031,4.103610992431641,0.2653350830078196,0.5760536193847656,1.4098777770996094,-0.680076599121108,1.8276138305664205,1.3658523559570312,-6.592887878417969,6.301536560058608,0.0,9.0,3.0,12-25,0.7813636461893738
11-11,0.2862758636474645,0.6929817199707031,3.147258758544922,-0.11498641967773438,1.0170860290527344,1.995807647705071,-0.698699951171875,1.4298858642578125,0.16352081298828125,-8.016792297363281,6.706497192382827,0.0,8.0,4.0,12-26,0.5507362683614104
11-12,0.5894031524658239,1.6682510375976562,3.486316680908203,0.08844757080078125,1.7911529541015554,2.0782127380371023,1.406768798828125,-0.4639892578125,0.2982025146484375,-11.771621704101562,6.429931640625,0.0,9.0,3.0,12-27,0.46675634384155185
11-13,0.14313316345214488,1.5741539001464844,3.8253860473632812,0.34494400024414773,1.1701011657714844,2.2796249389648438,1.807373046875,0.09471130371092329,-0.1923980712890625,-10.347740173339844,5.0471420288085795,0.0,9.0,2.0,12-28,0.47886927922566525
11-14,-0.286285400390625,1.7452621459960938,3.7732276916503906,1.3266639709472727,1.3231239318847656,2.4993209838867116,1.1179656982421733,0.6249923706054545,0.0096282958984375,-10.05514526367189,4.207603454589844,0.0,9.0,2.0,12-29,0.5238631566365525
11-15,-0.2694377899169922,1.830810546875,2.8690414428710938,1.5389289855957102,1.6651420593261719,2.178905487060554,1.4999237060546733,0.32196807861329546,0.134674072265625,-12.698165893554688,4.800231933593764,0.0,9.0,2.0,12-30,0.322668552398684
11-16,-0.2946968078613317,2.3184547424316406,3.051605224609375,1.3974189758300781,1.7461471557617188,2.654949188232422,1.807373046875,0.14205169677734375,-0.47132110595703125,-13.56613922119142,4.622451782226548,0.0,8.0,3.0,12-31,0.2840245564778619
11-17,-0.4630985260009801,2.2671165466308523,3.6341171264648438,0.7340850830078054,1.7461471557617188,2.654949188232422,1.9285049438476705,0.1325836181640767,-0.02886199951171875,-12.493324279785156,4.622451782226548,0.0,8.0,3.0,01-01,0.39455588658650687
11-18,-0.20208168029785512,2.1644630432128906,3.355907440185547,0.353778839111321,2.475200653076172,2.847209930419922,0.5682830810547017,0.06629943847657671,1.2311935424804688,-12.171485900878892,5.353347778320298,0.0,9.0,2.0,01-02,0.5035096804300959
11-19,-0.04209709167481179,1.9334602355957031,4.381805419921875,0.6898651123046804,3.078277587890625,2.9936904907226562,0.3354034423828267,-0.5208206176757955,0.77911376953125,-10.83535766601561,5.057037353515625,0.0,8.0,3.0,01-03,0.654198169708252
11-20,-0.01682090759277699,1.3260459899902344,4.103603363037109,1.5831642150878906,3.5283164978027344,3.0669326782226562,-0.6241989135742045,-0.7481002807617188,1.4813003540039062,-13.780708312988281,4.8594970703125,0.0,7.0,4.0,01-04,0.3982526461283375
11-21,-0.7914829254150284,1.7965850830078125,4.199230194091797,1.6008682250976562,3.3392982482910156,1.5929679870605469,-1.1179428100585938,-1.1552734375,0.6252212524414062,-12.990730285644531,4.266868591308594,0.0,7.0,4.0,01-05,0.11380084355672289
11-22,-0.37048530578612215,1.5399322509765696,3.9644927978515625,1.0082855224609375,2.6372108459472727,1.1993293762207031,-1.6489791870117045,-1.1931304931640625,1.2889328002929688,-13.380844116210938,3.516204833984375,0.0,7.0,4.0,01-06,-0.11992088953653646
11-23,-0.40417289733885653,2.0960197448730398,4.755653381347656,1.1763229370117188,2.3492164611816406,-0.6774673461914062,-2.0309524536132812,-1.72344970703125,0.9041748046875,-14.443893432617188,3.0520095825195312,0.0,6.0,5.0,01-07,-0.41221157709757456
11-24,0.2020893096923828,1.223388671875,5.112110137939453,1.6185379028320312,2.0341949462890625,-1.3091583251953125,-2.8880615234375,-1.74237060546875,-0.2308502197265625,-12.308021545410156,3.0618896484375,0.0,6.0,5.0,01-08,-0.4355209668477376
11-25,-0.05894660949707031,1.3260498046875,4.729579925537109,1.2470664978027344,2.3132057189941406,-0.9063415527343679,-3.4377365112304688,-2.4620513916015625,0.16352081298828125,-11.449783325195312,1.9359054565429688,0.0,6.0,5.0,01-09,-0.5499609311421706
11-26,0.707275390625,0.9581756591796875,3.2081069946289062,3.4758644104003906,3.456317901611328,-0.9246520996093821,-3.5681610107422017,-2.81243896484375,0.44245147705078125,-9.918601989746094,0.6518936157226847,0.0,7.0,4.0,01-10,-0.36031405131022076
11-27,0.707275390625,1.2747116088867188,3.1559371948242188,3.4227867126464844,2.934284210205078,-0.8880271911621094,-4.891075134277358,-2.6419830322265625,-0.33666229248046875,-8.601966857910142,0.38520050048829546,0.0,6.0,5.0,01-11,-0.45662657419840375
11-28,0.5557041168212891,1.3260612487792969,3.2950477600097656,3.1839866638183594,2.9612770080566406,0.7873382568359375,-4.285507202148423,-3.4563522338867045,-1.1927337646484375,-10.289192199707017,1.0864715576172017,0.0,7.0,4.0,01-12,-0.5023248990376743
11-29,0.5809669494628906,1.6511611938476634,2.764720916748047,3.0159454345703125,2.547222137451172,0.3387298583984304,-4.3414230346679545,-2.4999465942382955,-1.8179397583007812,-10.113647460937472,2.5087661743164062,0.0,7.0,4.0,01-13,-0.4471203486124651
11-30,0.5978298187255859,2.1644668579101562,0.8780937194824148,2.839073181152351,2.7722434997558594,0.24718093872070312,-4.322792053222642,-0.132568359375,-2.6355514526367188,-9.235893249511705,3.7335052490234375,0.0,7.0,4.0,01-14,-0.2578676541646298
12-01,0.4883518218994105,1.1634902954101562,1.0606651306152344,3.617389678955078,1.9441604614257812,0.0640716552734446,-5.645683288574219,-0.9848327636718892,-1.8564224243164062,-9.489463806152344,4.138458251953125,0.0,7.0,4.0,01-15,-0.45831791559855234
12-02,0.35363197326660156,0.590301513671875,0.7389945983886719,3.7854270935058594,2.9522552490234304,-0.6866302490234304,-4.6767730712890625,-1.2405090332031392,-1.740997314453125,-10.240447998046875,4.0693206787109375,0.0,6.0,5.0,01-16,-0.5079522132873547
12-03,0.6988582611083984,-0.017124176025390625,0.19127273559570312,4.0684661865234375,3.411293029785149,-1.6753807067871094,-4.238929748535156,-0.04734039306639204,-1.4428253173828125,-9.411460876464844,3.9507980346679688,0.0,5.0,6.0,01-17,-0.37603108088175397
12-04,0.30312347412109375,0.5646324157714844,0.1999664306640625,3.9711456298828196,3.7713279724121094,-1.8035316467285156,-5.0680694580078125,0.11363220214845171,-1.7506179809570312,-8.026550292968736,4.8693618774414205,0.0,7.0,4.0,01-18,-0.23796494801838777
12-05,0.11788558959960938,0.8127365112304688,0.37384033203125,3.82080078125,3.528308868408203,-1.5197525024414062,-5.096046447753906,-0.03787231445311079,-2.077667236328125,-6.748931884765625,4.701454162597656,0.0,6.0,5.0,01-19,-0.1771036783854155
12-06,-0.3367881774902344,1.3260383605957031,1.1997909545898438,3.4404869079589915,2.979248046875,-1.922546386718757,-5.729557037353523,-0.30301666259765625,-1.2792892456054688,-6.748931884765625,4.573043823242173,0.0,5.0,6.0,01-20,-0.23346010843912937
12-07,0.2105121612548828,1.1891746520996094,1.2432708740234375,3.422782897949226,3.0692596435546875,-1.2908592224121094,-5.682956695556641,0.0,-1.4813003540039062,-4.934913635253906,5.521255493164077,0.0,6.0,5.0,01-21,0.1055188179016131
12-08,-0.21893119812010653,1.6853790283203125,1.9388008117675781,3.7677345275878835,2.3851966857910156,-1.5288810729980469,-5.375499725341804,-0.6817855834960795,-0.6348419189453125,-3.101402282714858,4.63232421875,0.0,5.0,6.0,01-22,0.23900779088338187
12-09,-0.2441883087158203,1.6426048278808594,1.4258270263671875,4.024219512939446,2.322185516357429,-1.7577896118164062,-4.891056060791023,-1.912841796875,1.2793045043945312,-1.3849029541015767,2.9631118774414205,0.0,6.0,5.0,01-23,0.28887287775675397
12-10,0.09260559082030895,1.0095024108886719,1.3997459411621094,3.7500457763671804,2.439220428466797,-0.9612922668457031,-5.21715164184571,-2.8124313354492188,0.173126220703125,-2.6039886474609375,3.684112548828139,0.0,7.0,4.0,01-24,0.07945791880289683
12-11,-0.4294147491455078,0.9581680297851562,1.4258232116699219,3.599689483642578,3.4023056030273366,-1.2267837524414062,-5.738868713378906,-2.0454177856445312,0.30779266357421875,-1.2580947875976562,3.0618743896484375,0.0,6.0,5.0,01-25,0.17142279942830344
12-12,-0.40416908264160156,1.4971542358398438,1.3041000366211009,3.7500534057617188,3.2312774658203125,0.06407928466796875,-4.006019592285156,-1.0132369995117188,1.7025375366210938,-2.4869537353515625,1.4716644287109375,0.0,7.0,4.0,01-26,0.4258739153544114
12-13,-0.40416908264160156,1.4201545715332102,1.8257637023925781,4.0772857666015625,2.3401947021484446,-0.09154510498046875,-5.025993347167962,-0.8901290893554545,1.4524459838867188,-2.867317199707017,3.358184814453139,0.0,6.0,5.0,01-27,0.43290630976359584
12-14,-0.45467948913573863,1.7794609069824219,2.4082374572753906,4.581417083740234,0.09900665283203836,0.1751251220703125,-1.6292343139648438,0.3598480224609517,1.7602462768554688,-3.130645751953125,2.7655715942382812,0.0,8.0,3.0,01-28,0.7261961301167826
12-15,-0.37890434265136363,1.8650093078613281,1.5910148620605469,4.11265945434571,-0.6509666442871094,-0.6340713500976562,-2.328926086425767,0.445068359375,2.3566207885742188,-1.2190933227539205,2.1433029174804688,0.0,6.0,5.0,01-29,0.608476161956788
12-16,-0.45468330383300426,1.2233810424804759,0.8433380126953054,3.4550132751464915,-0.407001495361321,-1.3330955505371023,-2.6922531127929545,0.36933135986328125,2.4720458984375,-0.7412185668945312,1.9847946166992188,0.0,6.0,5.0,01-30,0.39330434799194663
12-17,0.0,1.3517112731933594,1.9735603332519531,4.2370872497558665,-0.7771072387695384,-2.651420593261726,-1.5836334228515483,-0.3408966064453125,1.1157989501953125,-0.3497467041015625,2.91314697265625,0.0,5.0,6.0,01-31,0.4907083511352545
12-18,-0.008415222167965197,0.39353179931640625,2.0346755981445312,4.024543762207031,-1.3261566162109375,-3.887340545654304,-0.11924743652345171,-0.7023162841796875,1.3861083984375,0.3525390625,3.1798171997070455,0.0,6.0,5.0,02-01,0.4439783096313474
12-19,-0.5978260040283203,0.7627906799316406,2.287872314453132,3.5734939575195312,-1.0561370849609375,-3.5266151428222727,1.4550857543945455,-0.4835662841796875,1.1158294677734375,2.644439697265625,3.0020294189453267,0.0,7.0,4.0,02-02,0.7647830645243351
12-20,-0.4033355712890625,1.3038101196289062,1.3704185485839915,3.4673500061035085,-0.8101463317871023,-3.38885498046875,0.9029922485351562,0.26853179931640625,1.3563156127929688,3.2101058959960938,1.9173965454101562,0.0,8.0,3.0,02-03,0.766215324401856
12-21,0.03635787963866122,1.1580848693847656,1.3443336486816477,3.554401397705078,-1.6216506958007812,-2.9934539794921804,-0.0233917236328125,0.85565185546875,1.904571533203125,5.769271850585952,0.491943359375,0.0,8.0,3.0,02-04,0.8730099995931004
12-22,-0.12390327453613637,0.70465087890625,1.3704185485839915,3.9730682373046875,-3.772174835205071,-3.0578231811523438,1.08343505859375,1.1776046752929545,1.2099533081054688,9.944931030273423,2.2059555053710938,0.0,8.0,3.0,02-05,1.2263429959615058
12-23,-0.014446258544921875,0.7816581726074219,0.3852577209472656,3.9552841186523438,-3.1306228637695312,-3.6081466674804616,0.012054443359375,0.03873443603515625,0.6965408325195312,10.238548278808594,1.9186401367187358,0.0,8.0,3.0,02-06,0.939458529154459
12-24,-0.18283843994140625,0.4387931823730469,1.0485649108886719,4.257453918457038,-3.463062286376953,-3.7179908752441264,0.16112518310546875,-0.06352996826171875,-1.6397476196289062,11.432525634765625,3.462272644042983,0.0,6.0,5.0,02-07,0.9777971903483103
12-26,-1.0198879241943395,1.3318939208984375,0.9961814880371094,4.975383758544915,-3.8230857849121094,-3.4501190185546946,-2.120391845703125,-1.06219482421875,-1.1860198974609375,9.922630310058608,3.3733749389648438,0.0,5.0,6.0,02-09,0.6614804267883297
12-27,-0.9184169769287216,1.6582183837890625,0.7779121398925852,4.771965026855469,-3.5793685913085938,-3.447998046875,-0.33312225341795454,-0.2823028564453125,-1.4072723388671875,9.337440490722685,2.8389739990234517,0.0,5.0,6.0,02-10,0.7846690813700402
12-28,-0.69012451171875,1.289287567138679,1.3256454467773509,5.1167335510253835,-3.413867950439453,-4.073295593261719,0.9582061767578267,0.1438140869140625,-2.49420166015625,9.367927551269531,1.285743713378892,0.0,7.0,4.0,02-11,0.7346556981404628
12-29,-0.9523429870605398,1.4347267150878977,0.8040046691894602,4.460697174072266,-3.486164093017571,-3.999725341796882,0.4449157714843608,0.1722259521484375,-4.4266510009765625,7.483734130859375,0.39406585693359375,0.0,7.0,4.0,02-12,0.1941239039103196
12-30,-0.9186668395996023,1.5716171264648509,1.5798759460449219,4.389614105224609,-3.1066551208496094,-3.7893638610839844,0.8361968994140625,0.4185180664062216,-4.375831604003906,7.787117004394531,0.6417694091797017,0.0,7.0,4.0,02-13,0.4195159276326497
12-31,-0.43029975891112926,1.9228248596191406,0.855621337890625,4.638446807861328,-3.2593116760253906,-2.635833740234375,1.7398757934570312,1.9860382080077983,-3.9510650634765625,8.393913269042969,-0.5475921630859375,0.0,6.0,5.0,02-14,0.7260514895121247
