,2009,2010,2011,2012,2013,2014,2015,2016,2017,2018,2019,2020,ups,downs,end_day_sum,avg
01-02,-6.489999771118168,1.6599998474121094,1.1200027465820241,0.050003051757805395,4.409999847412109,-3.1899986267089915,-2.970001220703111,2.2399978637695312,0.8100051879882812,3.6500015258789062,12.620002746582017,1.029998779296875,9.0,3.0,02-16,1.2450009981791157
01-03,-5.469999313354489,1.7999992370605469,1.0800018310546804,0.13000106811522727,4.219997406005859,-2.9099998474121307,-0.5299987792968892,3.220001220703125,0.18000030517578125,3.470001220703125,13.710006713867173,0.6699981689453125,9.0,3.0,02-17,1.6308341026306101
01-04,-5.8899993896484375,1.529998779296875,1.3699989318847585,0.020000457763671875,3.5499992370605398,-2.0800018310546875,-0.04000091552735796,1.8699951171875,-1.0300064086914062,4.650001525878906,11.73000335693358,2.1499938964844034,8.0,4.0,02-18,1.4858318964640287
01-05,-7.069999694824219,1.2599983215332031,1.2899971008300781,0.45999908447265625,3.8699989318847656,-1.730003356933608,0.650001525878892,1.7000045776367188,-0.2700042724609375,3.75,9.819999694824205,2.619995117187514,9.0,3.0,02-19,1.3624989191691057
01-06,-6.209999084472646,0.7099990844726562,1.7199974060058452,0.5600013732910156,3.9099998474121094,-1.519996643066392,1.9200019836425781,2.19000244140625,-0.3000030517578125,3.970001220703125,9.990005493164034,1.2099990844726847,9.0,3.0,02-20,1.512500762939454
01-07,-5.069999694824222,0.7099990844726562,1.80999755859375,0.9599990844726562,4.549999237060547,-2.290000915527358,1.5500030517577983,3.6100006103515625,0.5199966430664062,4.6300048828125,9.600006103515597,2.099998474121108,10.0,2.0,02-21,1.8900003433227501
01-08,-5.880001068115231,1.1200027465820241,2.069999694824226,1.029998779296875,0.5499992370605398,-3.690002441406264,-0.279998779296875,3.4200057983398438,0.220001220703125,3.8600006103515767,8.740005493164077,1.790000915527358,9.0,3.0,02-22,1.079167683919273
01-09,-5.0800018310546875,1.309997558593757,2.0500030517578196,0.7099990844726562,1.0900001525878906,-3.230003356933608,0.3699951171875,3.05999755859375,0.9099960327148438,3.7700042724609375,8.77999877929689,0.34999847412110796,10.0,2.0,02-23,1.1741654078165713
01-10,-5.060001373291016,1.4099998474121165,1.0500030517578196,0.5,1.3899993896484446,-3.2000045776367045,0.7999954223632812,2.9800033569335938,1.44000244140625,4.4900054931640625,7.6800003051757955,-0.8600006103515625,9.0,3.0,02-24,1.0516668955485067
01-11,-6.100000381469723,1.25,-0.020000457763671875,0.6500015258789062,1.1899986267089844,-2.4899978637695312,0.8999938964843608,3.0500030517578125,1.220001220703125,3.910003662109375,8.389999389648452,-4.219993591308608,8.0,4.0,02-25,0.6441674232482901
01-12,-5.120000839233395,1.6199989318847656,-0.40000152587890625,0.979999542236321,1.5900001525878906,-2.7599945068359375,0.9300003051757812,4.070007324218764,0.9300003051757812,4.0500030517578125,8.090003967285142,-6.9899978637695455,8.0,4.0,02-26,0.5825015703837062
01-13,-4.789999008178711,1.5600013732910156,-0.3800010681152344,1.6800003051757812,0.8699989318847656,-2.529998779296861,0.6800003051757955,4.999999999999986,0.6200027465820312,4.749999999999986,7.599998474121108,-9.259994506835966,8.0,4.0,02-27,0.4833340644836414
01-14,-2.939998626708988,1.670001983642571,-1.020000457763679,1.5499992370605469,1.2299995422363281,-3.30999755859375,1.25,5.160003662109375,1.0200042724609375,4.540000915527344,7.349998474121108,-11.449996948242173,8.0,4.0,02-28,0.42083454132080167
01-15,-3.469999313354492,2.1199989318847656,-1.029998779296875,1.5499992370605469,1.8500022888183523,-3.05999755859375,2.069999694824226,6.269996643066406,1.1400070190429688,3.2600021362304688,6.600006103515611,-12.029998779296875,8.0,4.0,02-29,0.43916813532511273
01-16,-2.790000915527333,1.6399993896484446,-0.9000015258789062,1.0699996948242188,1.8300018310546804,-3.05999755859375,1.790000915527358,5.209999084472656,1.1700057983398438,3.1800003051757812,6.700004577636719,-13.540000915527344,8.0,4.0,03-01,0.1916675567626974
01-17,-1.0400009155273438,2.1199989318847656,-1.6100006103515625,1.0999984741211009,1.3600006103515554,-1.7299957275390625,1.660003662109375,5.589996337890625,2.720001220703125,2.5800018310546875,5.480003356933594,-14.919998168945312,8.0,4.0,03-02,0.2758340835571289
01-18,-2.7200012207031286,2.420001983642578,-1.6399993896484375,0.6899986267089915,1.6099967956542898,-1.0,2.2900009155273438,6.379997253417969,2.5799942016601562,2.1800003051757812,4.040000915527358,-14.559997558593736,8.0,4.0,03-03,0.1891660690307638
01-19,-2.9799995422363317,2.75,-1.2399978637695312,0.4099998474121094,1.4500007629394602,-1.839996337890625,1.6800003051757812,6.290000915527344,3.3299942016601562,0.3899993896484375,4.369995117187528,-12.049995422363267,8.0,4.0,03-04,0.21333344777425514
01-20,-2.4799995422363317,3.220001220703125,-0.8100013732910156,1.3899993896484304,1.3800010681152273,-1.4199981689453125,1.410003662109375,6.5800018310546875,4.1699981689453125,2.220001220703125,5.169998168945327,-12.869995117187472,8.0,4.0,03-05,0.6633342107137065
01-21,-3.75,3.5699996948242188,0.6100006103515696,1.6199989318847656,1.779998779296875,-1.2399978637695312,1.2800064086914205,7.7100067138671875,3.5900039672851562,2.94000244140625,5.029998779296889,-8.189994812011719,9.0,3.0,03-06,1.2458353042602568
01-22,-3.3699989318847656,3.579998016357422,-0.7000007629394602,1.7699966430664062,2.3600006103515554,-1.05999755859375,0.910003662109375,6.9499969482421875,3.2000045776367188,3.30999755859375,4.049995422363281,-8.229995727539077,8.0,4.0,03-07,1.064166704813637
01-23,-4.200000762939453,4.289997100830078,-0.8699989318847656,0.5799980163574219,2.5699996948242045,-0.37000274658203125,1.270000457763686,9.139999389648438,3.0200042724609375,2.5400009155273438,3.1100006103515625,-9.93000030517581,8.0,4.0,03-08,0.929166475931801
01-24,-4.820001602172848,4.399997711181641,1.0900001525878906,0.75,2.2800025939941335,1.269996643066392,0.49999618530272016,8.860000610351562,2.4000015258789062,1.94000244140625,3.3600006103515625,-13.139999389648452,10.0,2.0,03-09,0.7408331235249799
01-25,-5.070001602172848,4.119998931884766,0.7400016784667969,0.43000030517577414,2.5,2.330001831054709,0.4099998474121094,8.930000305175781,2.5100021362304688,0.7099990844726562,2.489997863769517,-9.189994812011719,10.0,2.0,03-10,0.9091671307881676
01-26,-4.060001373291012,4.290000915527344,0.4500007629394531,0.039997100830078125,4.209999084472656,2.159996032714851,-0.020000457763671875,5.3600006103515625,2.6200027465820312,0.80999755859375,2.5900039672851705,-15.040000915527315,9.0,3.0,03-11,0.28416633605957475
01-27,-4.600000381469723,4.0800018310546875,0.6000022888183665,0.9900016784667898,4.30999755859375,1.6599960327148509,0.470001220703125,5.599998474121094,2.4099960327148438,3.1399993896484517,4.139999389648452,-12.5,10.0,2.0,03-12,0.8583327929178907
01-28,-5.7399997711181605,4.370002746582031,0.21999740600585938,1.4099998474121165,4.319999694824219,1.3700027465820312,1.2700004577636719,5.180000305175781,4.0500030517578125,3.0499954223632812,4.380004882812528,-16.889999389648438,10.0,2.0,03-13,0.5825006167093946
01-29,-5.3000011444091655,4.880001068115234,0.07999801635741477,1.4699974060058665,3.410003662109375,1.6800003051757812,0.3600006103515625,2.470001220703125,4.010002136230469,2.7699966430664062,4.339996337890639,-16.86000061035155,10.0,2.0,03-14,0.27583297093709663
01-30,-3.879999160766612,4.840000152587891,0.3400001525878764,2.279998779296882,3.470001220703125,0.8300018310546875,0.45000076293946023,3.470001220703125,3.7900009155273438,2.3799972534179688,4.319999694824219,-17.459999084472656,10.0,2.0,03-15,0.40250031153360916
01-31,-2.5699996948242188,4.439998626708984,-0.3800010681152415,2.0400009155273438,3.8000030517578054,0.35000228881834516,-0.44000244140625,2.9300003051757812,4.269996643066406,2.6500015258789062,3.1599960327148295,-21.110000610351577,8.0,4.0,03-16,-0.07166703542074042
02-01,-2.6199989318847656,4.779998779296875,-1.3699989318847585,0.9199981689453125,3.25,3.0900039672851562,0.25,3.850006103515625,3.2999954223632812,3.2300033569335938,3.339996337890639,-20.84999847412108,9.0,3.0,03-17,0.09750048319498994
02-02,-2.030000686645508,4.4199981689453125,-1.279998779296875,1.6599998474121094,3.490001678466797,3.5400009155273438,0.06999969482421875,5.230003356933594,3.9099960327148438,4.4799957275390625,3.2000045776367045,-29.36000061035155,9.0,3.0,03-18,-0.22250000635782877
02-03,-0.5,4.5,-1.0800018310546804,1.3899993896484375,3.3500022888183665,4.050003051757798,0.479999542236321,3.4000015258789062,3.2000045776367188,6.7700042724609375,3.8600006103515625,-20.790000915527315,9.0,3.0,03-19,0.7191677093505877
02-04,-0.17999839782714488,5.400001525878913,-1.1899986267089844,1.2400016784667969,3.6000022888183665,2.7299995422363352,0.729999542236321,4.310005187988281,3.7300033569335938,6.5800018310546875,3.75,-20.1999969482422,9.0,3.0,03-20,0.8750017484029137
02-05,-0.5399990081787074,5.200000762939453,-1.4399986267089773,1.0900001525878906,4.100002288818352,2.5600013732910156,0.1399993896484304,6.1399993896484375,4.489997863769531,6.400001525878906,2.879997253417983,-21.120002746582045,9.0,3.0,03-21,0.8249999682108559
02-06,-0.8100013732910085,4.659999847412109,-0.4499969482421804,0.9000015258788991,3.7400016784667898,2.3600006103515625,-0.69000244140625,3.8600006103515625,3.4199981689453125,5.799995422363281,2.3600006103515767,-20.779998779296875,8.0,4.0,03-22,0.364166577657065
02-07,-0.7900009155273473,4.539997100830071,-0.5299987792968679,0.8400001525879048,3.7800025939941264,1.1700019836425923,-0.420001983642571,4.349998474121094,4.1199951171875,5.739997863769531,2.0,-17.819999694824247,8.0,4.0,03-23,0.5816659927368155
02-08,0.529998779296875,4.799999237060547,-0.8400001525878906,1.0900001525879048,3.75,1.3400001525878906,-0.26000213623046164,5.040000915527344,3.2999954223632812,8.209999084472656,4.150001525878906,-23.290000915527315,9.0,3.0,03-24,0.6516660054524781
02-09,0.15999984741209516,3.7300033569335938,-0.5100021362304688,0.520000457763679,3.8100013732910156,0.7800025939941406,-0.15000152587889914,3.6599960327148438,3.279998779296875,5.799995422363281,2.130004882812486,-31.870002746582017,9.0,3.0,03-25,-0.7216669718424479
02-10,1.8400001525878906,4.069999694824212,-0.6500015258788991,0.9599990844726562,3.5699996948242188,0.7500038146972798,-0.75,3.8799972534179688,2.3700027465820312,4.1699981689453125,2.8100051879882812,-27.74000549316405,9.0,3.0,03-26,-0.39333343505859136
02-11,1.5799999237060582,1.25,-0.34999847412110086,1.8700027465820312,4.220001220703118,-0.26000213623046875,-0.7000007629394531,3.75,2.19000244140625,5.6100006103515625,3.740005493164034,-25.870002746582017,8.0,4.0,03-27,-0.24749930699666547
02-12,1.3099994659423793,0.7999992370605469,-0.27000045776366477,2.5,3.940002441406243,-0.3699989318847585,-1.0900001525878906,2.839996337890625,2.19000244140625,5.480003356933594,3.1999969482421875,-24.529998779296875,8.0,4.0,03-28,-0.3333331743876136
02-13,3.299999237060547,1.3499984741211009,-0.34000015258789773,2.3700027465820312,3.4800033569335866,-0.8499984741210938,-1.5799980163574219,3.44000244140625,2.6399993896484375,-1.6399993896484375,2.719993591308608,-26.01999664306642,7.0,5.0,03-29,-0.9274994532267259
02-14,4.099998474121087,1.7999992370605469,-0.4200019836425781,2.6099967956542898,3.5800018310546804,-1.0799980163574148,-2.0699996948242188,4.3600006103515625,3.2099990844726562,-2.5800018310546875,3.75,-20.47000122070311,7.0,5.0,03-30,-0.2675005594889323
02-15,2.9500007629394496,1.970001220703125,0.4199981689453196,2.529998779296868,3.729999542236328,-0.7100067138672159,-1.5499992370605469,4.560005187988281,3.8400039672851562,-3.089996337890625,4.25,-21.260002136230483,8.0,4.0,03-31,-0.19666639963786192
02-16,3.139999389648441,1.970001220703125,0.43000030517579546,2.1899986267089773,3.5999984741210938,1.1199951171875,-1.7299995422363281,4.780006408691406,2.8400039672851562,-3.470001220703125,4.839996337890639,-14.77999877929689,9.0,3.0,04-01,0.4108333587646493
02-17,3.0900001525878906,2.2800025939941406,0.1100006103515696,2.0900001525878906,3.220001220703132,2.0699996948242045,-1.7299995422363281,5.3600006103515625,2.9599990844726562,-1.2299957275390767,6.159996032714858,-15.72000122070314,9.0,3.0,04-02,0.7216669718424468
02-18,3.29000091552734,1.8400001525878906,0.6399993896484304,2.270000457763672,3.479999542236328,2.1599960327148295,-2.3100013732910156,5.430000305175781,2.4000015258789062,-3.129997253417983,5.669998168945327,-19.050003051757827,9.0,3.0,04-03,0.22416623433430663
02-19,3.6300010681152344,1.229999542236321,2.2899971008300852,2.5,2.8899993896484375,2.6200027465820455,-2.319995880126939,5.530006408691406,1.8600006103515625,-1.5000000000000142,5.919998168945327,-18.800003051757827,9.0,3.0,04-04,0.4875005086263033
02-20,5.439998626708977,1.279998779296868,2.6499977111816406,2.759998321533203,4.369998931884766,2.2900009155273295,-2.5199966430664134,6.2899932861328125,2.1500015258789062,-1.349998474121108,5.209999084472642,-18.720001220703125,9.0,3.0,04-05,0.8208325703938749
02-21,6.569997787475575,1.4399986267089773,3.069999694824226,2.759998321533203,4.409999847412109,2.0400009155273438,-3.119995117187493,6.1100006103515625,1.4900054931640625,-0.45000457763671875,4.3499984741210795,-15.830001831054688,9.0,3.0,04-06,1.0699998537699367
02-22,6.569997787475575,1.5200004577636648,3.049999237060547,2.80999755859375,3.8499984741210938,1.6699981689453125,-2.8899955749511648,4.939994812011719,1.8199996948242188,-0.9000015258789062,6.0499954223632955,-15.01999664306642,9.0,3.0,04-07,1.1224989891052237
02-23,5.420000076293938,1.8400001525878906,3.740001678466797,2.0999984741210938,3.990001678466797,1.0499954223632812,-3.1599960327148295,5.1100006103515625,1.9599990844726562,-0.5899963378906108,7.180000305175753,-8.449996948242173,9.0,3.0,04-08,1.6825006802876796
02-24,4.44000053405761,1.4500007629394531,4.090000152587891,1.5600013732910156,4.290000915527344,1.4799957275390767,-2.8800048828125,4.069999694824219,2.1699981689453125,-2.279998779296875,7.430000305175753,-8.08999633789061,9.0,3.0,04-09,1.4774998029073074
02-25,4.079999923706051,1.5400009155273438,2.8999977111816335,1.1100006103515625,4.3400001525878835,1.6399993896484233,-2.4300003051757955,3.6400070190429688,1.6800003051757812,-0.8799972534179688,6.600006103515611,-5.81999969482419,9.0,3.0,04-10,1.533334573109942
02-26,4.050001144409176,1.6599998474120952,2.19000244140625,0.920001983642571,4.790000915527344,1.2999954223632812,-2.8400039672851562,4.019996643066406,2.4099960327148438,1.94000244140625,7.7300033569335795,-3.559997558593736,10.0,2.0,04-11,2.050833225250242
02-27,4.39999961853027,1.9099998474121094,1.8800010681152344,0.1100006103515625,3.849998474121101,0.7299957275390625,-2.5400009155273438,3.6500015258789062,2.4399948120117188,2.75,7.629997253417969,-1.2799987792968608,10.0,2.0,04-12,2.127499103546144
02-28,7.120000839233398,2.0,1.2100028991699148,1.1500015258788991,3.3100013732910227,-0.45999908447265625,-3.009998321533203,3.6500015258789062,2.4099960327148438,2.8300018310546875,7.30999755859375,3.0400009155273438,10.0,2.0,04-13,2.5466672579447422
02-29,0.0,0.0,0.0,1.120002746582017,0.0,0.0,0.0,3.8799972534179688,0.0,0.0,0.0,3.6899948120117188,3.0,0.0,04-14,0.7241662343343087
03-01,6.469999313354485,2.140003204345703,2.1599998474121165,0.9600028991699219,4.009998321533196,-0.6100006103515767,-3.0699996948242188,3.69000244140625,0.8600006103515625,3.25,8.85000610351561,-1.2300033569335938,9.0,3.0,04-15,2.2900007565816214
03-02,5.620000839233398,2.4699974060058665,2.1899986267089915,1.2999992370605469,3.5,-0.1399993896484375,-3.200000762939453,3.779998779296875,1.1100006103515625,3.0199966430664205,8.699996948242202,0.43999481201171875,10.0,2.0,04-16,2.3991653124491408
03-03,6.239999771118157,2.1399993896484446,1.0,0.7300033569335938,1.9899978637695384,0.6999969482422017,-2.8899993896484375,2.9900054931640625,0.19000244140625,2.3499984741210938,8.279998779296875,-1.8300018310547017,10.0,2.0,04-17,1.8241667747497565
03-04,5.739999771118157,2.1399993896484446,1.7299995422363352,0.9200019836425781,2.4599990844726634,0.2799987792968892,-2.6200027465820312,2.4499969482421875,0.15000152587890625,3.909996032714858,8.010002136230483,-6.5100021362304545,10.0,2.0,04-18,1.5549991925557514
03-05,6.550001144409169,2.0,2.4599990844726562,1.1500015258789062,1.2099990844726562,0.09999847412110796,-2.029998779296889,3.529998779296875,1.6199951171875,5.729995727539048,8.15000152587892,-3.0500030517578125,10.0,2.0,04-19,2.2849990526835113
03-06,4.680000305175778,2.3899993896484375,1.8199996948242188,2.3199996948242188,0.6299972534179759,0.2799987792968892,-1.259998321533189,3.9099960327148438,1.9199981689453125,4.840003967285156,9.130004882812528,-5.4500045776367045,10.0,2.0,04-20,2.1008329391479554
03-07,4.370000839233395,2.4599990844726562,2.3999977111816406,2.290000915527351,0.479999542236321,0.6699981689452841,-1.3400001525878906,3.7299957275390625,2.0800018310546875,5.470001220703125,9.740005493164091,1.490005493164034,11.0,1.0,04-21,2.8200004895528132
03-08,3.5300006866455007,2.319999694824226,0.4399986267089844,1.2099990844726562,-0.6800003051757812,1.0100021362304688,-1.3699989318847585,3.9799957275390625,1.6100006103515625,5.660003662109375,7.229995727539077,5.490005493164034,10.0,2.0,04-22,2.5358335177103672
03-09,4.3100013732910085,2.720001220703125,0.8799972534179688,1.0,-0.26999664306640625,1.5200042724609375,-1.4599990844726491,3.9199981689453125,1.7000045776367188,3.930000305175753,6.19000244140625,4.670005798339844,10.0,2.0,04-23,2.425834973653155
03-10,3.0799999237060547,2.6100006103515625,2.1399993896484304,1.2900009155273438,0.1100006103515625,2.0600051879882812,-0.8699989318847727,4.399993896484375,1.029998779296875,3.660003662109361,6.910003662109375,2.3100051879882812,11.0,1.0,04-24,2.3941677411397273
03-11,3.25,2.5400009155273438,2.8600006103515625,0.6599998474121094,0.8100013732910156,2.1399993896484375,-0.47999954223633523,2.8000030517578125,1.2399978637695312,3.5699996948242188,8.040000915527358,7.220001220703111,11.0,1.0,04-25,2.8875004450480137
03-12,2.4499988555908345,2.6999969482421875,2.9699974060058736,0.43000030517578836,1.1399993896484375,2.1599960327148438,-0.6800003051757955,4.44000244140625,1.5500030517578125,2.4000015258789062,7.680000305175753,11.900001525878892,11.0,1.0,04-26,3.261666456858315
03-13,2.4400005340576136,3.240001678466797,2.7199974060058736,0.6100006103515625,1.1699981689453125,3.0499954223632955,-0.15999984741211648,3.779998779296875,1.9800033569335938,2.6500015258789062,7.660003662109361,8.629997253417969,11.0,1.0,04-27,3.1474998792012534
03-14,2.909999847412113,3.0999984741210938,3.4399986267089915,0.5600013732910156,1.0200004577636719,2.8499984741210938,-0.5,4.69000244140625,2.80999755859375,3.0800018310546875,7.050003051757798,16.240005493164077,11.0,1.0,04-28,3.937500635782879
03-15,2.8599987030029297,2.700000762939453,4.450000762939446,0.13000106811523438,0.4699974060058594,2.1800003051757812,-1.0,3.7999954223632812,2.0999984741210938,2.8700027465820312,6.399993896484403,24.70000457763672,11.0,1.0,04-29,4.304999510447186
03-16,2.6299991607666016,2.6100006103515625,4.8100013732910085,-0.24000167846679688,-0.17000198364258523,1.9400024414062358,-1.0100021362304616,3.4099960327148438,2.3599929809570312,3.1299972534179688,7.709999084472656,23.300003051757812,9.0,3.0,04-30,4.206665515899656
03-17,2.8300018310546875,2.450000762939453,4.720001220703118,0.20000076293945312,-0.21000289916992898,2.160003662109375,-1.0600013732910156,2.6999969482421875,1.7099990844726562,3.5,7.6100006103515625,13.630004882812486,10.0,2.0,05-01,3.3533337910970027
03-18,1.25,2.720001220703125,4.3600006103515625,-0.0800018310546875,0.539997100830071,1.9499969482422017,-1.4000015258789062,2.4000015258789062,2.4600067138671875,3.5400009155273438,7.529998779296861,13.330001831054688,10.0,2.0,05-02,3.2166668574015294
03-19,0.7400016784667933,3.9099998474121165,3.4599990844726562,0.07999801635742188,-0.3400001525878906,2.55999755859375,-1.0900001525878906,-1.3799972534179688,1.8900070190429688,3.5800018310546875,9.20999908447267,11.200004577636733,9.0,3.0,05-03,2.818334261576337
03-20,1.5400009155273473,3.3500022888183665,3.8400001525878906,0.12999725341798296,-1.180000305175767,2.7599945068359233,-1.1599998474121094,-0.529998779296875,2.3600006103515625,2.779998779296889,8.860000610351562,14.569999694824205,9.0,3.0,05-04,3.1099996566772483
03-21,-0.11999893188477984,3.9799995422363352,3.3899993896484304,0.25,-0.789997100830071,2.44000244140625,0.660003662109375,-1.6299972534179688,3.6800003051757812,2.970001220703139,7.2699966430664205,22.209999084472656,9.0,3.0,05-05,3.692500750223797
03-22,0.5200004577636648,3.8300018310546946,2.979999542236328,0.5299987792968821,-0.6400032043457031,2.4899978637695312,0.5699996948242188,-2.5100021362304688,3.5999984741210938,4.599998474121108,9.169998168945312,22.879997253417983,10.0,2.0,05-06,4.001665433247887
03-23,0.5100002288818324,2.549999237060547,2.9099998474121094,0.5400009155273438,-0.009998321533203125,2.5499954223632812,-0.3899993896484375,-2.5800018310546875,3.2899932861328125,4.350006103515639,9.33999633789061,21.629997253417983,9.0,3.0,05-07,3.7241657574971527
03-24,1.1299991607666122,3.3499984741210938,2.7599983215332102,-1.1999969482421804,0.06999969482421875,2.1800003051757812,-0.40000152587890625,-1.8300018310546875,4.769996643066406,4.050003051757827,10.509994506835923,16.800003051757812,9.0,3.0,05-08,3.5158327420552595
03-25,0.6599998474121094,3.6599998474121094,2.3799972534179616,-1.3299980163574219,0.1399993896484375,2.3199996948242188,0.11999893188476562,-2.25,5.290000915527344,4.590003967285142,9.459999084472642,14.680000305175781,10.0,2.0,05-09,3.3100001017252576
03-26,-0.9099998474121094,2.2400016784667898,2.359996795654304,-1.1299972534179688,-0.1900024414062429,2.910003662109389,0.11999893188476562,-2.029998779296875,5.8899993896484375,3.5500030517578267,8.549995422363281,8.66000366210936,8.0,4.0,05-10,2.50166702270508
03-27,-0.9599990844726456,0.7700004577636719,3.349998474121101,-1.0699996948242116,-0.3800010681152344,2.7900047302246307,-0.18000030517578125,-1.7599945068359375,5.8600006103515625,4.879997253417969,8.47000122070311,11.470001220703125,7.0,5.0,05-11,2.770000775655113
03-28,0.4099998474121094,2.5900001525878906,3.5,-1.2199974060058452,-0.8899993896484375,2.4300003051757955,-0.5400009155273438,-1.2299957275390625,5.8000030517578125,4.599998474121094,7.799995422363281,7.049995422363281,8.0,4.0,05-12,2.5249999364217146
03-29,0.13999938964844105,2.6199989318847585,2.7900009155273438,-1.1899986267089773,-1.0100021362304759,0.48999786376950283,-0.6399993896484304,-1.6800003051757812,5.8300018310546875,3.1299972534179688,6.6100006103515625,5.8299942016601705,8.0,4.0,05-13,1.9099992116292308
03-30,0.2099990844726598,2.9399986267089844,1.9900016784667898,-1.2000007629394531,-0.47999954223633523,1.400001525878892,-0.19000244140625,-1.9000015258789062,6.010002136230469,5.8600006103515625,5.8899993896484375,3.469993591308608,8.0,4.0,05-14,1.9999993642171214
03-31,-0.9699993133544957,3.3300018310546875,1.4799995422363352,-1.6100006103515625,-0.990001678466804,0.8899993896484233,0.8100013732910156,-1.5800018310546875,5.540000915527344,6.3600006103515625,5.090003967285142,2.8799972534179688,8.0,4.0,05-15,1.7691667874654107
04-01,-0.9200000762939453,3.1800003051757812,1.69000244140625,-2.6699981689453125,-0.6700019836425852,-0.2700042724609233,0.6800003051757884,-1.4599990844726562,5.980003356933594,5.440002441406264,5.2700042724609375,6.209999084472656,7.0,5.0,05-16,1.8716673851013208
04-02,-2.5899982452392507,2.6100006103515625,1.1700019836425852,-3.259998321533203,-0.5600013732910156,-0.3600006103515483,1.1800003051757884,-1.94000244140625,6.180000305175781,4.1699981689453125,6.019996643066392,6.269996643066406,7.0,5.0,05-17,1.57416613896688
04-03,-2.129999160766598,1.1500015258789062,1.779998779296875,-3.979999542236321,0.029998779296875,0.09999847412110796,1.829998016357429,-1.5100021362304688,6.340003967285156,3.9800033569335938,5.769996643066392,8.26999664306642,9.0,3.0,05-18,1.8024996121724473
04-04,-2.199998855590813,1.5699996948242188,0.8600006103515625,-3.5100021362304616,0.0,-0.05999755859373579,1.8199958801269602,-3.5100021362304688,5.540000915527344,3.8300018310546875,5.139999389648423,0.739997863769517,7.0,5.0,05-19,0.8516662915547695
04-05,-1.8499984741210866,0.6599998474121094,1.6699981689453054,-3.0600013732910085,0.4799995422363281,0.720001220703125,2.280002593994162,-2.4899978637695312,6.1999969482421875,3.1399993896484375,5.3700027465820455,3.3899993896484233,9.0,3.0,05-20,1.3758335113525415
04-06,-1.5899982452392472,0.5199966430664062,1.6899986267089844,-4.010002136230462,0.6800003051757812,1.2099990844726562,2.7099952697753835,-2.7300033569335938,5.75,4.790000915527344,4.790000915527358,2.970001220703111,9.0,3.0,05-21,1.3983324368794767
04-07,-0.6599998474121058,0.3599967956542969,2.290000915527351,-4.450000762939446,0.6700019836425852,0.3899993896484375,2.3499984741210938,-2.0999984741210938,5.9799957275390625,3.659996032714858,4.050003051757827,3.2900009155273295,9.0,3.0,05-22,1.319166183471683
04-08,-1.4199981689453125,0.06999969482422586,2.6300010681152344,-3.5900001525878764,0.6000022888183594,0.16999816894528408,2.0400009155273438,-2.5100021362304688,5.470001220703125,4.110000610351577,4.490005493164077,0.3000030517578125,9.0,3.0,05-23,1.0300010045369483
04-09,-2.4599990844726562,-2.0199966430664062,2.470001220703125,-3.5600013732910085,0.17000198364258523,-0.2200012207031392,2.1299972534179688,-2.029998779296875,5.9499969482421875,4.05999755859375,4.989997863769531,-2.8599929809570312,6.0,6.0,05-24,0.5516668955485026
04-10,-1.809997558593743,-2.299999237060547,1.5100021362304759,-2.2900009155273438,-0.6399993896484375,0.3099975585937358,1.9699974060058594,-2.5699996948242188,6.3000030517578125,1.3699951171875,4.1100006103515625,2.0600051879882812,7.0,5.0,05-25,0.6683336893717448
04-11,-2.1099987030029226,-2.4399986267089844,1.4200019836425852,-2.8500022888183523,-0.8699989318847656,1.2999954223632812,1.4899978637695312,-0.9800033569335938,6.470001220703125,1.839996337890625,3.4899978637695312,2.7399978637695312,7.0,5.0,05-26,0.7916655540466326
04-12,-2.1699981689453054,-2.779998779296875,2.6800003051757955,-3.450000762939453,-0.29000091552733664,0.7299957275390625,1.0699996948242188,-1.2399978637695312,7.159996032714844,1.3899993896484233,2.840003967285142,2.75,7.0,5.0,05-27,0.7241665522257487
04-13,-1.219999313354485,-2.5800018310546875,2.44000244140625,-3.0300025939941406,1.2999992370605398,0.7999954223632812,0.5400009155273509,-1.8400039672851562,7.589996337890625,1.339996337890625,3.0699996948242188,7.2000045776367045,8.0,4.0,05-28,1.300832271575927
04-14,-1.2999992370605504,-3.2099990844726634,2.3900032043457102,-3.209999084472649,0.8300018310546946,0.7599945068359375,1.180004119873061,-2.0999984741210938,6.120002746582031,-0.2799987792968892,3.0400009155273438,8.530006408691392,7.0,5.0,05-29,1.0625015894571936
04-15,-1.6599998474121058,-3.779998779296875,1.8300018310546946,-3.6599998474121094,1.0800018310546946,-0.06999969482423296,1.480003356933608,-2.9000015258789062,6.8800048828125,-0.2299957275390767,3.0100021362304688,11.620002746582017,6.0,6.0,05-30,1.1333351135253897
04-16,0.47000122070312145,-4.279998779296875,2.3899993896484375,-3.5600013732910156,0.4099998474121094,-0.4400024414062358,1.4700050354004048,-3.1999969482421875,7.100006103515625,-1.0,3.0799942016601562,10.700004577636705,7.0,5.0,05-31,1.0950009028116872
04-17,0.7800006866455043,-2.9699974060058594,2.6399993896484375,-4.630001068115227,1.2600021362304688,-0.6100006103515625,1.6499977111816406,-2.4899978637695312,7.2700042724609375,-2.1699981689452983,5.0,8.659996032714858,7.0,5.0,06-01,1.1991670926411973
04-18,2.1800003051757884,-3.05999755859375,3.8100013732910085,-4.610000610351555,1.7000007629394531,-0.7099990844726562,0.9599990844726491,-2.3699951171875,7.44000244140625,-1.6500015258789062,4.4899978637695455,4.449996948242202,7.0,5.0,06-02,1.052500406901044
04-19,3.3399982452392543,-3.859996795654297,1.9500007629394602,-4.670001983642571,2.1599998474121094,-0.4900054931640767,1.0900001525878764,-2.2399978637695312,7.459999084472656,-0.840003967285142,4.580001831054702,4.479995727539077,7.0,5.0,06-03,1.0799991289774598
04-20,4.030000686645504,-2.9300003051757884,1.1199989318847727,-4.220001220703125,1.2600021362304759,-0.5800018310546875,1.1399993896484304,-2.55999755859375,7.19000244140625,-2.120002746582017,4.339996337890625,5.129997253417983,7.0,5.0,06-04,0.9833327929178894
04-21,3.189998626708995,-3.0500030517578125,0.75,-4.0,1.3899993896484375,-0.8600006103515767,1.4199981689453054,-1.3700027465820312,8.270004272460938,-1.5800018310546875,5.099998474121094,7.1599960327148295,7.0,5.0,06-05,1.3683322270711242
04-22,3.409999847412113,-3.25,0.8500022888183594,-4.039997100830071,1.1200027465820312,-1.4500045776367188,1.2599983215332102,-2.3300018310546875,8.029998779296875,-0.48999786376953125,6.790000915527344,6.979995727539077,7.0,5.0,06-06,1.4066664377848335
04-23,2.939998626708995,-3.450000762939453,0.030002593994126414,-3.859996795654304,-0.38000106811522727,-1.029998779296875,1.2000007629394602,-1.8199996948242188,7.549995422363281,-0.43000030517578125,7.06999969482419,8.260002136230469,6.0,6.0,06-07,1.3400001525878886
04-24,2.5699977874755753,-4.6399993896484375,-0.5699996948242259,-2.4499969482421946,-0.7200012207031179,-1.19000244140625,0.6299972534179688,-1.9300003051757812,7.180000305175781,0.7300033569335938,7.189994812011719,8.019996643066392,6.0,6.0,06-08,1.2349991798400852
04-25,2.2099990844726562,-5.079998016357422,-0.25,-3.4399986267089844,-0.3899993896484304,-0.6100006103515483,1.4899978637695455,-1.529998779296875,6.959999084472656,0.7600021362304688,7.680000305175753,0.8199996948242188,6.0,6.0,06-09,0.7183335622151699
04-26,2.520000457763672,-5.099998474121094,-1.2400016784667969,-2.9199981689453125,0.8899993896484446,0.20999908447267046,0.9599990844726562,-2.2099990844726562,6.350006103515625,0.6300048828125,8.810005187988281,1.0,8.0,4.0,06-10,0.8250013987223325
04-27,2.7900009155273438,-5.08000183105468,-1.5300025939941335,-2.8500022888183665,1.6500015258789062,0.3300018310547159,1.3600006103515483,-2.2399978637695312,6.900001525878906,-0.2200012207031392,10.599998474121094,-0.1100006103515625,6.0,6.0,06-11,0.9666665395100917
04-28,3.3300018310546946,-5.33000183105468,-1.7600021362304688,-2.109996795654304,1.8400001525878835,0.2299957275390767,1.4599990844726491,-1.5699996948242188,4.9499969482421875,0.160003662109375,11.900001525878906,0.45999908447265625,8.0,4.0,06-12,1.1299997965494797
04-29,2.540000915527351,-6.100002288818359,-1.3600006103515625,-2.7399978637695312,1.5,-0.5200042724609233,1.6899986267089844,1.7900009155273438,5.9199981689453125,0.31999969482421875,11.260002136230469,1.55999755859375,8.0,4.0,06-13,1.321666081746421
04-30,2.3000011444091832,-4.44000244140625,-2.4300003051757884,-2.1399993896484304,-0.049999237060546875,-0.8199996948242045,2.1699981689453125,1.3499984741210938,5.709999084472656,0.6500015258789062,10.380004882812528,4.55999755859375,7.0,5.0,06-14,1.4366666475931842
05-01,3.3399982452392685,-4.539997100830085,-1.3800010681152344,-2.6999969482421804,0.5799980163574148,-0.590003967285142,0.7299957275390767,-0.06999969482421875,6.4499969482421875,0.779998779296875,8.810005187988281,-1.8899993896484375,6.0,6.0,06-15,0.7933328946431505
05-02,2.6900005340576207,-4.679996490478516,-1.2300033569335938,-2.55999755859375,0.4500007629394531,-0.5800018310546733,0.6200027465820312,-0.40999603271484375,6.0500030517578125,1.7600021362304545,8.620002746582045,-1.4499969482422017,6.0,6.0,06-16,0.7733349800109867
05-03,1.9600009918212926,-3.509998321533203,-1.7900009155273366,-2.8600006103515554,1.2999992370605469,-0.32999420166014204,0.3099975585937358,0.5699996948242188,5.8000030517578125,3.1999969482421733,6.870002746582031,-1.3999938964843892,7.0,5.0,06-17,0.8433343569437654
05-04,1.649999618530277,-2.8699989318847656,-1.2999992370605469,-1.3400001525879048,0.970001220703125,-1.0999984741210938,0.9400024414062358,0.7600021362304688,4.8600006103515625,2.5999984741210795,5.069999694824219,0.5800018310546733,8.0,4.0,06-18,0.9016674359639442
05-05,1.8199996948242259,-1.8499984741210938,-0.7599983215332031,-1.3199996948242188,1.0699996948242188,-0.40999603271484375,1.80999755859375,0.26000213623046875,4.319999694824219,2.119995117187514,5.150001525878906,1.3500061035156108,8.0,4.0,06-19,1.130000750223796
05-06,1.5699996948242259,-0.7099990844726562,-0.5900001525878906,-0.9700012207031179,1.2700004577636719,-0.3000030517578125,1.7099990844726562,0.220001220703125,3.4399948120117188,2.0399932861328267,4.470001220703111,2.0500030517578125,8.0,4.0,06-20,1.1833324432373058
05-07,2.0000000000000036,0.15000152587890625,-1.7700004577636719,-1.1599998474121094,0.45999908447265625,-0.4100036621093892,1.80999755859375,-0.20000457763671875,4.239997863769531,1.4499969482422017,5.44000244140625,1.44000244140625,8.0,4.0,06-21,1.120832443237305
05-08,1.630001068115245,-1.6399993896484375,-1.5999984741211009,-1.5499992370605469,0.1399993896484375,-0.6299972534179688,2.1099967956542827,1.0699996948242188,4.379997253417969,2.8799972534179545,5.420005798339858,-0.540000915527358,7.0,5.0,06-22,0.9725001653035461
05-09,1.8199996948242188,-2.0600013732910156,-0.9500007629394531,-1.4799995422363352,0.6399993896484375,0.09000396728517046,2.229999542236321,1.1299972534179688,4.519996643066406,1.6800003051757812,6.410003662109375,1.2900009155273295,9.0,3.0,06-23,1.2766666412353505
05-10,0.9300003051757812,-3.1599998474121094,-1.3100013732910085,-1.3299980163574219,-1.1700019836425781,-0.8700027465820312,2.4399986267089773,1.2299957275390625,4.129997253417969,0.8499984741210938,6.2099990844726705,1.240005493164034,7.0,5.0,06-24,0.7658325831095366
05-11,1.1199989318847656,-3.5999984741210866,-0.5200004577636719,-2.2599983215332102,-0.950000762939446,-1.1100006103515625,2.1199989318847585,1.4799957275390625,4.470001220703125,-1.19000244140625,6.579994201660156,1.1300048828124716,6.0,6.0,06-25,0.605832735697426
05-12,1.0800018310546946,-4.090000152587891,-1.3800010681152415,-0.6100006103515554,-1.1499977111816406,-1.5,0.9399986267089844,0.6800003051757812,4.3899993896484375,-0.7400054931640909,5.979995727539077,1.990005493164034,6.0,6.0,06-26,0.4658330281575491
05-13,2.0700016021728587,-3.6800003051757812,-1.490001678466804,-1.6200027465820312,-1.1199989318847656,-0.5999984741210938,0.1199951171875,3.1699981689453125,4.170005798339844,-1.1900024414062642,8.259994506835966,3.5200042724609233,6.0,6.0,06-27,0.967499574025472
05-14,1.5200023651123153,-2.4300003051757884,-2.30999755859375,-1.75,-1.3400001525878906,-0.3899993896484517,-0.7600021362304688,-0.6500015258789062,4.510002136230469,-0.6600036621093892,6.259994506835923,3.4800033569335795,4.0,8.0,06-28,0.45666646957397017
05-15,2.309999465942383,-2.4899978637695312,-1.8799972534179688,-1.0100021362304688,-1.7099990844726562,0.40999603271482954,-0.9199981689452983,-2.8000030517578125,3.7400054931640625,0.0,6.0,6.099998474121094,5.0,7.0,06-29,0.6458334922790527
05-16,2.3600006103515554,-1.9899978637695312,-1.2999992370605398,-0.549999237060554,-1.6100006103515625,0.1699981689453125,-1.1800003051757812,-1.7099990844726562,4.1399993896484375,-1.44000244140625,5.1299972534179545,3.5699996948242188,5.0,7.0,06-30,0.4658330281575503
05-17,2.7900009155273438,-3.020000457763672,0.04000091552734375,0.5900001525878906,-1.6599998474121094,0.3800048828125,-1.9200019836425923,1.3199996948242188,4.650001525878906,-1.19000244140625,7.770004272460923,5.099998474121094,8.0,4.0,07-01,1.2375005086262998
05-18,2.770000457763672,-2.5,-1.1899986267089844,0.829998016357429,-1.8500022888183665,0.3800048828125,-1.8900032043457173,1.470001220703125,4.790000915527344,-0.849998474121108,11.299995422363281,7.8300018310546875,7.0,5.0,07-02,1.7575000127156553
05-19,2.5100002288818324,-2.4399986267089844,-0.9500007629394531,0.48999786376952414,-1.1100006103515696,0.8800048828125,-2.319995880126939,1.8700027465820312,4.129997253417969,-0.6300048828125284,11.229995727539062,8.25,7.0,5.0,07-03,1.8258331616719536
05-20,2.729999542236328,-1.0800018310546875,-0.4799995422363281,0.48999786376952414,-1.1100006103515696,1.7000045776367188,-1.6899986267089844,1.3899993896484375,3.6500015258789062,-0.6300048828125284,11.229995727539062,7.569999694824219,7.0,5.0,07-04,1.980832735697425
05-21,3.030000686645508,-0.8899993896484375,0.7799987792968679,1.2199974060058594,-1.19000244140625,1.4900054931640767,-1.1499977111816406,4.339996337890625,4.0200042724609375,-0.42000579833985796,10.05999755859375,6.890007019042969,8.0,4.0,07-05,2.3483335177103672
05-22,3.430000305175774,-0.950000762939446,1.6800003051757741,1.9399986267089915,-0.8100013732910156,1.5900039672851562,-0.6500015258789062,4.379997253417969,4.2400054931640625,0.02999877929686079,10.389999389648438,7.3800048828125,9.0,3.0,07-06,2.7208337783813463
05-23,2.0200023651123047,-0.5400009155273366,1.5999984741210866,1.4799995422363352,-0.8899993896484304,0.75,-0.18000030517578836,3.9300003051757812,4.099998474121094,-0.09999847412110796,10.580001831054688,5.419998168945327,8.0,4.0,07-07,2.3475000063578295
05-24,1.5200023651123047,-1.2299995422363281,2.6999969482421804,1.4699974060058594,-0.34000015258790484,1.0200042724609233,-0.13000106811524148,2.3600006103515625,3.9000015258789062,-0.04000091552735796,12.989997863769531,5.709999084472685,8.0,4.0,07-08,2.49416653315226
05-25,0.9300022125244141,0.279998779296875,2.1099967956542898,1.8899993896484375,0.14999771118164062,0.470001220703125,0.3300018310546804,2.3899993896484375,3.1399993896484375,0.45999908447265625,11.709999084472656,5.599998474121108,12.0,0.0,07-09,2.4549994468688965
05-26,0.7700023651123047,-0.060001373291015625,2.1899986267089844,0.75,0.43000030517576704,0.29000091552734375,-0.5300025939941548,2.30999755859375,2.9399948120117188,0.7700042724609233,11.08999633789061,3.379997253417983,10.0,2.0,07-10,2.0274990399678514
05-27,1.7000007629394567,-1.44000244140625,2.1100006103515625,-0.9899978637695241,1.3299980163574148,0.37000274658203125,-1.0400047302246307,1.3499984741210938,3.5499954223632812,1.7900009155273295,11.169998168945312,0.37999725341798296,9.0,3.0,07-11,1.6899989446004218
05-28,1.9500007629394567,-0.8199996948242188,0.8099975585937571,-1.2399978637695241,1.6199989318847585,0.3600006103515625,-1.049999237060554,2.529998779296875,3.7600021362304688,2.8000030517577983,10.680000305175781,1.3300018310546875,9.0,3.0,07-12,1.8941672643025707
05-29,1.409997940063466,0.1699981689453125,0.06999969482423296,-1.4799995422363281,1.8199996948242188,-0.0500030517578125,-0.3600006103515625,2.9399948120117188,3.6299972534179688,2.370002746582017,10.880004882812486,2.3700027465820455,9.0,3.0,07-13,1.9808328946431468
05-30,0.5400009155273509,0.029998779296875,-0.010002136230461645,-0.6399993896484446,0.8499984741210938,-0.32999420166014204,-0.2200012207031179,3.1500015258789062,4.44000244140625,1.720001220703125,10.069999694824205,3.529998779296889,8.0,4.0,07-14,1.927500406901044
05-31,1.1500015258789134,1.6899986267089844,-0.15000152587889914,-1.4399986267089844,2.5999984741210866,-0.15000152587889204,0.3600006103515696,2.970001220703125,3.970001220703125,3.3600006103515625,10.75,2.0100021362304688,9.0,3.0,07-15,2.260000228881838
06-01,1.1600036621093892,1.6199989318847656,1.1300010681152273,-1.2099990844726562,2.8000030517578054,0.04000091552734375,0.039997100830078125,3.0200042724609375,2.720001220703125,2.970001220703111,9.3800048828125,4.889999389648452,11.0,1.0,07-16,2.3800013860066733
06-02,2.1399993896484446,0.8300018310546875,1.279998779296868,-0.3800010681152415,2.9099998474121094,0.31999969482421875,-0.010002136230475855,2.8800048828125,2.2999954223632812,1.010002136230483,8.889999389648438,5.8300018310546875,10.0,2.0,07-17,2.3333333333333335
06-03,2.200000762939446,0.8899993896484375,1.3699989318847727,-0.5800018310546946,2.5800018310546875,0.12999725341799717,-0.20000076293946023,2.9900054931640625,3.5800018310546875,-0.5699996948242188,9.1300048828125,4.620002746582031,9.0,3.0,07-18,2.178334236145021
06-04,2.1500015258789134,2.200000762939453,2.1100006103515625,-0.40000152587891336,2.7999992370605398,0.18000030517579546,0.02000045776366477,2.8300018310546875,3.94000244140625,0.779998779296875,7.80999755859375,5.760002136230469,11.0,1.0,07-19,2.515000343322754
06-05,3.3000030517578125,1.8100013732910156,1.0800018310546804,-0.09000015258787641,3.600002288818345,-0.18000030517578125,0.02000427246092329,2.82000732421875,3.8899993896484375,0.700004577636733,6.4000015258789205,3.839996337890611,10.0,2.0,07-20,2.2658351262410474
06-06,2.3899993896484446,1.7000007629394602,2.990001678466797,-1.2700004577636648,3.100002288818345,-2.0800018310546733,0.18000030517578125,2.5300064086914062,4.609992980957031,0.7099990844726705,3.2999954223632812,5.819999694824219,10.0,2.0,07-21,1.9983329772949248
06-07,3.0699996948242188,2.2399978637695312,2.200000762939446,-1.6299972534179545,2.8300018310546875,-1.1800003051757955,0.20999908447265625,2.8100051879882812,4.399993896484375,1.3800048828125284,2.44000244140625,5.709999084472656,10.0,2.0,07-22,2.0400005976359066
06-08,2.8499984741210938,2.240001678466797,2.470001220703125,-1.690002441406243,2.3900032043457102,-1.830001831054716,-0.6699981689453125,2.5800018310546875,4.839996337890625,2.6699981689453125,0.18000030517578125,4.599998474121094,9.0,3.0,07-23,1.7191664377848295
06-09,2.7099990844726562,2.620002746582024,1.9799995422363281,-1.6599998474121094,2.4500007629394602,-3.50000381469728,-1.150001525878892,2.5100021362304688,4.049995422363281,1.9599990844726562,-0.05999755859375,6.029998779296875,8.0,4.0,07-24,1.4949995676676433
06-10,2.3999977111816335,1.6400032043457031,2.7599983215332102,-1.9900016784667898,2.3800010681152415,-3.4599990844726562,-1.2399978637695312,1.7400054931640625,4.069999694824219,1.3199996948242188,1.290000915527358,6.8600006103515625,9.0,3.0,07-25,1.480834007263186
06-11,1.7000007629394531,2.9099998474121165,1.5900001525878906,-3.020000457763672,1.8500022888183594,-2.9300003051757955,-1.7799987792968892,3.6800003051757812,4.019996643066406,0.9300003051757812,0.7099990844726562,14.25,9.0,3.0,07-26,1.9924999872843407
06-12,2.0699996948242188,3.7099990844726562,1.279998779296875,-3.020000457763679,2.6500015258789062,-2.4300003051757955,-2.1200027465820312,3.1699981689453125,3.25,0.5800018310546875,1.6699981689452983,13.080001831054673,9.0,3.0,07-27,1.9908329645792602
06-13,2.770000457763672,4.479999542236335,1.1100006103515696,-2.6200027465820384,1.4099998474121094,-2.6200027465820455,-2.519996643066392,3.5200042724609375,1.8799972534179688,0.410003662109375,2.5699996948242188,13.439994812011719,9.0,3.0,07-28,1.9858331680297858
06-14,1.9599990844726562,4.329998016357422,-0.12999725341796164,-3.0300025939941335,1.2999992370605469,-2.1399993896484375,-2.8899955749511648,3.279998779296875,1.80999755859375,-0.12999725341796875,2.8300018310546875,14.439994812011719,7.0,5.0,07-29,1.8024997711181658
06-15,1.6800003051757812,3.0800018310546875,0.8800010681152415,-2.459999084472649,0.7999992370605398,-2.729999542236328,-1.9699974060058452,3.4000015258789062,1.8299942016601562,1.1500015258789062,4.3199996948242045,12.639999389648423,9.0,3.0,07-30,1.8850002288818353
06-16,1.6399993896484446,2.5900001525878906,0.8000030517578196,-1.9699974060058736,1.3500022888183594,-3.0099983215332102,1.449996948242216,3.220001220703125,2.0500030517578125,8.060005187988281,4.770004272460923,11.419998168945327,10.0,2.0,07-31,2.697501500447593
06-17,1.4799995422363281,2.75,0.7600021362304688,-2.1399993896484446,1.25,-4.220001220703125,1.540000915527358,3.029998779296875,-4.44000244140625,7.660003662109375,3.6399993896484517,11.89999389648439,9.0,3.0,08-01,1.9341662724812856
06-18,1.6299972534179688,2.470001220703125,0.39999771118164773,-2.6100006103515696,1.0499992370605469,-3.9599990844726562,1.080001831054716,0.55999755859375,-5.819999694824219,7.590003967285156,1.5299987792968892,11.819999694824247,9.0,3.0,08-02,1.311666488647467
06-19,2.0699996948242188,2.970001220703125,0.34999847412110086,-3.209999084472649,1.7900009155273438,-4.569999694824219,2.2099990844726562,-0.28000640869140625,-4.239997863769531,8.180000305175781,1.6099929809570312,10.310005187988281,8.0,4.0,08-03,1.4324995676676444
06-20,2.8999977111816335,3.4300003051757884,-0.7300033569335866,-3.0200004577636648,3.0699996948242188,-5.529998779296875,2.2900009155273438,-1.0100021362304688,-4.6399993896484375,7.790000915527344,1.209999084472642,7.649993896484403,7.0,5.0,08-04,1.1174990336100283
06-21,3.6599998474121094,3.3400001525878835,-1.7000007629394531,-1.9099998474120952,4.880001068115227,-5.25999832153321,1.7799987792968892,-1.05999755859375,-4.75,9.330001831054688,-1.8199996948241903,11.110000610351577,6.0,6.0,08-05,1.466667175292973
06-22,3.8699989318847656,4.599998474121094,-1.4900016784667969,-3.1500015258789134,5.649997711181641,-5.00999832153321,2.4300003051757812,-1.6899948120117188,-4.569999694824219,10.35000610351564,-0.7600021362304688,11.069999694824247,6.0,6.0,08-06,1.7750002543131533
06-23,3.3300018310546875,5.009998321533203,-1.220001220703125,-0.6499977111816335,5.139999389648445,-5.419998168945305,3.6299972534179688,-3.5199966430664062,-4.5500030517578125,11.919998168945312,-1.6999969482421875,10.919998168945327,6.0,6.0,08-07,1.9074999491373728
06-24,3.2999992370605398,5.2199974060058665,-3.1700019836425852,-0.7299995422363281,4.639999389648445,-4.479999542236328,4.3600006103515625,0.029998779296875,-4.779998779296875,12.029998779296875,0.94000244140625,12.419998168945327,8.0,4.0,08-08,2.4816662470499686
06-25,2.5800018310546875,4.909999847412109,-3.299999237060547,-0.6599998474121094,4.6399993896484375,-4.869998931884766,4.529998779296861,1.9899978637695312,-4.400001525878906,11.370002746582017,0.6000061035156108,10.760002136230469,8.0,4.0,08-09,2.345834096272783
06-26,1.7299995422363352,4.529998779296875,-5.780002593994141,-0.660003662109375,4.540000915527344,-4.789997100830078,3.8899993896484233,1.5699996948242188,-4.400001525878906,10.25,2.420005798339858,9.94000244140625,8.0,4.0,08-10,1.9366668065389003
06-27,1.529998779296875,4.529998779296875,-3.549999237060547,-0.8100013732910156,4.090000152587891,-5.430000305175781,5.049999237060547,1.3800048828125,-3.8899993896484375,10.860000610351562,0.11000061035157671,10.0,8.0,4.0,08-11,1.9891668955485038
06-28,1.2099990844726562,3.9399986267089844,-6.209999084472663,-0.6100006103515696,5.130001068115234,-4.650001525878906,6.179996490478516,0.529998779296875,-4.4499969482421875,10.25,-1.4699935913085795,7.75,7.0,5.0,08-12,1.46666685740153
06-29,1.7299995422363281,3.6599998474121165,-6.630001068115234,-1.2199974060058594,4.16999816894532,-4.850002288818359,5.439998626708984,-0.5,-4.0099945068359375,10.520004272460952,-3.1899948120117188,7.489997863769517,6.0,6.0,08-13,1.0508340199788424
06-30,1.9399986267089844,4.049999237060554,-6.930000305175781,-1.8899993896484446,4.270000457763679,-4.660003662109375,5.009998321533217,-2.9099960327148438,-5.349998474121094,8.79000091552733,-4.2299957275390625,6.109992980957031,6.0,6.0,08-14,0.34999974568684955
07-01,1.5999984741211009,4.25,-5.890003204345703,-1.799999237060554,4.399997711181641,-4.400001525878906,4.9300003051757955,-3.0699996948242188,-4.94000244140625,7.810005187988281,-3.0499954223632812,5.609992980957031,6.0,6.0,08-15,0.454166094462078
07-02,2.05999755859375,3.950000762939446,-5.3600006103515625,-1.80999755859375,4.510002136230476,-3.6299972534179688,4.9899978637695455,-3.1399993896484375,-4.1699981689453125,8.390007019042969,-4.450004577636719,3.1199951171875,6.0,6.0,08-16,0.3716669082641613
07-03,2.8199996948242188,4.509998321533203,-4.740001678466797,-2.1699981689453196,4.4300003051757955,-3.8600006103515483,5.189998626708999,-3.220001220703125,-4.3300018310546875,7.349998474121108,-6.8300018310546875,3.2599945068359233,6.0,6.0,08-17,0.20083204905192353
07-05,1.5799980163574219,5.299999237060547,-5.3899993896484375,-2.1399993896484375,2.5800018310546804,-3.1199989318847656,6.24999618530272,-2.9300003051757812,-3.7399978637695312,6.799995422363281,-6.279998779296875,2.989997863769517,6.0,6.0,08-19,0.15833282470702828
07-06,1.7399978637695384,5.209999084472656,-6.399997711181641,-0.7999992370605469,2.3899993896484446,-2.7399978637695312,5.990001678466797,-2.9499969482421875,-3.7599945068359375,7.589996337890625,-3.739997863769517,2.6199951171874716,6.0,6.0,08-20,0.42916711171468097
07-07,2.6599998474121094,4.040000915527344,-6.569999694824219,0.8999977111816406,2.3400001525878977,-2.2900009155273438,4.80999755859375,-2.6999969482421875,-5.959999084472656,7.660003662109389,-3.769996643066392,2.5400009155273295,7.0,5.0,08-21,0.3050006230672218
07-08,2.8199996948242188,3.509998321533203,-8.090000152587884,0.8499984741210866,2.4399986267089915,-2.4899978637695312,5.670001983642585,-2.9599990844726562,-6.150001525878906,7.760002136230469,-5.1100006103515625,4.7600021362304545,7.0,5.0,08-22,0.25083351135253906
07-09,2.8000030517578196,2.670001983642578,-6.810001373291023,0.6499977111816406,1.1000022888183523,-2.5699996948242188,5.700000762939453,-3.4199981689453125,-6.810005187988281,8.19000244140625,-4.739997863769531,3.930000305175753,7.0,5.0,08-23,0.05750052134195668
07-10,2.5800018310546875,2.970001220703125,-6.780002593994155,1.3699989318847585,0.8100013732910085,-2.5100021362304688,4.3899993896484375,-3.0999984741210938,-6.180000305175781,7.069999694824219,-4.25,2.6000061035155966,7.0,5.0,08-24,-0.08583291371663886
07-11,2.3100013732910156,2.579998016357422,-5.639999389648445,1.6100006103515625,-0.4199981689453196,-2.4199981689453267,3.3499984741210938,-2.8600006103515625,-6.55999755859375,7.5,-4.689994812011719,4.370002746582017,6.0,6.0,08-25,-0.07249895731608429
07-12,2.1800003051757812,1.9000015258789062,-5.119998931884766,1.7900009155273438,-0.06000137329100852,-2.920001983642571,1.8899993896484233,-2.8300018310546875,-7.370002746582031,7.440002441406264,-2.8700027465820312,5.680000305175781,6.0,6.0,08-26,-0.024167060852049598
07-13,2.170001983642578,0.31999969482421875,-4.979999542236328,0.6800003051757812,0.0800018310546875,-2.8199996948242116,1.279998779296875,-2.6500015258789062,-7.019996643066406,8.04000091552733,-2.6599960327148295,4.699996948242173,7.0,5.0,08-27,-0.23833274841308652
07-14,1.8399963378906108,0.3899993896484375,-4.25,1.1800003051757812,0.3100013732910156,-2.5800018310546875,2.770000457763679,-2.6100006103515625,-8.349998474121094,10.510002136230455,-1.9300003051757955,2.2900009155273295,7.0,5.0,08-28,-0.03583335876465258
07-15,0.1699981689453054,0.4099998474121094,-5.299999237060547,0.8699989318847656,-1.0099983215332031,-2.8199996948242188,2.770000457763679,-1.8499984741210938,-7.400001525878906,11.25,-1.4199981689453125,0.6999969482421875,6.0,6.0,08-29,-0.30250008900960285
07-16,-0.5700035095214915,1.1199989318847656,-3.1300010681152273,1.3400001525878906,-0.6199989318847585,-2.349998474121108,2.4099960327148438,-1.44000244140625,-7.930000305175781,10.599998474121094,-1.3000030517578125,1.3600006103515767,5.0,7.0,08-30,-0.04250113169352154
07-17,-0.04999923706055398,2.289997100830071,-1.5200004577636648,1.0999984741210938,-0.5699996948242045,-1.0299987792968892,3.730003356933608,-1.1300048828125,-7.790000915527344,10.059997558593764,-1.6699981689453125,0.650001525878892,5.0,7.0,08-31,0.33916632334391333
07-18,-1.0499992370605469,1.2700004577636648,-1.3199996948242045,0.6099967956542898,-1.0200004577636648,-2.0500030517578125,3.75,-1.220001220703125,-6.769996643066406,10.079994201660156,-2.5,-1.1600036621093892,4.0,8.0,09-01,-0.11500104268391986
07-19,-1.4399986267089844,1.9300003051757741,-3.0600013732910156,0.20999908447265625,-0.7700004577636648,-1.3800048828125,3.4000015258789062,-1.6399993896484375,-7.1199951171875,8.369995117187514,-1.5400009155273438,-0.9000015258789062,4.0,8.0,09-02,-0.3283338546752918
07-20,-1.6800003051757741,2.5,-2.5900001525878906,0.80999755859375,-0.43000030517578125,-1.25,1.8400039672851562,-2.3199996948242188,-6.7299957275390625,8.919998168945327,-1.4700012207031392,0.20999908447265625,5.0,7.0,09-03,-0.18249988555908145
07-21,-1.6199989318847656,2.5199966430664062,-2.6800003051757812,0.69000244140625,-0.8299980163574148,-0.8600006103515483,3.4000015258789205,-1.9599990844726562,-6.540000915527344,9.559997558593764,-0.94000244140625,4.080001831054702,5.0,7.0,09-04,0.4016666412353569
07-22,-1.75,0.7199974060058594,-2.5600013732910156,0.870002746582017,-1.2700004577636648,0.4399986267089844,3.480003356933608,-2.4799957275390625,-5.849998474121094,9.569999694824219,-3.5100021362304688,3.760002136230483,6.0,6.0,09-05,0.11833381652832209
07-23,-2.1100006103515625,0.05999755859375,-3.529998779296875,1.220001220703118,-0.950000762939446,0.5,4.020004272460952,-1.9799957275390625,-5.5800018310546875,11.239997863769517,-2.569999694824247,3.819999694824247,6.0,6.0,09-06,0.3450002670288086
07-24,-2.0800018310546875,-0.26000213623047586,-4.739997863769531,1.8600006103515625,-0.0800018310546804,0.37999725341796875,4.730003356933608,-0.7899932861328125,-6.209999084472656,13.430000305175781,-1.349998474121108,3.410003662109389,5.0,7.0,09-07,0.6916675567626965
07-25,-1.1100006103515554,0.37999725341796164,-5.169998168945305,1.2600021362304688,0.2799987792968821,1.2399978637695312,5.9999961853027415,-0.48999786376953125,-5.840003967285156,13.449996948242188,-0.9799957275390767,-0.6800003051757812,6.0,6.0,09-08,0.6949993769327806
07-26,-0.950000762939446,0.1100006103515554,-4.05000305175782,0.7999992370605398,0.5500030517578196,2.289997100830078,5.889995574951165,-0.01000213623046875,-5.209999084472656,12.110000610351562,-3.2900009155273153,-1.1299972534179688,6.0,6.0,09-09,0.5924994150797538
07-27,-0.299999237060554,0.549999237060554,-2.960002899169929,0.14999771118164773,0.01999664306640625,1.7999992370605469,6.639995574951165,0.5699996948242188,-5.150001525878906,6.0499954223632955,-4.060005187988281,-3.7900009155273295,7.0,5.0,09-10,-0.040002187093097184
07-28,0.1999969482421804,0.6299972534179759,-2.7300033569335938,1.0100021362304688,0.6599998474121023,0.9700012207031179,5.479999542236342,0.910003662109375,1.3000030517578125,5.400001525878906,-5.840003967285142,-0.1600036621093608,9.0,3.0,09-11,0.6524995168050154
07-29,0.5499992370605327,0.8799972534179759,-2.200000762939453,0.6300010681152344,1.0,0.9099998474121165,1.4300003051757812,1.029998779296875,2.8899993896484375,6.059997558593764,-5.830001831054673,-0.9199981689453267,9.0,3.0,09-12,0.535832722981772
07-30,0.18999862670897727,0.9099998474121094,-2.9199981689453125,0.7099990844726491,1.1199989318847656,1.4300003051757812,0.2799987792968892,0.12000274658203125,4.19000244140625,6.019996643066406,-5.18000030517581,-0.0200042724609375,9.0,3.0,09-13,0.5708328882853166
07-31,0.3500022888183665,0.479999542236321,-3.1199989318847727,1.270000457763679,1.1199989318847656,2.44000244140625,-0.8799972534179545,1.1700057983398438,4.269996643066406,6.959999084472656,-2.3899993896484517,1.990005493164034,9.0,3.0,09-14,1.1383345921834287
08-01,-0.20000076293945312,1.1500015258788991,-2.5,2.05999755859375,-0.40000152587890625,2.6599998474121165,0.12000274658200283,0.20000457763671875,1.9899978637695312,6.959999084472656,1.0699996948241903,-0.3000030517578125,8.0,4.0,09-15,1.0674997965494744
08-02,0.220001220703125,1.4300003051757741,-0.6899986267089844,2.7099990844726634,-1.329998016357429,1.3199996948242259,-0.5599975585937784,0.7600021362304688,2.25,6.409996032714844,0.03000640869139204,0.4199981689453125,9.0,3.0,09-16,1.0808340708414679
08-03,1.1199989318847656,2.280002593994155,-0.3699989318847656,2.0799980163574148,-0.960002899169929,1.3799972534179759,1.1300048828125,0.75,2.25,6.720001220703125,1.3199996948242188,-0.3300018310546875,9.0,3.0,09-17,1.4474999109903977
08-04,1.220001220703125,2.1200027465820384,1.7900009155273509,2.479999542236328,0.34999847412108664,1.2099990844726634,1.1100006103515625,0.5900039672851562,2.5100021362304688,7.760002136230469,-0.5999984741210938,-0.8500061035156392,10.0,2.0,09-18,1.640833854675293
08-05,1.5699996948242188,2.069999694824226,1.9099998474121023,2.420001983642571,-0.460002899169929,0.5200004577636648,0.23000335693359375,1.3100051879882812,1.970001220703125,7.090003967285142,-0.06999969482420454,-0.5900039672851562,9.0,3.0,09-19,1.4975007375081362
08-06,2.020000457763672,1.8800010681152273,3.970001220703125,2.1199989318847656,0.75,-0.029998779296875,0.6699981689453125,1.4300003051757812,2.7000045776367188,7.379997253417969,-1.4199981689453267,0.10999298095703125,10.0,2.0,09-20,1.7983331680297834
08-07,1.6199989318847585,1.5,3.2600021362304688,2.3600006103515625,0.7200012207031321,-0.09000015258789062,-0.37000274658203125,2.44000244140625,2.8199996948242188,7.579994201660156,-3.3600006103515767,-3.2900009155273438,8.0,4.0,09-21,1.2658329010009755
08-08,1.7000007629394531,1.5200004577636719,2.870002746582024,2.490001678466797,-0.11999893188475852,-0.7600021362304688,-2.7699966430664205,2.5500030517578125,3.3800048828125,8.169998168945298,-4.569999694824247,-1.9599990844726562,7.0,5.0,09-22,1.0416679382324172
08-09,1.9500007629394531,0.9199981689453054,-0.8100013732910156,2.579998016357422,-0.00999832153321023,-1.0,-2.2900009155273438,2.4399948120117188,3.6399993896484375,7.229995727539048,-3.2300033569335938,-3.5500030517577983,6.0,6.0,09-23,0.6558316548665353
08-10,2.0999984741210938,1.2700004577636719,1.2700004577636719,2.7900009155273438,0.02000045776366477,-0.9599990844726562,-3.1800003051757812,2.1999969482421875,4.6100006103515625,8.110000610351562,-1.9899978637695455,-2.6699981689453125,8.0,4.0,09-24,1.1308336257934553
08-11,1.8400001525878906,2.5800018310546804,-0.6699981689453125,2.6899986267089844,0.18000030517576704,-1.220001220703132,-2.5,2.3199996948242188,4.010002136230469,8.919998168945312,-1.94000244140625,-4.5999984741210795,7.0,5.0,09-25,0.967500050862629
08-12,1.6500015258789062,2.470001220703125,-2.0,2.670001983642571,0.18999862670897727,-1.3499984741210938,-2.099998474121108,3.8799972534179688,2.80999755859375,8.979995727539048,-1.5299987792968608,-5.9499969482421875,7.0,5.0,09-26,0.810000101725258
08-13,1.3899993896484375,2.2900009155273438,-2.2699966430664134,2.0100021362304688,-0.09000015258789062,-2.1100006103515625,-2.349998474121108,3.2900009155273438,3.8499984741210938,7.360000610351577,-2.0999984741210795,-6.379997253417969,6.0,6.0,09-27,0.40750090281168677
08-14,1.3600006103515625,2.9600028991699148,-1.4099998474121094,1.8400001525878906,-0.050003051757819605,-2.1399993896484375,-4.270004272460923,2.55999755859375,3.839996337890625,6.6199951171875,0.03000640869142046,-6.229995727539034,7.0,5.0,09-28,0.4258330663045283
08-15,1.6500015258788991,2.729999542236321,-0.7999992370605398,1.4500007629394602,1.05999755859375,-2.4599990844726562,-4.559997558593722,2.2399978637695312,3.7900009155273438,7.260002136230469,0.790000915527358,-6.150001525878906,8.0,4.0,09-29,0.5833336512247757
08-16,2.6199989318847656,3.5600013732910085,-2.329998016357429,1.1500015258789134,1.279998779296875,-2.299999237060554,-5.939994812011719,3.4499969482421875,2.9899978637695312,6.930000305175781,-1.3300018310546875,-5.8899993896484375,7.0,5.0,09-30,0.34916687011718633
08-17,2.650001525878899,2.9200019836425852,-2.1199989318847727,1.0,0.40999984741210227,-1.9300003051757812,-5.149993896484361,2.8199996948242188,4.410003662109375,5.579994201660142,-1.5500030517578125,-5.6299972534179545,7.0,5.0,10-01,0.2841672897338867
08-18,2.470001220703118,3.010002136230476,-0.4699974060058736,1.1399993896484375,0.8899993896484304,-2.979999542236328,-3.8700027465820312,1.779998779296875,4.930000305175781,4.8799972534179545,-1.7700042724609233,-4.680000305175753,7.0,5.0,10-02,0.4441661834716803
08-19,2.1399993896484375,3.6599998474121165,-0.18999862670897727,1.1700019836425781,1.8499984741210938,-4.869998931884766,-3.1500015258789062,0.43000030517578125,4.819999694824219,4.909996032714844,-2.5500030517578125,-4.490005493164034,7.0,5.0,10-03,0.3108323415120478
08-20,2.0699996948242188,3.609996795654297,-2.0200004577636648,1.299999237060554,0.9399986267089915,-4.490001678466797,-2.1100006103515625,0.31000518798828125,6.3899993896484375,5.290000915527344,-3.529998779296861,-4.350006103515597,7.0,5.0,10-04,0.28416601816813686
08-21,0.7899971008300781,3.6100006103515696,-3.8999977111816335,1.6599998474121094,1.379997253417983,-4.670001983642578,-0.37000274658203125,0.26000213623046875,6.94000244140625,4.709999084472656,-3.9800033569335938,-4.100006103515597,7.0,5.0,10-05,0.1941655476888068
08-22,0.6199989318847727,3.720001220703125,-2.039997100830071,1.1899986267089915,0.6899986267089915,-4.289997100830085,1.830001831054716,-1.0,6.019996643066406,4.819999694824219,-5.19000244140625,-6.260002136230469,7.0,5.0,10-06,0.009166399637862218
08-23,1.2099990844726562,4.770000457763665,-2.170001983642578,1.5099983215332102,-0.1100006103515625,-3.6100006103515696,2.260002136230497,-1.2299957275390625,6.529998779296875,5.089996337890625,-5.270004272460966,-4.559997558593764,6.0,6.0,10-07,0.36833286285400213
08-24,1.3300018310546875,5.4199981689453125,-2.6100006103515625,1.490001678466804,0.06000137329100852,-3.490001678466804,1.5299987792968892,-1.470001220703125,7.05999755859375,3.2899932861328267,-3.6599960327148295,-4.550003051757798,7.0,5.0,10-08,0.36666584014892994
08-25,1.5799980163574219,5.340000152587891,-1.7000007629394531,2.0600013732910156,0.18999862670898438,-4.770000457763679,3.1399993896484375,-1.9599990844726562,5.75,2.6299972534179688,-4.430000305175753,-3.149993896484361,7.0,5.0,10-09,0.39000002543131806
08-26,1.9000015258789134,5.459999084472656,-2.020000457763672,1.9000015258789062,0.029998779296875,-4.040000915527344,1.970001220703125,-1.8300018310546875,6.720001220703125,3.1299972534179688,-6.209999084472642,-3.6199951171875,7.0,5.0,10-10,0.28250026702881037
08-27,1.9799995422363281,4.150001525878906,-4.159999847412109,1.1700019836425781,1.0200004577636719,-4.0800018310546875,1.019996643066392,-3.1399993896484375,6.599998474121094,1.1800003051757812,-5.019996643066406,-5.0699996948242045,7.0,5.0,10-11,-0.3624998728434245
08-28,2.5699996948242188,5.44999694824218,-2.8699989318847656,0.20999908447264914,0.9599990844726491,-4.0999984741210795,1.9199981689453125,-2.8300018310546875,6.6100006103515625,-1.470001220703125,-5.379997253417969,-1.6100006103515483,6.0,6.0,10-12,-0.04500039418538352
08-29,3.5999984741210938,5.75,-2.4300003051757812,0.27000045776366477,0.5600013732910156,-5.590000152587869,2.9000015258789062,-3.7099990844726562,6.3600006103515625,-2.279998779296889,-5.209999084472642,-1.5800018310546733,6.0,6.0,10-13,-0.11333306630452238
08-30,3.5699996948242188,5.69999694824218,-1.6000022888183665,0.7199974060058452,2.1199989318847585,-7.040000915527344,3.2099990844726562,-3.029998779296875,5.3899993896484375,-2.279998779296889,-5.910003662109361,-0.34999847412109375,6.0,6.0,10-14,0.0416657129923473
08-31,3.6599998474121094,5.4199981689453125,-1.7700004577636719,0.6199989318847727,3.0800018310546804,-8.360000610351562,2.8000030517578267,-2.3199996948242188,4.75,-3.1399993896484375,-3.3199996948242188,-0.8300018310546733,6.0,6.0,10-15,0.049166679382326585
09-01,4.749999999999993,4.310001373291016,-0.4900016784667969,0.22999954223632812,3.5499992370605398,-8.150001525878906,3.8699951171875,-2.30999755859375,4.6100006103515625,-4.729995727539048,-3.8000030517578125,-3.059997558593764,6.0,6.0,10-16,-0.10166676839192827
09-02,4.909999847412109,3.8600006103515625,0.25,0.4500007629394531,2.870002746582024,-7.900001525878906,3.1899948120117045,-3.57000732421875,5.589996337890625,-4.229995727539048,-4.470001220703125,-5.819999694824247,7.0,5.0,10-17,-0.4058341979980498
09-03,4.749999999999993,3.140003204345703,1.0799980163574148,1.1100006103515625,3.2800025939941264,-7.529998779296875,2.2900009155273438,-3.4300003051757812,5.69000244140625,-0.7799987792968608,-4.180000305175781,-2.7299957275390767,7.0,5.0,10-18,0.22416782379150155
09-04,3.400001525878899,3.1799964904785156,-0.06000137329102273,2.0,3.0300025939941264,-8.099998474121094,2.420005798339858,-3.2600021362304688,5.730003356933594,-1.3600006103515483,-6.470001220703111,-2.3800048828125,6.0,6.0,10-19,-0.15583324432372928
09-05,2.540000915527351,3.25,1.009998321533196,2.3899993896484375,3.1599998474121023,-7.549995422363288,1.8199996948242188,-3.0699996948242188,5.349998474121094,-3.160003662109375,-5.729995727539077,0.29000091552732954,8.0,4.0,10-20,0.02500025431314749
09-06,2.579998016357436,2.7999992370605398,-0.050003051757819605,2.200000762939453,4.240001678466797,-6.009998321533203,1.9700012207031392,-2.9799957275390625,5.75,-3.9300003051757955,-4.329994201660156,-0.909996032714858,6.0,6.0,10-21,0.11083443959553918
09-07,2.1199989318847727,3.80999755859375,-1.0,1.25,4.039997100830078,-4.6699981689453125,2.470001220703139,-3.80999755859375,4.989997863769531,-3.6300048828125,-1.3199996948242188,0.900001525878892,7.0,5.0,10-22,0.4291661580403652
09-08,1.6699981689453267,3.5200004577636648,-1.3400001525878906,1.2299995422363281,4.399997711181648,-3.4599990844726562,1.8500061035156392,-2.7299957275390625,4.819999694824219,-4.2399978637695455,-1.1999969482421875,1.6800003051757528,7.0,5.0,10-23,0.5166676839192696
09-09,1.4500007629394673,3.4099998474121094,-0.13000106811523438,1.470001220703125,5.089996337890632,-3.2900009155273366,2.090003967285142,-1.4899978637695312,4.079994201660156,-4.589996337890639,-2.4399948120117188,-0.15000152587892046,6.0,6.0,10-24,0.45833365122477093
09-10,1.3499984741211009,0.9900016784667969,0.6100006103515696,0.5999984741210938,3.859996795654297,-2.950000762939453,2.959999084472642,-1.3499984741210938,3.9099960327148438,-4.879997253417983,-1.739997863769517,0.5499954223632812,8.0,4.0,10-25,0.32583268483479816
09-11,1.6899986267089844,0.3699989318847656,1.7000007629394602,0.22999954223633523,3.8400001525878906,-3.200000762939453,3.8899993896484517,-1.5100021362304688,4.0,-8.439994812011719,-1.259994506835909,-0.05000305175779829,7.0,5.0,10-26,0.10500017801921165
09-12,1.05999755859375,0.5699996948242188,0.4699974060058665,0.1399993896484304,4.199996948242195,-0.920001983642571,4.6800003051757955,-1.5100021362304688,3.2900009155273438,-9.30999755859375,-0.6800003051757528,-0.7300033569335938,7.0,5.0,10-27,0.10499890645345526
09-13,1.0199966430664062,0.45999908447265625,0.4500007629394531,-0.720001220703125,4.55000305175782,-0.8400001525878906,4.580001831054702,-1.2700042724609375,3.9899978637695312,-10.739997863769531,-1.0600051879882812,-1.6200027465820312,6.0,6.0,10-28,-0.1000010172526024
09-14,0.3699989318847656,0.20999908447265625,-0.279998779296875,-1.0400009155273438,3.9599990844726705,-2.3899993896484304,4.229995727539077,-1.100006103515625,3.6199951171875,-10.680000305175781,1.3999938964843608,-3.4300003051757812,6.0,6.0,10-29,-0.4275019963582339
09-15,-1.3699989318847656,-0.5500030517578196,-0.700000762939446,-0.9800033569335866,3.8499984741210938,-1.5099983215332031,3.4399948120117045,-1.6300048828125,4.230003356933594,-10.940002441406236,1.719993591308608,-5.9900054931640625,4.0,8.0,10-30,-0.8691689173380516
09-16,-1.6800003051757812,-0.48000335693358664,0.04000091552734375,-1.1000022888183523,3.69000244140625,-1.5600013732910085,2.80999755859375,-1.3199996948242188,2.4899978637695312,-11.139999389648423,2.029998779296889,-5.430000305175781,5.0,7.0,10-31,-0.9708340962727823
09-17,-1.509998321533196,-0.04000091552734375,0.6100006103515554,-0.75,4.05000305175782,-0.46000289916991477,3.4300003051757812,-5.590003967285156,1.0199966430664062,-9.930000305175753,2.239997863769517,-3.6200027465820312,5.0,7.0,11-01,-0.879167556762693
09-18,-0.9599990844726562,-0.4099998474121165,-0.5499992370605398,-0.8199996948242116,3.3400001525878906,-0.5699996948242116,5.189994812011733,-7.1699981689453125,1.6299972534179688,-9.629997253417969,0.9499969482422017,-2.099998474121108,4.0,8.0,11-02,-0.925000190734861
09-19,-1.6399993896484375,-0.4799995422363281,-2.3199996948242188,-1.1300010681152273,3.4500007629394602,0.5499992370605469,5.930000305175781,-7.989997863769531,1.850006103515625,-9.169998168945298,1.4000015258789062,0.6399993896484233,6.0,6.0,11-03,-0.7424990336100249
09-20,-2.020000457763672,-0.3800010681152344,-0.8899993896484304,-1.4000015258788991,3.9200019836425923,1.0400009155273438,8.090003967285156,-7.8000030517578125,1.2900009155273438,-8.52999877929686,0.09999847412110796,4.740005493164034,6.0,6.0,11-04,-0.15333271026611092
09-21,-1.75,0.37000274658204546,0.5600013732910156,0.46000289916991477,3.4899978637695384,0.529998779296875,7.1300048828125,-7.5,1.2600021362304688,-7.1399993896484375,-7.30999755859375,6.1100006103515625,8.0,4.0,11-05,-0.31583213806152227
09-22,-2.079998016357422,0.6100006103515696,1.44000244140625,-3.1599998474121023,3.6800003051757884,1.1100006103515696,6.4900054931640625,-8.540000915527344,0.8799972534179688,-6.579994201660156,-9.430000305175781,4.720001220703111,7.0,5.0,11-06,-0.9049987792968738
09-23,-2.3400001525878906,0.9200019836425852,2.7099990844726634,-2.9800033569335866,3.379997253417983,2.7000007629394602,6.5500030517578125,-7.9199981689453125,0.18000030517578125,-8.5,-9.439994812011719,6.910003662109361,7.0,5.0,11-07,-0.6524991989135719
09-24,-1.7900009155273438,1.3899993896484446,1.75,-2.4900016784667898,3.960002899169922,2.6399993896484375,7.630004882812486,-6.649993896484375,-0.910003662109375,-6.279998779296861,-9.020004272460966,6.790000915527315,6.0,6.0,11-08,-0.24833297729492543
09-25,-0.7200012207031179,1.8199996948242188,1.5,-3.0700035095214844,4.110004425048828,2.799999237060547,7.919998168945298,-3.7299957275390625,-1.0400009155273438,-3.6500015258789205,-9.630004882812528,10.810005187988281,6.0,6.0,11-09,0.5933332443237264
09-26,-1.9099998474121094,1.7400016784667969,1.4000015258789062,-2.8900032043457102,3.8000030517578125,2.4199981689453196,9.110000610351577,-2.3199996948242188,-1.0199966430664062,-3.4899978637695312,-9.430000305175795,11.239997863769531,6.0,6.0,11-10,0.7208337783813477
09-27,-1.3199996948242116,1.69000244140625,-0.4399986267089915,-2.7000007629394602,3.7599983215332102,3.019996643066392,8.299995422363295,-2.6299972534179688,-0.80999755859375,-3.2299957275390625,-9.269996643066406,10.80999755859375,5.0,7.0,11-11,0.5983336766560873
09-28,-1.3999977111816406,1.4099998474121094,1.529998779296882,-3.4399986267089844,4.119998931884773,3.8000030517578125,8.889999389648452,-3.5,-1.3499984741210938,-2.6100006103515625,-9.449996948242202,15.25,6.0,6.0,11-12,1.1041673024495455
09-29,-1.420001983642571,1.279998779296868,0.7099990844726491,-3.720001220703125,4.5900001525878835,3.5100021362304688,8.1199951171875,-2.0999984741210938,-1.5499954223632812,-3.4799957275390625,-9.869995117187514,14.989997863769517,6.0,6.0,11-13,0.9216670989990199
09-30,-1.4000015258789062,1.1700019836425781,2.8300018310546875,-3.8500022888183594,4.270000457763665,4.469997406005859,7.099998474121094,-5.980003356933594,-2.9699935913085938,-6.0,-10.229995727539077,14.41000366210936,6.0,6.0,11-14,0.3183339436848929
10-01,-0.45999908447265625,1.3400001525878906,5.80999755859375,-4.590000152587898,3.99999618530272,5.909999847412109,5.819999694824219,-5.510002136230469,-2.2900009155273438,-5.389999389648452,-8.049995422363267,13.91000366210936,6.0,6.0,11-15,0.874999999999997
10-02,-0.520000457763679,0.6199989318847656,5.3899993896484375,-5.829998016357429,4.809997558593729,5.839996337890625,2.8199996948242045,-3.8499984741210938,-2.2699966430664062,-6.069999694824219,-5.729995727539048,14.760002136230469,6.0,6.0,11-16,0.8308337529500296
10-03,-0.7099990844726562,0.6399993896484446,5.799999237060547,-5.989997863769538,5.359996795654283,4.839996337890625,3.109992980957017,-3.9800033569335938,-2.9499969482421875,-5.9199981689453125,-5.369995117187472,13.059997558593764,6.0,6.0,11-17,0.6574993133544934
10-04,0.0,-0.09999847412109375,3.729999542236321,-6.270000457763679,4.789997100830085,4.600002288818359,3.6899948120117045,-2.529998779296875,-2.6599960327148438,-5.0099945068359375,-6.8600006103515625,13.059997558593764,5.0,7.0,11-18,0.536666870117187
10-05,0.20000076293945312,-1.0900001525878835,2.720001220703118,-6.770000457763672,4.680004119873047,5.25000381469728,3.559997558593736,-2.5400009155273438,-2.6599960327148438,-2.3799972534179688,-6.599998474121108,13.059997558593764,6.0,6.0,11-19,0.6191676457722982
10-06,-0.23000335693359375,-1.0600013732910156,1.9000015258788991,-6.220001220703132,4.520000457763686,4.759998321533203,5.75,-3.0699996948242188,-2.470001220703125,-1.3899993896484375,-6.220001220703139,13.050003051757798,5.0,7.0,11-20,0.7766663233439104
10-07,-0.470001220703125,-0.8100013732910156,1.7599983215332031,-5.470001220703132,4.130001068115234,5.880001068115234,4.75,-2.05999755859375,-2.80999755859375,-2.4899978637695312,-6.059997558593764,12.629997253417969,5.0,7.0,11-21,0.7483336130777977
10-08,-0.7400016784667969,-0.9699974060058452,0.7899971008300852,-5.470001220703132,3.7900009155273438,4.910003662109375,3.8000030517578125,-2.2999954223632812,-2.9899978637695312,-2.4899978637695312,-4.080001831054673,11.090003967285156,5.0,7.0,11-22,0.4450012842814151
10-09,-1.5699996948242188,-1.1599998474121094,0.20999908447265625,-4.709999084472649,4.119998931884766,6.270000457763665,3.4199981689453125,-1.7099990844726562,-2.9899978637695312,-1.4100036621093608,-5.780006408691392,10.800003051757798,5.0,7.0,11-23,0.45749950408935663
10-10,-1.6100006103515625,-0.720001220703125,0.20999908447265625,-4.219997406005845,2.9599990844726562,7.25,3.720001220703125,-1.7099990844726562,-1.9300003051757812,1.8899993896484517,-5.6100006103515625,9.569999694824219,6.0,6.0,11-24,0.8166666030883812
10-11,-1.2700004577636719,-0.720001220703125,0.15000152587890625,-4.29999923706054,2.649997711181655,8.919998168945327,3.279998779296875,0.4199981689453125,-1.8199996948242188,2.7399978637695455,-5.029998779296889,9.569999694824219,7.0,5.0,11-25,1.2158327102661162
10-12,-1.2700004577636719,-1.2399978637695241,-0.8799972534179688,-4.279998779296875,2.279998779296875,9.15999603271483,3.279998779296875,-0.17000579833984375,-1.9499969482421875,1.8499984741210938,-5.729995727539048,9.569999694824219,5.0,7.0,11-26,0.8849999109903978
10-13,-1.5300025939941406,-1.6199989318847656,-0.4099998474121094,-3.8300018310546804,2.3199996948242188,9.15999603271483,4.119995117187486,-0.09999847412109375,-2.9899978637695312,1.75,-4.900001525878892,10.050003051757798,5.0,7.0,11-27,1.00166606903076
10-14,-2.3800010681152344,-1.5400009155273438,-1.720001220703125,-3.6599998474121094,2.3199996948242188,8.879997253417955,4.6100006103515625,0.0200042724609375,-2.69000244140625,1.5400009155273295,-4.900001525878892,11.169998168945327,6.0,6.0,11-28,0.9708328247070312
10-15,-1.19000244140625,-0.289997100830071,-0.9900016784667969,-4.13999938964843,3.1300010681152344,8.629997253417955,4.589996337890625,-0.12999725341796875,-2.2000045776367188,0.15000152587889204,-2.620002746582017,11.270004272460938,5.0,7.0,11-29,1.3508329391479492
10-16,-0.6700019836425781,-0.48000335693359375,0.6599998474121094,-4.529998779296875,2.720001220703132,7.619995117187493,5.0300064086914205,0.2700042724609375,-2.029998779296875,-1.5699996948242188,-2.910003662109361,11.260002136230469,6.0,6.0,11-30,1.2808335622151716
10-17,-1.6199989318847727,-0.94000244140625,1.1199989318847727,-5.4199981689453125,1.6200027465820312,6.590000152587891,5.0200042724609375,-0.5199966430664062,-1.4200057983398438,-0.9899978637695312,-3.990005493164034,12.459999084472656,5.0,7.0,12-01,0.9924999872843449
10-18,-1.4099998474121094,-1.160003662109375,2.220001220703125,-5.159999847412109,1.7599983215332102,5.209999084472656,4.4900054931640625,-3.2099990844726562,-1.0400009155273438,-0.23999786376953125,-4.9499969482421875,12.459999084472656,5.0,7.0,12-02,0.7475004196166998
10-19,-1.2199974060058665,0.45999908447266336,3.2800025939941406,-4.569999694824219,1.3699989318847656,5.059997558593764,4.980003356933594,-3.3000030517578125,-1.0800018310546875,-0.470001220703125,-5.779998779296861,12.459999084472656,6.0,6.0,12-03,0.9324998855590844
10-20,-0.5999984741210866,-0.5499992370605469,2.8400001525878906,-4.910003662109375,1.420001983642564,5.309997558593764,3.44000244140625,-2.7900009155273438,-0.7899932861328125,0.08000183105467329,-5.889999389648423,10.650001525878906,6.0,6.0,12-04,0.6841675440470384
10-21,-0.14999771118164062,1.8400001525878906,2.0900001525878906,-5.630001068115234,0.6599998474121094,5.180000305175781,4.05999755859375,-3.0800018310546875,-1.4300003051757812,0.08000183105467329,-5.19000244140625,9.870002746582045,7.0,5.0,12-05,0.6916666030883789
10-22,-0.6999969482421804,2.4599990844726562,1.3699989318847656,-5.5,-0.4299964904785085,5.840000152587891,2.6399993896484375,-2.6500015258789062,-0.970001220703125,0.48999786376953125,-4.8800048828125,9.300003051757798,6.0,6.0,12-06,0.5808331171671549
10-23,-0.8999977111816406,2.970001220703132,1.6699981689453125,-4.459999084472656,0.460002899169929,4.650001525878899,2.05999755859375,-3.6200027465820312,-0.029998779296875,-0.7399978637695455,-5.5900039672851705,9.260002136230469,6.0,6.0,12-07,0.47750027974446435
10-24,-0.3899993896484304,2.270000457763672,1.1299972534179688,-4.1699981689453125,0.25,4.650001525878906,3.0499954223632812,-3.1999969482421875,-0.9500045776367188,2.8600006103515483,-5.55999755859375,10.150001525878906,7.0,5.0,12-08,0.8408333460489903
10-25,-0.279998779296875,2.029998779296882,2.3100013732910156,-4.049999237060547,-0.1999969482422017,5.890003204345696,2.9199981689453125,-3.5199966430664062,-0.31999969482421875,1.650001525878892,-5.930000305175753,10.150001525878906,6.0,6.0,12-09,0.887501080830892
10-26,-0.23999786376953125,1.5600013732910156,1.7099990844726562,-3.970001220703118,0.5200042724609375,5.509998321533196,2.2999954223632812,-2.7899932861328125,-0.7700042724609375,1.269996643066392,-6.119995117187514,10.150001525878906,7.0,5.0,12-10,0.7608337402343727
10-27,0.4399986267089844,1.5300025939941406,1.3899993896484375,-3.579998016357429,0.4199981689452983,5.890003204345696,2.1300048828125,-2.7999954223632812,0.4499969482421875,-0.39000701904296875,-5.569999694824247,11.959999084472656,8.0,4.0,12-11,0.9891668955484979
10-28,1.279998779296875,1.470001220703125,0.7299995422363352,-3.5,0.11000061035157671,4.1399993896484375,1.2300033569335938,1.1800003051757812,1.44000244140625,-1.0500030517578125,-6.259994506835966,15.270004272460938,9.0,3.0,12-12,1.3366676966349278
10-29,0.9699974060058594,1.8699989318847727,2.759998321533196,-3.5399971008300852,-0.8000030517578125,4.360000610351555,0.7400054931640625,3.30999755859375,0.8199996948242188,-1.4900054931640625,-5.940002441406264,14.669998168945327,8.0,4.0,12-13,1.4774990081787098
10-30,1.0,2.250000000000007,1.9699974060058452,-3.7099990844726634,-0.3500022888183665,3.6800003051757812,-0.12999725341796875,3.1699981689453125,-0.029998779296875,-1.4400024414062642,-6.680000305175781,13.520004272460938,6.0,6.0,12-14,1.1041666666666636
10-31,1.6500015258789062,2.079998016357422,1.6899986267089773,-3.7099990844726634,-0.950004577636733,3.4399986267089844,-2.8600006103515625,2.9300003051757812,-0.37999725341796875,-2.029998779296875,-5.5800018310546875,9.419998168945327,6.0,6.0,12-15,0.474999427795409
11-01,1.6100006103515625,1.9499969482421875,2.7900009155273438,-5.5600013732910085,-0.48999786376953836,2.9099998474121094,-3.1699981689453125,2.4300003051757812,-0.720001220703125,-3.25,3.3899993896484375,9.419998168945327,7.0,5.0,12-16,0.9424997965494804
11-02,1.7299995422363281,1.75,1.75,-2.2900009155273438,-0.3800010681152344,2.1300010681152344,-2.660003662109375,2.1300048828125,0.09000396728515625,-3.4800033569335795,5.3000030517578125,9.419998168945327,8.0,4.0,12-17,1.2908334732055688
11-03,1.5499992370605469,1.5999984741210866,0.13000106811523438,-2.75,0.29000091552734375,2.0900001525878906,-1.3100051879882812,2.1800003051757812,-0.5699996948242188,-1.5400009155273295,5.650001525878906,8.050003051757798,8.0,4.0,12-18,1.2808332443237298
11-04,1.7299995422363281,0.43999862670897727,1.1700019836425781,-2.2899971008300852,0.3899993896484233,2.950000762939446,0.21999359130859375,1.5499954223632812,1.1300048828125,-3.239997863769517,4.680000305175781,8.559997558593764,10.0,2.0,12-19,1.4408330917358392
11-05,1.0900001525878906,0.9900016784667969,2.670001983642578,-2.1099967956542898,1.3000030517578054,1.6200027465820312,0.0,-1.4000015258789062,0.720001220703125,-3.9399948120117188,4.4199981689453125,4.6999969482421875,8.0,4.0,12-20,0.8383344014485677
11-06,0.7700004577636719,0.7700004577636719,1.5,-2.0900001525878906,0.7099990844726562,1.4600028991699219,-1.0,-0.529998779296875,0.7300033569335938,-8.510002136230469,3.5900039672851705,4.010002136230469,8.0,4.0,12-21,0.11750094095866004
11-07,-0.09999847412110086,1.0099983215332031,3.680000305175774,-0.8499984741210938,1.6700019836425781,1.8400039672851705,-1.339996337890625,-0.34999847412109375,0.6100006103515625,-9.520004272460938,3.6800003051757812,4.44000244140625,7.0,5.0,12-22,0.39750099182128906
11-08,0.15999984741209516,1.0900001525878906,3.8100013732910227,-0.20000076293945312,0.5299987792968892,1.5799942016601562,-0.7899932861328125,-2.3799972534179688,0.5999984741210938,-9.54000091552733,4.260002136230483,4.44000244140625,8.0,4.0,12-23,0.2966670989990264
11-09,0.27000045776366477,1.1399993896484375,5.040000915527351,0.1699981689453054,0.6399993896484517,1.5399932861327983,-0.1399993896484375,-1.75,1.5699996948242188,-9.27999877929686,6.379997253417969,4.44000244140625,9.0,3.0,12-24,0.8349994023640956
11-10,0.34999847412109375,0.5900001525878906,4.720001220703132,0.29999923706053977,0.6399993896484517,1.5399932861327983,-0.7300033569335938,1.9300003051757812,1.4199981689453125,-6.759994506835923,6.379997253417969,0.0,9.0,3.0,12-25,0.8649991353352876
11-11,0.3400001525878906,0.8100013732910085,3.6200027465820384,-0.13000106811523438,1.1299972534179972,2.1800003051757812,-0.75,1.5100021362304688,0.17000579833984375,-8.219993591308608,6.790000915527358,0.0,8.0,4.0,12-26,0.6208346684773787
11-12,0.7000007629394531,1.9500007629394531,4.009998321533196,0.10000228881835938,1.9899978637695455,2.2700042724609375,1.5099945068359375,-0.4900054931640625,0.31000518798828125,-12.069999694824219,6.510002136230469,0.0,9.0,3.0,12-27,0.5658334096272792
11-13,0.1699981689453125,1.8400001525878906,4.400001525878906,0.3899993896484446,1.3000030517578267,2.4900054931640625,1.94000244140625,0.09999847412109375,-0.1999969482421875,-10.610000610351548,5.110000610351548,0.0,9.0,2.0,12-28,0.5775009791056332
11-14,-0.3400001525878835,2.0400009155273366,4.340000152587891,1.5,1.470001220703125,2.7299957275390625,1.2000045776367188,0.6599960327148438,0.01000213623046875,-10.310005187988281,4.260002136230469,0.0,9.0,2.0,12-29,0.6299997965494791
11-15,-0.31999969482421875,2.1399993896484304,3.299999237060547,1.7400016784667969,1.8499984741210938,2.3799972534179545,1.6100006103515625,0.34000396728515625,0.1399993896484375,-13.020004272460938,4.8600006103515625,0.0,9.0,2.0,12-30,0.4183330535888654
11-16,-0.34999847412109375,2.7099990844726562,3.5099983215332102,1.5800018310546946,1.9400024414062216,2.899993896484361,1.94000244140625,0.15000152587890625,-0.48999786376953125,-13.90999603271483,4.680000305175781,0.0,8.0,3.0,12-31,0.3883339564005522
11-17,-0.5499992370605469,2.6500015258789062,4.180000305175781,0.8300018310546946,1.9400024414062216,2.899993896484361,2.0699996948242188,0.1399993896484375,-0.029998779296875,-12.809997558593736,4.680000305175781,0.0,8.0,3.0,01-01,0.5000003178914371
11-18,-0.23999786376953125,2.529998779296868,3.8600006103515554,0.40000152587891336,2.75,3.1100006103515767,0.6100006103515625,0.06999969482421875,1.279998779296875,-12.48000335693358,5.420005798339858,0.0,9.0,2.0,01-02,0.6091670989990264
11-19,-0.049999237060546875,2.259998321533203,5.040000915527344,0.7800025939941548,3.4199981689453125,3.2699966430664205,0.3600006103515625,-0.5499954223632812,0.80999755859375,-11.110000610351562,5.1200027465820455,0.0,8.0,3.0,01-03,0.7791668574015335
11-20,-0.020000457763671875,1.5499992370605469,4.719997406005859,1.789997100830071,3.9199981689453125,3.349998474121108,-0.6699981689453125,-0.7900009155273438,1.5400009155273438,-14.129997253417983,4.920005798339844,0.0,7.0,4.0,01-04,0.5150000254313145
11-21,-0.9399986267089844,2.099998474121101,4.829998016357429,1.80999755859375,3.709999084472642,1.7399978637695028,-1.1999969482421875,-1.220001220703125,0.6500015258789062,-13.319999694824219,4.319999694824247,0.0,7.0,4.0,01-05,0.20666631062825522
11-22,-0.4399986267089844,1.7999992370605469,4.55999755859375,1.1399993896484304,2.9300003051757812,1.3100051879882812,-1.7699966430664062,-1.2599945068359375,1.3400039672851562,-13.720001220703125,3.559997558593736,0.0,7.0,4.0,01-06,-0.04583231608073094
11-23,-0.4799995422363281,2.450000762939446,5.470001220703125,1.3300018310546804,2.6100006103515767,-0.7399978637695028,-2.1800003051757812,-1.8199996948242188,0.94000244140625,-14.810005187988281,3.090003967285142,0.0,6.0,5.0,01-07,-0.344999313354491
11-24,0.24000167846679688,1.430000305175767,5.880001068115234,1.829998016357429,2.2600021362304688,-1.4299964904785014,-3.0999984741210938,-1.839996337890625,-0.23999786376953125,-12.620002746582017,3.1000061035155966,0.0,6.0,5.0,01-08,-0.3741652170817063
11-25,-0.06999969482421875,1.5500030517578054,5.44000244140625,1.4099998474121094,2.5699996948242188,-0.9899978637695028,-3.69000244140625,-2.5999984741210938,0.17000579833984375,-11.740005493164034,1.9600067138671733,0.0,6.0,5.0,01-09,-0.4991655349731416
11-26,0.8400001525878906,1.1200027465820384,3.6899986267089844,3.9300003051757884,3.839996337890625,-1.0100021362304545,-3.8300018310546875,-2.970001220703125,0.45999908447265625,-10.17000579833983,0.6600036621093608,0.0,7.0,4.0,01-10,-0.28666750590006274
11-27,0.8400001525878906,1.4900016784667898,3.6300010681152344,3.8699989318847585,3.2600021362304688,-0.9700012207031108,-5.25,-2.7900009155273438,-0.34999847412109375,-8.819999694824205,0.3899993896484375,0.0,6.0,5.0,01-11,-0.39166641235351446
11-28,0.6599998474121094,1.5499992370605398,3.7900009155273438,3.5999984741210938,3.2900009155273438,0.8600006103515625,-4.600006103515625,-3.6500015258789062,-1.2400054931640625,-10.549995422363281,1.0999984741210795,0.0,7.0,4.0,01-12,-0.4325008392334002
11-29,0.6900024414062429,1.9300003051757812,3.180000305175774,3.4099998474121094,2.8300018310546875,0.37000274658200283,-4.660003662109375,-2.6399993896484375,-1.8899993896484375,-10.3699951171875,2.5400009155273295,0.0,7.0,4.0,01-13,-0.3841657638549852
11-30,0.7100028991699148,2.5300025939941406,1.0099983215332031,3.2100028991699148,3.0800018310547017,0.2700042724609233,-4.640007019042983,-0.1399993896484375,-2.7400054931640625,-9.47000122070311,3.779998779296861,0.0,7.0,4.0,01-14,-0.2000001271565779
12-01,0.5799980163574219,1.3600006103515625,1.2199974060058594,4.090000152587891,2.159996032714858,0.06999969482420454,-6.059997558593736,-1.0400009155273438,-1.9300003051757812,-9.729995727539062,4.189994812011719,0.0,7.0,4.0,01-15,-0.4241673151652006
12-02,0.4199981689453054,0.69000244140625,0.8499984741210938,4.279998779296875,3.279998779296889,-0.75,-5.019996643066392,-1.30999755859375,-1.80999755859375,-10.5,4.119995117187472,0.0,6.0,5.0,01-16,-0.47916666666666724
12-03,0.8299980163574219,-0.02000045776367898,0.2200012207031321,4.599998474121094,3.7900009155273438,-1.8300018310546733,-4.549995422363267,-0.04999542236328125,-1.5,-9.650001525878892,4.0,0.0,5.0,6.0,01-17,-0.34666633605956676
12-04,0.3600006103515554,0.6599998474121094,0.22999954223632812,4.489997863769531,4.189998626708977,-1.9700012207031108,-5.4399948120117045,0.12000274658203125,-1.8199996948242188,-8.23000335693358,4.930000305175781,0.0,7.0,4.0,01-18,-0.20666662851969164
12-05,0.1399993896484446,0.9500007629394602,0.43000030517578125,4.319999694824219,3.9199981689453125,-1.6600036621093608,-5.470001220703125,-0.04000091552734375,-2.160003662109375,-6.919998168945298,4.7600021362304545,0.0,6.0,5.0,01-19,-0.14416726430256924
12-06,-0.3999977111816406,1.5499992370605469,1.3800010681152344,3.8899993896484375,3.30999755859375,-2.0999984741210866,-6.150001525878906,-0.31999969482421875,-1.3300018310546875,-6.919998168945298,4.629997253417969,0.0,5.0,6.0,01-20,-0.20500024159749172
12-07,0.25,1.3899993896484304,1.4300003051757812,3.8699989318847656,3.410003662109389,-1.409996032714858,-6.099998474121094,0.0,-1.5400009155273438,-5.05999755859375,5.5900039672851705,0.0,6.0,5.0,01-21,0.15250110626220761
12-08,-0.26000213623046875,1.9699974060058594,2.229999542236328,4.260002136230462,2.6500015258789205,-1.6699981689453125,-5.769996643066406,-0.7199935913085938,-0.660003662109375,-3.1800003051757812,4.690002441406264,0.0,5.0,6.0,01-22,0.2950007120768247
12-09,-0.29000091552734375,1.9199981689453125,1.6399993896484446,4.550003051757805,2.5800018310547017,-1.920005798339858,-5.25,-2.0199966430664062,1.3300018310546875,-1.4199981689453267,3.0,0.0,6.0,5.0,01-23,0.3433335622151681
12-10,0.10999679565429688,1.1800003051757741,1.6100006103515696,4.24000167846679,2.709999084472642,-1.0500030517578267,-5.599998474121094,-2.970001220703125,0.18000030517578125,-2.6699981689453267,3.7299957275390767,0.0,7.0,4.0,01-24,0.12249946594237986
12-11,-0.5100021362304688,1.1199989318847656,1.6400032043457102,4.069999694824226,3.779998779296875,-1.3400039672851705,-6.160003662109375,-2.160003662109375,0.31999969482421875,-1.290000915527358,3.0999984741210938,0.0,6.0,5.0,01-25,0.21416536966959518
12-12,-0.4799995422363281,1.75,1.5,4.240001678466804,3.589996337890632,0.06999969482421875,-4.3000030517578125,-1.0699996948242188,1.7699966430664062,-2.5500030517578267,1.4899978637695312,0.0,7.0,4.0,01-26,0.5008322397867838
12-13,-0.4799995422363281,1.6599998474121094,2.0999984741210938,4.61000061035157,2.6000022888183594,-0.10000228881835938,-5.69000244140625,-0.94000244140625,1.5099945068359375,-2.940002441406264,3.4000015258789205,0.0,6.0,5.0,01-27,0.47749900817871155
12-14,-0.5400009155273438,2.0800018310546875,2.7699966430664062,5.180000305175781,0.11000061035157671,-0.09000015258789062,-2.0600051879882812,0.37999725341796875,1.8299942016601562,-3.2099990844726705,2.8000030517578267,0.0,7.0,4.0,01-28,0.7708323796590181
12-15,-0.4500007629394531,2.1800003051757812,1.8299980163574219,4.649997711181655,-0.9700012207031321,-0.970001220703125,-2.80999755859375,0.470001220703125,2.4499969482421875,-1.25,2.1699981689452983,0.0,6.0,5.0,01-29,0.6083326339721674
12-16,-0.5400009155273438,1.4300003051757812,0.9700012207031179,3.6599998474121165,-0.7000045776367188,-1.7299995422363281,-3.1999969482421875,0.3899993896484375,2.5699996948242188,-0.760002136230483,1.6500015258789062,0.0,6.0,5.0,01-30,0.31166648864745977
12-17,0.0,1.5799980163574148,2.270000457763679,4.539997100830085,-1.1100006103515483,-3.170001983642578,-2.0100021362304688,-0.3600006103515625,1.160003662109375,-0.6999969482422017,2.590003967285142,0.0,5.0,6.0,01-31,0.3991667429606114
12-18,-0.01000213623046875,0.460002899169929,2.120002746582024,4.29999923706054,-1.720001220703125,-4.520000457763672,-0.44000244140625,-1.0600051879882812,1.1200027465820312,0.01999664306642046,2.8600006103515483,0.0,6.0,5.0,02-01,0.260832786560058
12-19,-0.7099990844726491,0.710002899169929,2.4099998474121094,3.7900009155273438,-1.4199981689453267,-4.129997253417969,1.2399978637695312,-0.8300018310546875,0.839996337890625,2.3700027465820312,2.680000305175753,0.0,7.0,4.0,02-02,0.5791670481363909
12-20,-0.6299972534179616,1.3400001525878835,1.3500022888183665,3.6700019836425852,-1.1500015258789062,-3.9799957275390483,0.649993896484375,-0.04000091552734375,1.089996337890625,2.9499969482421733,1.5800018310546875,0.0,7.0,4.0,02-03,0.5691665013631196
12-21,-0.10999679565428977,1.1699981689453125,1.3199996948242116,3.770000457763679,-2.049999237060561,-3.549995422363267,-0.34000396728515625,0.5800018310546875,1.6599960327148438,5.569999694824247,0.1399993896484375,0.0,7.0,4.0,02-04,0.6799999872843454
12-22,-0.2999992370605469,0.6399993896484375,1.3500022888183665,4.239997863769531,-4.4300003051757955,-3.6199951171874787,0.8400039672851562,0.9200057983398438,0.9399948120117188,9.85000610351561,1.8699951171874716,0.0,8.0,3.0,02-05,1.0250008900960264
12-23,-0.1699981689453125,0.729999542236321,0.21999740600585938,4.219997406005859,-3.7199974060058807,-4.220001220703118,-0.30999755859375,-0.279998779296875,0.410003662109375,10.150001525878906,1.5799942016601562,0.0,6.0,5.0,02-06,0.7175000508626285
12-24,-0.36999893188477273,0.3300018310546804,0.9799995422363281,4.55999755859375,-4.090000152587891,-4.339996337890618,-0.15000152587890625,-0.3899993896484375,-2.0100021362304688,11.370002746582031,3.1399993896484517,0.0,5.0,6.0,02-07,0.752500216166179
12-26,-1.3600006103515625,1.3699989318847585,0.9199981689453054,5.369998931884766,-4.490001678466797,-4.04999923706054,-2.589996337890625,-1.4399948120117188,-1.5400009155273438,9.819999694824219,3.0500030517578267,0.0,5.0,6.0,02-09,0.42166709899902405
12-27,-1.2399978637695312,1.75,0.6699981689453054,5.1399993896484375,-4.220001220703111,-4.049995422363281,-0.6800003051757812,-0.6199951171875,-1.7700042724609375,9.21999359130858,2.5100021362304688,0.0,5.0,6.0,02-10,0.5591665903727208
12-28,-0.970001220703125,1.3200035095214844,1.2999992370605398,5.529998779296882,-4.039997100830092,-4.72999572753907,0.7000045776367188,-0.1699981689453125,-2.9000015258789062,9.25,0.9399948120117188,0.0,6.0,5.0,02-11,0.5191672643025699
12-29,-1.279998779296868,1.4900016784667969,0.6999969482421804,4.789997100830071,-4.11999893188478,-4.649997711181641,0.15000152587890625,-0.1399993896484375,-4.900001525878906,7.319999694824219,0.04000091552731533,0.0,6.0,5.0,02-12,-0.049999872843428626
12-30,-1.2399978637695241,1.6500015258789062,1.5900001525878906,4.709999084472649,-3.6999969482422017,-4.419998168945327,0.5699996948242188,0.12000274658203125,-4.849998474121094,7.629997253417983,0.29000091552731533,0.0,7.0,4.0,02-13,0.19583415985107067
12-31,-0.6599998474121023,2.0600013732910085,0.7600021362304616,4.989997863769524,-3.8699989318847727,-3.1599960327148295,1.5400009155273438,1.7700042724609375,-4.410003662109375,8.25,-0.9100036621093892,0.0,6.0,5.0,02-14,0.5300003687540672
