,2009,2010,2011,2012,2013,2014,2015,2016,2017,2018,2019,2020,ups,downs,end_day_sum,avg
01-02,-3.0149993896484375,-4.659999847412095,6.275001525878906,6.150001525878906,4.960002899169922,5.0449981689453125,0.9599990844726847,-4.120002746582031,-2.30999755859375,-2.5400009155273153,6.1399993896484375,-8.760002136230469,6.0,6.0,02-16,0.34375000000000594
01-03,-3.2849998474121023,-4.69999694824218,5.600002288818352,6.694999694824219,4.710002899169922,5.275001525878906,8.120002746582017,-1.9800033569335938,-2.7900009155273438,-4.169998168945298,6.779998779296875,-9.610000610351562,6.0,6.0,02-17,0.8870840072631841
01-04,-3.4749984741210973,-3.779998779296868,5.424999237060554,6.625,3.9000015258789134,5.724998474121094,10.239997863769531,-1.7900009155273438,-2.8700027465820455,-4.189994812011719,2.8300018310546875,-12.760002136230469,6.0,6.0,02-18,0.4900000890096032
01-05,-7.214998245239258,-3.145000457763672,5.329998016357429,6.344997406005859,3.670001983642571,6.470001220703125,9.809997558593736,0.69000244140625,-3.4300003051757812,-5.4099960327148295,2.4499969482421733,-13.520004272460938,7.0,5.0,02-19,0.17041635513305545
01-06,-7.250001907348629,-3.3100013732910156,5.084999084472663,6.204998016357422,1.600002288818338,7.9499969482421875,11.099998474121108,3.5,-4.459999084472656,-5.0199966430664205,5.739997863769517,-13.910003662109375,7.0,5.0,02-20,0.6024991671244283
01-07,-6.02499961853027,-2.845001220703118,4.3649978637695455,7.7250022888183665,2.7049980163574148,6.004997253417969,11.629997253417983,5.3600006103515625,-2.8499984741210938,-5.069999694824219,5.199996948242173,-12.010002136230469,7.0,5.0,02-21,1.182499090830487
01-08,-6.495000839233395,-2.3550033569335866,4.635002136230469,6.090000152587891,1.625,6.040000915527344,8.430000305175795,3.940002441406264,-3.9899978637695312,-4.75,3.2600021362304688,-10.05999755859375,7.0,5.0,02-22,0.5308340390523307
01-09,-5.3600006103515625,-1.75,6.970001220703125,6.740001678466797,1.3800010681152415,5.930000305175781,6.340003967285142,6.040000915527344,-3.5499954223632812,-5.900001525878892,-0.4100036621093608,-10.970001220703125,6.0,6.0,02-23,0.4550005594889341
01-10,-4.229999542236328,-3.0149993896484375,6.685001373291016,5.070003509521484,0.6450004577636719,6.6100006103515625,6.569999694824219,8.540000915527344,-5.870002746582031,-6.200004577636719,-0.34000396728517046,-10.279998779296875,6.0,6.0,02-24,0.34874979654947796
01-11,-6.295000076293945,-4.114997863769531,8.829998016357422,6.245002746582031,-0.7949981689453054,7.269996643066406,7.4199981689453125,4.3499984741210795,-7.3899993896484375,-9.330001831054673,-1.5200042724609517,-11.30999755859375,5.0,7.0,02-25,-0.5533337593078619
01-12,-5.119998931884766,-1.3699989318847656,7.950000762939446,5.89000320434571,0.339996337890625,8.469993591308608,7.099998474121094,6.5999984741210795,-7.8400039672851705,-8.610000610351577,-2.980003356933608,-15.609992980957017,6.0,6.0,02-26,-0.43166732788086176
01-13,-7.525001525878903,-2.5400009155273366,8.264999389648438,6.729999542236328,-1.4450035095214844,10.269996643066406,7.970001220703125,5.3499984741210795,-7.819999694824219,-4.55999755859375,-3.760002136230483,-18.529998779296875,5.0,7.0,02-27,-0.6329174041748061
01-14,-5.680000305175778,-2.6599998474121094,4.7949981689453125,6.915000915527337,-0.5800018310546875,8.919998168945312,5.290000915527344,4.259994506835923,-9.180000305175795,-3.9000015258789205,-4.599998474121108,-23.130001068115234,5.0,7.0,02-28,-1.6291675567627004
01-15,-5.994998931884755,-1.8250007629394602,4.435001373291023,5.95000076293946,0.9099998474121094,8.040000915527344,6.5,5.529998779296868,-7.569999694824219,-6.449996948242202,-3.5499954223632812,-23.539997100830078,6.0,6.0,02-29,-1.4637489318847658
01-16,-6.159999847412113,-1.6499977111816477,4.715000152587905,6.444999694824219,0.7749977111816335,8.169998168945312,-0.18000030517580967,6.520000457763672,-8.490005493164077,-11.970001220703125,-3.6299972534179688,-23.819995880126953,5.0,7.0,03-01,-2.4395834604899127
01-17,-5.344999313354492,-1.3499984741210938,2.5250015258789134,5.069999694824219,0.44499969482421875,9.254997253417969,0.3899993896484375,3.759998321533203,-5.4300003051757955,-12.110000610351562,-4.0100021362304545,-25.30999755859375,6.0,6.0,03-02,-2.675833543141682
01-18,-7.569999694824219,-1.2599983215332031,2.905002593994155,4.2449989318847585,-0.5400009155273438,10.095001220703125,-0.2700042724609375,4.039997100830064,-5.349998474121108,-12.819999694824205,-7.050003051757798,-20.78000259399414,4.0,8.0,03-03,-2.862917264302571
01-19,-6.344999313354492,-0.7649993896484375,3.625,4.3899993896484375,-1.75,10.029998779296875,1.040000915527358,6.020000457763672,-5.1399993896484375,-13.190002441406264,-0.44000244140625,-21.18000030517578,5.0,7.0,03-04,-1.9754169782002766
01-20,-4.815000534057614,-0.2550010681152344,3.665000915527351,6.875,-2.354999542236328,11.165000915527344,1.1599960327148295,6.759998321533203,-7.0,-15.370002746582017,-0.05000305175779829,-21.610000610351562,5.0,7.0,03-05,-1.8191676139831523
01-21,-7.110000610351559,-0.3849983215332031,4.68499755859375,4.150001525878906,-0.9000015258789062,10.630004882812514,-0.05000305175782671,3.25,-4.8899993896484375,-15.010002136230455,-1.3600006103515625,-19.959999084472656,4.0,8.0,03-06,-2.2458333969116198
01-22,-6.3100013732910085,0.5749969482421946,3.8249969482421804,3.799999237060547,-0.4500007629394531,9.385002136230483,0.12999725341795454,3.230003356933608,-3.3899993896484375,-15.809997558593736,-4.919998168945327,-19.009994506835938,6.0,6.0,03-07,-2.412082990010578
01-23,-7.364999771118164,1.2049980163574148,3.424999237060547,3.5600013732910156,0.4249992370605469,10.66000366210939,-1.2000045776367188,9.820003509521484,-3.9300003051757812,-16.96999359130858,-4.629997253417983,-17.75,6.0,6.0,03-08,-1.8958325386047357
01-24,-7.965000152587891,1.2000007629394602,2.234996795654297,4.29499816894532,0.30500030517577414,12.764999389648438,-3.7600021362304688,13.880001068115234,-8.849998474121094,-17.59999847412108,-5.299995422363281,-17.97999954223632,6.0,6.0,03-09,-2.2312498092651345
01-25,-8.790000915527344,1.5400009155273366,2.9650001525878764,3.1650009155273366,1.145000457763679,13.909996032714844,-4.6100006103515625,8.96999740600586,-9.069999694824219,-16.579994201660156,-7.75,-21.34000015258789,6.0,6.0,03-10,-3.03708330790202
01-26,-7.545000076293949,2.8499984741210938,1.7600021362304616,4.194999694824219,2.239997863769517,13.474998474121094,-6.1399993896484375,6.2300033569335795,-9.55999755859375,-17.170005798339858,-11.659996032714844,-39.040000915527344,6.0,6.0,03-11,-5.030416647593185
01-27,-6.330001831054695,3.2249984741210938,1.2750015258788991,5.145000457763665,2.2300033569335938,11.749999999999986,-6.4499969482421875,6.19000244140625,-7.2000045776367045,-13.77999877929689,-11.839996337890625,-35.040000915527344,6.0,6.0,03-12,-4.23541609446208
01-28,-7.979999542236328,3.6649971008300852,0.15000152587890625,4.835002899169915,2.94000244140625,8.955001831054673,-1.5499954223632812,3.6300048828125,-6.409996032714858,-15.930000305175781,-11.1199951171875,-38.19000244140625,6.0,6.0,03-13,-4.750414848327639
01-29,-7.284999847412109,3.6800003051757812,-0.3699989318847656,4.210002899169915,1.470001220703118,10.240005493164048,-2.3600006103515625,1.25,-6.25,-16.52999877929689,-10.300003051757827,-36.279998779296875,5.0,7.0,03-14,-4.877082506815597
01-30,-4.479997634887685,1.0149993896484446,0.06999969482421875,5.770000457763665,1.7800025939941406,9.499999999999986,-3.3199996948242188,6.0900039672851705,-6.610000610351577,-15.279998779296875,-10.879997253417983,-36.959999084472656,6.0,6.0,03-15,-4.442082246144614
01-31,-3.8749980926513743,0.6699981689453196,-0.47499847412108664,4.270000457763672,2.450000762939453,8.834999084472656,-7.129997253417969,5.690002441406264,-4.520004272460923,-15.110000610351562,-10.629997253417983,-40.410003662109375,5.0,7.0,03-16,-5.019583225250242
02-01,-2.6099987030029332,0.46500015258789773,-1.4449996948242045,4.3899993896484375,1.6149978637695312,12.114997863769531,-4.6199951171875,4.520004272460952,-3.940002441406236,-16.62999725341797,-9.159996032714844,-36.57000350952148,5.0,7.0,03-17,-4.322499434153234
02-02,-1.8199996948242223,-0.6100006103515554,-1.375,4.099998474121094,1.5649986267089844,12.744995117187486,-5.719993591308594,7.8799972534179545,-2.650001525878892,-14.180000305175781,-10.52999877929686,-40.270002365112305,4.0,8.0,03-18,-4.238750616709392
02-03,-2.940000534057617,-0.6949996948242116,-1.2800025939941264,3.2700004577636648,0.8199958801269389,13.709999084472656,-5.649993896484389,4.849998474121094,-5.110000610351548,-9.110000610351562,-7.459999084472642,-40.480003356933594,4.0,8.0,03-19,-4.1729172070821114
02-04,-3.285001754760742,1.454998016357429,0.9500007629394531,3.3600006103515554,-0.01000213623046875,9.474998474121094,-4.529998779296861,6.599998474121094,-3.2699966430664205,-11.08999633789064,-6.5,-43.860002517700195,5.0,7.0,03-20,-4.2254168192545585
02-05,-3.539999008178704,0.20999908447265625,1.1700019836425781,3.6650009155273366,-1.2900047302246165,10.019996643066406,-5.529998779296861,9.44000244140625,-3.4799957275390767,-8.229995727539077,-2.4599990844726562,-47.29000282287598,5.0,7.0,03-21,-3.942916234334312
02-06,-2.585000991821296,0.05999755859375,2.9050025939941406,2.325000762939446,-1.7150001525878835,7.1399993896484375,-6.260002136230469,7.1999969482421875,-5.169998168945327,-3.4899978637695312,-0.29000091552734375,-46.110002517700195,5.0,7.0,03-22,-3.8325004577636737
02-07,-4.394998550415043,-0.04000091552734375,3.8850021362304688,1.3400001525879048,-1.765003204345696,6.915000915527344,-5.2699966430664205,7.529998779296875,-2.5400009155273295,-1.0,2.9000015258789205,-41.12999725341797,5.0,7.0,03-23,-2.797499497731524
02-08,-2.329998016357429,1.279998779296875,4.654998779296882,1.1949996948242259,-4.689998626708984,8.720001220703125,-6.949996948242202,7.470001220703125,-3.4899978637695312,3.7399978637695312,4.3700027465820455,-38.80999755859374,7.0,5.0,03-24,-2.06999905904134
02-09,-3.329998016357429,-0.9850006103515625,5.060001373291016,0.6800003051757884,-4.179996490478516,7.7000045776367045,-7.110000610351577,10.310005187988295,-5.159996032714858,4.220001220703125,-0.529998779296875,-39.159996032714844,5.0,7.0,03-25,-2.7070811589558943
02-10,-1.4800014495849574,2.1650009155273366,4.915000915527337,-0.7400016784667969,-4.709999084472656,8.685005187988281,-5.300003051757827,10.110000610351562,-6.630004882812472,2.720001220703125,-1.4300003051757812,-33.89999771118164,5.0,7.0,03-26,-2.1329166094462075
02-11,-0.4600009918212926,0.7550010681152273,6.125,-0.8249969482421804,-2.220001220703125,8.694999694824233,-3.2399978637695455,10.340003967285156,-5.489997863769531,4.430000305175781,0.55999755859375,-35.10000228881837,6.0,6.0,03-27,-1.3691662152608244
02-12,-0.32999992370606535,-0.7800025939941406,6.319999694824219,-0.6099967956542898,-2.600006103515625,8.504997253417983,-4.840003967285142,6.6399993896484375,-6.970001220703139,3.19000244140625,-1.0400009155273295,-35.68999862670899,4.0,8.0,03-28,-2.350417613983153
02-13,-0.8649997711181605,-1.6150016784667969,6.770000457763679,-1.0499992370605398,-2.350006103515625,8.324996948242202,-5.55999755859375,6.410003662109375,-5.05999755859375,3.8600006103515625,-2.160003662109375,-35.990001678466804,4.0,8.0,03-29,-2.4404171307881652
02-14,1.534999847412113,0.06999969482421875,7.384998321533203,-2.0600013732910227,-2.2150039672851562,8.25,-5.930000305175753,6.6399993896484375,-4.230003356933594,-0.43000030517579546,-2.3700027465820312,-35.38999938964843,5.0,7.0,03-30,-2.3954178492228175
02-15,0.2099990844726527,0.2599983215332031,7.819999694824233,-2.6049995422363352,-0.49500274658200283,8.620002746582031,-4.3499984741210795,7.55999755859375,-3.75,-1.3600006103515483,-5.010002136230483,-38.529998779296875,5.0,7.0,03-31,-2.635833740234371
02-16,-0.7400016784667969,0.2599983215332031,8.10000228881836,-3.9950027465820455,-1.6649932861327983,8.125,-4.799995422363281,5.7700042724609375,-3.1699981689453125,-3.8199996948242188,-4.529998779296875,-39.54999923706055,4.0,8.0,04-01,-3.3345820109049478
02-17,0.4449996948242152,0.23999786376953125,7.48500061035157,-2.6650009155273438,-1.4449996948242188,9.020004272460938,-4.799995422363281,2.8400039672851562,-1.8600006103515625,-2.69000244140625,-2.7699966430664205,-38.61000061035156,5.0,7.0,04-02,-2.900832494099936
02-18,0.25500106811522727,-0.5,4.8100013732910085,-2.2750015258789062,-1.1749954223632955,9.150001525878906,-3.6199951171875284,4.200004577636719,-1.9199981689453267,-5.029998779296875,-3.659996032714858,-39.93000030517579,4.0,8.0,04-03,-3.3079147338867263
02-19,0.6550006866455043,-0.8499984741210866,5.034999847412109,-1.1500015258789062,-2.6499977111816406,9.680000305175781,-2.1100006103515625,2.8700027465820312,-2.5100021362304688,-2.8899993896484375,-5.779998779296875,-42.68000030517579,4.0,8.0,04-04,-3.5316662788391113
02-20,2.6100006103515625,1.7350006103515625,5.025001525878913,-1.045001983642571,-0.6450004577636719,9.095001220703125,0.1399993896484375,-0.1699981689453125,-1.220001220703125,-3.7900009155273438,-4.849998474121094,-41.389999389648445,5.0,7.0,04-05,-2.87541643778483
02-21,6.079999923706055,2.829998016357422,4.299999237060547,-1.045001983642571,1.029998779296875,11.650001525878906,0.779998779296875,-1.9000015258789062,-1.8899993896484375,-1.6399993896484517,-1.4199981689453125,-35.90999984741211,6.0,6.0,04-06,-1.4279170036315925
02-22,4.860000610351566,2.634998321533196,3.2449989318847727,-1.0500030517578054,-1.2399978637695312,9.569999694824205,2.940002441406264,-1.6699981689453125,0.0500030517578125,-2.9199981689453125,-1.8600006103515625,-30.02000427246095,6.0,6.0,04-07,-1.2883332570393884
02-23,3.495000839233395,6.914997100830085,0.20999908447266336,-1.470001220703118,1.4900016784667969,7.7300033569335795,2.339996337890625,3.200004577636733,0.01000213623046875,-4.450004577636733,3.8799972534179545,-30.480003356933608,9.0,3.0,04-08,-0.5941672325134298
02-24,2.319999694824215,5.529998779296882,2.319999694824226,-3.515003204345696,2.5600013732910156,8.510002136230455,2.4300003051757812,1.700004577636733,1.75,-7.559997558593736,4.730003356933594,-28.5800018310547,9.0,3.0,04-09,-0.6504160563151027
02-25,2.970001220703118,5.25999832153321,1.4550018310546875,-3.220001220703132,3.240001678466797,6.949996948242202,1.0100021362304688,2.720001220703125,-0.5500030517578125,-6.1100006103515625,3.8199996948242188,-25.659996032714844,8.0,4.0,04-10,-0.6762498219807936
02-26,3.280000686645508,6.454998016357429,1.1750030517578054,-4.090000152587891,2.55999755859375,5.729995727539077,3.910003662109389,3.9499969482421875,0.6599960327148438,-1.829994201660142,4.819999694824219,-21.869998931884766,9.0,3.0,04-11,0.3958331743876175
02-27,4.504999160766602,5.05999755859375,0.18000030517577414,-5.810001373291023,0.8499984741210938,5.214996337890639,5.989997863769531,8.730003356933594,-0.03000640869142046,2.4599990844726705,3.69000244140625,-18.669998168945312,9.0,3.0,04-12,1.014165719350179
02-28,7.879999160766605,6.2649993896484375,-1.5399971008300852,-6.8300018310546875,1.4549980163574219,3.4000015258789062,7.529998779296875,9.270004272460938,0.8899993896484375,7.980003356933594,4.730003356933594,-17.96999740600586,9.0,3.0,04-13,1.9216675758361816
02-29,0.0,0.0,0.0,-5.4550018310546875,0.0,0.0,0.0,12.770004272460938,0.0,0.0,0.0,-18.040000915527344,1.0,2.0,04-14,-0.8937498728434244
03-01,8.190000534057614,6.364997863769524,1.3400001525878906,-6.980003356933594,2.6299972534179688,3.9850006103515483,5.630004882812486,12.760002136230483,-2.1700057983398438,8.220001220703125,2.3100051879882812,-19.56999969482422,9.0,3.0,04-15,1.8925000826517717
03-02,7.465000152587894,7.229999542236328,0.9599990844726491,-4.340000152587891,1.1699981689453054,5.31500244140625,7.400001525878906,10.779998779296875,-0.5900039672851705,8.530006408691392,8.5,-20.630001068115234,9.0,3.0,04-16,2.6491667429606083
03-03,5.600000381469727,6.7350006103515625,-0.23999786376953125,-4.93499755859375,-2.7999992370605398,6.465003967285156,7.589996337890611,8.529998779296875,-1.0800018310547017,9.209999084472642,5.310005187988281,-22.540000915527344,7.0,5.0,04-17,1.487083911895749
03-04,4.070001602172848,7.045001983642578,0.6700019836425852,-5.215000152587891,-1.3199996948242188,5.3300018310546875,7.470001220703139,6.399993896484375,-4.430000305175781,9.209999084472642,5.5400009155273295,-24.19000244140625,8.0,4.0,04-18,0.8816666603088367
03-05,3.700000762939453,6.560001373291023,1.2299995422363281,-4.199996948242195,-4.939998626708984,5.864997863769517,8.370002746582031,0.23999786376953125,-4.330001831054702,9.340003967285142,6.849998474121094,-21.979999542236335,8.0,4.0,04-19,0.5587504704793252
03-06,3.2550010681152344,5.04999923706054,0.645000457763679,-4.275001525878906,-5.3899993896484375,5.5800018310546875,9.430000305175781,1.970001220703125,-5.239997863769531,11.83999633789061,10.409996032714858,-18.779998779296875,8.0,4.0,04-20,1.2079165776570637
03-07,4.8300018310546875,5.30999755859375,0.44499969482421875,-4.4850006103515625,-6.369998931884773,6.050003051757827,9.510002136230469,3.6599960327148438,-6.239997863769531,11.979995727539048,11.0,4.240001678466797,9.0,3.0,04-21,3.3275000254313145
03-08,2.7750015258789027,7.0699996948242045,1.6350021362304688,-5.120002746582031,-6.684997558593729,7.9249954223632955,10.019996643066392,8.810005187988281,-1.5400009155273438,12.260002136230469,15.399993896484375,3.5699996948242188,9.0,3.0,04-22,4.676666259765625
03-09,3.245000839233395,6.909999847412124,1.8349990844726634,-5.510002136230469,-7.610000610351555,9.004997253417969,8.8699951171875,7.1100006103515625,-2.409996032714858,11.239997863769545,17.610000610351577,2.9000015258789062,9.0,3.0,04-23,4.432916164398197
03-10,1.7250003814697301,6.51500320434571,3.3199996948242188,-5.350002288818359,-6.130001068115234,7.814994812011719,11.509994506835952,7.100006103515625,-1.4899978637695455,13.319999694824219,20.80999755859375,1.5500030517578125,9.0,3.0,04-24,5.057916482289634
03-11,1.1800003051757812,7.045001983642585,3.0849990844726562,-5.06500244140625,-5.8300018310546875,12.27999877929689,11.14999389648439,3.9800033569335938,-1.3699951171875142,14.189994812011719,20.339996337890625,4.290000915527344,9.0,3.0,04-25,5.4395825068155945
03-12,-1.2250003814697301,7.7150001525878835,2.6700019836425852,-4.640003204345703,-5.075000762939453,12.514999389648452,11.989997863769545,6.1399993896484375,-1.2099990844726847,13.939994812011719,16.959999084472642,10.650001525878906,8.0,4.0,04-26,5.869165897369384
03-13,0.5649986267089879,8.415000915527344,1.904998779296875,-5.209999084472656,-4.975002288818359,13.625,12.879997253417969,4.980003356933594,0.31999969482420454,15.349998474121108,15.370002746582017,9.420001983642578,10.0,2.0,04-27,6.053750038146972
03-14,0.8249988555908168,7.795001983642578,2.595001220703125,-4.125,-5.950000762939453,10.495002746582031,8.819999694824219,8.0,-0.2799987792968608,15.510002136230469,14.249999999999986,12.260000228881832,9.0,3.0,04-28,5.8495839436848955
03-15,0.44999885559081676,5.8699989318847585,3.159999847412095,-4.599998474121087,-4.279998779296875,5.425003051757827,9.459999084472656,10.900001525878906,-2.75,16.75,13.230003356933594,13.440000534057614,9.0,3.0,04-29,5.587917327880859
03-16,0.9349994659423793,6.469997406005859,3.6350021362304545,-4.130001068115234,-4.904994964599588,4.444999694824247,10.55999755859375,9.470001220703125,-1.5200042724609233,17.170005798339844,5.959999084472642,13.879999160766598,9.0,3.0,04-30,5.1641667683919295
03-17,1.3199996948242223,6.805000305175774,1.5400009155273366,-4.185001373291016,-3.49999618530272,6.005004882812528,12.939994812011705,8.010002136230469,-3.4300003051757812,18.31999969482422,5.0800018310546875,16.83000183105469,9.0,3.0,05-01,5.477917353312176
03-18,1.8649997711181712,8.069999694824219,2.0250015258789062,-3.7900009155273366,-3.8849945068359233,3.4199981689453125,9.079994201660142,6.260002136230469,-3.720001220703125,19.699996948242188,4.130004882812486,17.960000991821293,9.0,3.0,05-02,5.092916806538899
03-19,1.2499980926513743,9.780002593994134,0.825000762939446,-3.079998016357422,-4.219997406005859,4.2350006103515625,10.209999084472642,6.660003662109375,-4.19000244140625,19.08999633789064,-0.989997863769517,14.500000000000007,8.0,4.0,05-03,4.505833784739178
03-20,0.764999389648434,10.310001373291023,-0.22999954223632102,-2.7150001525878906,-3.704998016357429,2.8349990844726562,8.26999664306642,6.819999694824219,-4.3499984741210795,15.319999694824219,-4.0,12.619998931884759,7.0,5.0,05-04,3.494999885559084
03-21,0.0,11.029998779296882,-1.625,-2.2649993896484446,-2.5349998474121094,1.3000030517578267,9.900001525878906,4.6699981689453125,-2.769996643066392,11.870002746582031,-4.980003356933608,10.029998779296875,6.0,6.0,05-05,2.885416984558107
03-22,2.979999542236328,9.369998931884773,-3.5400009155273438,-0.5349998474121094,-2.6550025939941406,2.259994506835966,10.389999389648438,3.4399948120117188,-2.8899993896484233,12.360000610351562,-4.510002136230469,12.200000762939453,7.0,5.0,05-06,3.2391653060913126
03-23,2.4650001525878906,5.5149993896484375,-3.895000457763672,-2.0100021362304688,0.030002593994140625,4.449996948242202,5.540000915527344,5.0,-3.0499954223632812,10.15000152587892,-1.8799972534179688,11.509998321533203,8.0,4.0,05-07,2.818750381469729
03-24,6.724998474121094,6.299999237060547,-4.635002136230462,-3.4350013732910156,1.0600013732910156,8.829994201660156,6.2400054931640625,5.0399932861328125,-6.260002136230469,7.090003967285156,-1.540000915527358,6.040000915527344,8.0,4.0,05-08,2.6212491989135738
03-25,7.045000076293949,7.875,-6.595001220703125,-3.6950035095214844,5.8850021362304545,9.004997253417969,5.120002746582031,6.730003356933594,-2.5,6.319999694824219,-1.0,6.150001525878913,8.0,4.0,05-09,3.361666838328043
03-26,7.769998550415039,6.39000320434571,-5.5,-4.085002899169915,4.5,8.73000335693358,3.720001220703125,4.150001525878906,-1.6899948120117188,7.720001220703125,-0.7399978637695312,6.3100013732910085,8.0,4.0,05-10,3.106251239776611
03-27,7.104997634887692,3.9399986267089844,-3.5600013732910227,-3.0900001525878906,4.8499984741210795,8.05999755859375,2.940002441406236,4.1100006103515625,-1.739997863769517,11.459999084472656,-0.55999755859375,12.310001373291023,8.0,4.0,05-11,3.8187499046325666
03-28,10.105001449584964,6.764999389648445,-3.7950019836425852,-2.2649993896484304,4.914993286132798,3.1500015258789062,1.3600006103515625,5.200004577636719,-0.75,13.970001220703125,-1.209999084472642,16.470001220703125,8.0,4.0,05-12,4.492916901906333
03-29,8.535001754760746,5.889999389648445,-6.489997863769524,-1.9599990844726562,3.785003662109375,4.194999694824219,-0.529998779296875,4.870002746582031,-2.4599990844726562,12.520004272460938,-0.9400024414062642,14.860000610351562,7.0,5.0,05-13,3.522917906443278
03-30,8.295000076293949,7.520000457763665,-6.25,-2.2949981689453196,2.535003662109375,5.555000305175781,1.2700042724609375,6.659996032714844,-2.6299972534179688,16.01999664306642,-1.9400024414062358,14.740001678466804,8.0,4.0,05-14,4.12333377202352
03-31,7.780000686645508,7.719997406005845,-5.909999847412095,-4.55999755859375,2.5750045776367188,7.084999084472656,-0.09000396728514204,7.739997863769531,-3.2700042724609233,14.480003356933594,-3.440002441406236,12.28000259399414,7.0,5.0,05-15,3.532499790191654
04-01,6.594999313354496,6.3999977111816335,-6.435001373291016,-6.154998779296875,4.0800018310546875,4.9199981689453125,0.37999725341796875,8.459999084472656,-2.2600021362304545,15.75,-2.600006103515611,13.600002288818366,8.0,4.0,05-16,3.561248938242597
04-02,4.994998931884766,5.155002593994141,-6.465000152587891,-7.069999694824219,2.8199996948242188,4.790000915527344,-1.1100006103515625,8.340003967285156,-2.2299957275390625,17.300003051757812,-1.6900024414062358,9.900001525878906,7.0,5.0,05-17,2.894584337870281
04-03,4.1100006103515625,4.159999847412109,-6.835002899169929,-7.305000305175788,4.295001983642564,3.25,-4.139999389648452,10.3800048828125,-3.1299972534179688,16.43000030517578,0.43000030517578125,7.670001983642585,8.0,4.0,05-18,2.4429175059000623
04-04,3.77499961853027,2.7300033569335938,-6.3800010681152415,-5.784999847412109,5.9150009155273295,2.970001220703111,-4.4000015258789205,11.260002136230469,-5.300003051757798,17.330001831054688,0.69000244140625,8.25,8.0,4.0,05-19,2.5879171689351366
04-05,5.175001144409176,2.5349998474121094,-5.1499977111816335,-5.115001678466797,4.2350006103515625,4.569999694824219,-3.069999694824247,9.870002746582031,-4.630004882812486,17.120002746582045,-3.4499969482421733,13.009998321533196,7.0,5.0,05-20,2.925000349680584
04-06,5.659997940063473,2.4250030517578196,-4.094997406005859,-5.05000305175782,4.180000305175781,4.370002746582017,-4.6100006103515625,9.19000244140625,-5.100006103515597,24.220001220703125,-6.4600067138671875,11.229999542236328,7.0,5.0,05-21,2.9966661135355643
04-07,7.235000610351573,-0.7549972534179759,-4.020000457763665,-5.56500244140625,4.3600006103515625,3.9599990844726562,-3.80999755859375,8.960006713867188,-5.669998168945327,22.41000366210939,-5.8000030517578125,11.319999694824212,6.0,6.0,05-22,2.7187509536743164
04-08,6.695001602172859,-2.3649978637695312,-4.335002899169915,-3.6200027465820384,3.6949996948242188,5.450004577636719,-3.5800018310546875,6.6100006103515625,-4.7600021362304545,24.069999694824247,-3.850006103515639,7.360000610351555,6.0,6.0,05-23,2.614166100819908
04-09,5.545001983642582,-4.239997863769531,-2.9099998474121094,-3.0550003051757884,1.3399963378906108,5.210006713867173,-5.25,6.909996032714844,-5.459999084472656,20.38000488281253,-5.659996032714844,7.83000183105468,6.0,6.0,05-24,1.7200012207031241
04-10,5.235000610351573,-3.295001983642578,-4.209999084472656,-1.1500015258789062,1.1549987792968608,6.0500030517578125,-6.129997253417969,7.2599945068359375,-6.040000915527344,15.319999694824219,-5.819999694824219,9.360000610351555,6.0,6.0,05-25,1.4779163996378573
04-11,3.889999389648441,-4.909999847412109,-3.305000305175774,-0.625,1.334999084472642,5.5300064086914205,-3.2000045776367188,8.479995727539062,-5.209999084472642,13.580001831054688,-5.819999694824219,9.029998779296875,6.0,6.0,05-26,1.5645831425984722
04-12,3.610000610351566,-4.2350006103515625,-1.0150032043457031,-1.7600021362304688,3.3999977111816335,3.720001220703125,-4.430000305175753,5.569999694824219,-4.8199996948242045,13.0,-12.39999389648439,8.989997863769538,6.0,6.0,05-27,0.8024997711181667
04-13,3.649997711181637,-3.8199996948242045,-1.7050018310546875,-0.81500244140625,7.604995727539055,4.010002136230469,-5.5400009155273295,5.3000030517578125,-2.970001220703125,11.960006713867188,-13.270004272460952,8.149997711181634,6.0,6.0,05-28,1.0462493896484373
04-14,3.8749980926513565,-4.775001525878899,-1.7600021362304688,-0.9899978637695312,7.319999694824212,4.7700042724609375,-7.459999084472656,5.2700042724609375,-3.0699996948242045,8.960006713867188,-14.95999908447267,10.5,6.0,6.0,05-29,0.6400011380513501
04-15,4.514997482299798,-5.380001068115227,-1.9200019836425781,-0.5099983215332031,7.464996337890618,4.080001831054673,-8.959999084472656,7.370002746582031,-4.720001220703111,6.740005493164077,-15.010002136230483,12.84000015258789,6.0,6.0,05-30,0.5425000190734858
04-16,4.844997406005852,-3.8650016784667898,-1.3199996948242259,1.0450019836425781,6.840000152587891,4.180000305175753,-9.0,4.8600006103515625,-4.519996643066392,5.19000244140625,-15.919998168945312,16.209999084472656,7.0,5.0,05-31,0.7120838165283185
04-17,6.2649993896484375,-0.7399978637695455,-0.8600006103515696,-1.9050025939941264,9.005001068115234,2.740005493164034,-8.080001831054688,4.129997253417969,-6.119995117187486,8.610000610351577,-15.409996032714844,9.799999237060547,6.0,6.0,06-01,0.6195840835571284
04-18,8.610000610351573,-1.5750007629394602,-0.365001678466804,-1.5900001525878835,8.760002136230462,3.1399993896484375,-9.049995422363267,3.9199981689453125,-4.520004272460923,6.910003662109389,-17.440002441406264,9.80000305175782,6.0,6.0,06-02,0.550000190734866
04-19,10.375000000000004,-3.579998016357429,-0.6399993896484304,-1.4850006103515554,9.624999999999979,2.2700042724609233,-8.979995727539048,1.6200027465820312,-2.9800033569335795,5.720001220703139,-23.110000610351562,10.64000320434571,6.0,6.0,06-03,-0.04374885559081824
04-20,10.11999893188477,-1.8800010681152273,-1.8149986267089773,-1.8649978637695384,6.350002288818359,1.8499984741210795,-7.970001220703111,1.3799972534179688,-2.990005493164034,3.839996337890639,-25.19000244140625,13.64000320434571,6.0,6.0,06-04,-0.377500851949051
04-21,7.829999923706058,-2.0600013732910227,-1.8400001525878906,-5.965000152587891,7.674999237060547,3.1300048828125,-7.579994201660156,1.589996337890625,-3.1800003051757812,3.5100021362304688,-24.12000274658203,14.869998931884773,6.0,6.0,06-05,-0.5116664568583168
04-22,8.104999542236328,-2.6300010681152273,0.285003662109375,-6.599998474121094,7.880001068115234,4.0300064086914205,-8.689994812011733,-0.43000030517578125,-4.059997558593736,3.8300018310546875,-22.790000915527344,12.219997406005866,6.0,6.0,06-06,-0.7374986012776669
04-23,6.225000381469723,-1.9949989318847656,0.1100006103515696,-5.864997863769524,5.760002136230469,1.290000915527358,-9.259994506835938,-0.0500030517578125,-4.5400009155273295,1.7400054931640625,-24.56999969482422,11.14999771118164,6.0,6.0,06-07,-1.667082309722897
04-24,5.020000457763672,-4.745002746582024,-0.6399993896484304,-4.7649993896484375,4.295001983642578,2.8899993896484517,-9.340003967285156,1.5099945068359375,-2.9099960327148295,1.5500030517578125,-21.91000366210936,11.790000915527337,6.0,6.0,06-08,-1.4379170735677043
04-25,5.545001983642571,-5.670001983642578,-1.1449966430664134,-5.755001068115234,3.3300018310546875,8.860000610351562,-7.680000305175781,5.659996032714844,-7.1199951171875,0.7399978637695312,-20.050003051757812,14.770000457763679,6.0,6.0,06-09,-0.7095832824707037
04-26,5.6399993896484375,-3.5600013732910156,-1.3899993896484304,-6.799999237060547,5.759998321533196,11.260002136230455,-8.25,2.5800018310546875,-6.159996032714858,-1.480003356933608,-13.610000610351548,17.56999969482422,5.0,7.0,06-10,0.1300001144409156
04-27,6.115001678466797,-2.409999847412095,-1.4099998474120952,-6.784999847412109,5.37499618530272,11.450004577636719,-8.270004272460938,0.8499984741210938,-4.849998474121094,1.1399993896484375,-12.400001525878906,14.930000305175788,6.0,6.0,06-11,0.3112497329711932
04-28,5.930000305175781,-2.805000305175774,-1.5200004577636648,-7.965000152587905,4.844997406005859,10.630004882812472,-8.049995422363281,3.470001220703125,-4.3899993896484375,-0.5,-11.800003051757812,10.6500015258789,5.0,7.0,06-12,-0.12541611989339488
04-29,4.755001068115227,-3.725002288818345,-1.1350021362304616,-8.939998626708991,3.5900001525878906,11.079994201660156,-9.329994201660142,1.9599990844726562,-1.9499969482421875,-0.15999603271482954,-10.5,7.909999847412095,5.0,7.0,06-13,-0.5370829900105777
04-30,5.885000228881836,-1.6750030517578196,-1.6350021362304759,-7.819999694824226,4.2350006103515625,12.699996948242202,-8.539993286132827,-1.220001220703125,-2.1500015258789062,0.3000030517578125,-11.020004272460923,8.120002746582024,5.0,7.0,06-14,-0.2350001335144055
05-01,5.504997253417969,-1.8499984741211009,-3.115001678466804,-9.265003204345703,5.400001525878906,13.579994201660156,-8.25,-1.3899993896484375,-1.4700012207031108,0.6900024414062358,-6.8600006103515625,6.58000183105468,5.0,7.0,06-15,-0.03708394368489761
05-02,2.7900009155273438,-2.3050003051757884,-2.9550018310546946,-8.290000915527344,4.980003356933594,14.56999969482419,-9.860000610351562,0.20000457763671875,-2.940002441406264,1.5999984741210938,-4.1399993896484375,5.829998016357422,6.0,6.0,06-16,-0.043333371480310724
05-03,2.104999542236328,-1.5999984741211009,-2.6399993896484304,-7.505001068115234,4.674999237060547,14.769996643066406,-10.169998168945312,1.8100051879882812,-2.8300018310547017,2.239997863769517,-4.410003662109375,5.469997406005859,6.0,6.0,06-17,0.15958277384439867
05-04,0.9099998474121094,0.07500076293944602,-1.7049980163574148,-5.415000915527344,2.8500022888183594,14.779998779296875,-9.30999755859375,3.100006103515625,0.3300018310546875,2.8699951171875,-6.0699996948242045,7.859996795654297,8.0,4.0,06-18,0.8562504450480155
05-05,1.1199989318847656,2.6100006103515625,-0.7399978637695241,-4.064998626708984,3.645000457763672,13.139999389648438,-5.5200042724609375,1.1800003051757812,-3.839996337890611,0.29000091552734375,-5.769996643066392,6.430000305175781,7.0,5.0,06-19,0.7066672643025745
05-06,-2.1399993896484375,4.009998321533196,-2.915000915527351,-5.019996643066406,4.490001678466797,9.91000366210939,-6.060005187988281,1.5,-3.1700057983398295,2.730003356933608,-2.9399948120117045,6.6399993896484375,6.0,6.0,06-20,0.5862503051757848
05-07,-0.13499832153320312,4.61000061035157,-4.534999847412109,-4.409999847412109,-0.05000305175779829,8.75,-4.480003356933594,2.25,-3.620002746582017,3.19000244140625,-3.1299972534179688,4.169998168945305,5.0,7.0,06-21,0.21749973297119377
05-08,-2.3850021362304688,1.8650016784667898,-5.209999084472656,-5.524997711181641,-1.154998779296875,11.80999755859375,-4.69000244140625,4.5500030517578125,-3.840003967285142,4.1399993896484375,-5.379997253417969,1.4799995422363281,5.0,7.0,06-22,-0.3616666793823236
05-09,-1.9050025939941406,2.0600013732910085,-4.564998626708977,-6.079998016357415,-0.24500274658203125,13.520004272460923,-3.3400039672851562,6.2700042724609375,-4.519996643066406,1.6399993896484375,-5.589996337890611,2.4599990844726562,5.0,7.0,06-23,-0.024582544962564512
05-10,-3.124999999999993,-0.02000045776367898,-4.755001068115234,-6.784999847412095,-1.2949981689453125,14.340003967285156,-3.529998779296875,3.8699951171875,-7.4199981689453125,0.48000335693357954,-3.5500030517577983,2.579998016357422,4.0,8.0,06-24,-0.7674999237060535
05-11,-3.220001220703125,1.0499992370605398,-2.6750030517578196,-8.875,-1.6300048828125,13.770004272460938,-2.8199996948242188,3.279998779296875,-7.159996032714844,-0.8100051879882812,-1.1299972534179545,2.6199989318847656,4.0,8.0,06-25,-0.6333338419596354
05-12,-2.9650001525878906,-0.7700004577636648,-2.0900001525878906,-6.709999084472656,-3.125,9.379997253417969,-5.07000732421875,3.0999984741210938,-7.009994506835952,-0.1699981689452983,-2.940002441406236,-0.770000457763679,2.0,10.0,06-26,-1.5950005849202462
05-13,-1.5,-0.6200027465820312,-2.6399993896484446,-8.069999694824219,-1.7550048828125,10.849998474121094,-3.2600021362304688,5.849998474121094,-6.94000244140625,-1.8499984741210938,-3.4599990844726562,0.75,3.0,9.0,06-27,-1.0537509918212897
05-14,-2.020000457763672,-0.75,-3.2150001525878906,-8.540000915527344,-2.4099960327148438,12.1199951171875,-2.3900070190429688,0.3699951171875,-7.340003967285156,1.0,-1.25,1.3899993896484304,4.0,8.0,06-28,-1.086251576741537
05-15,0.18999862670898438,3.2749977111816406,-2.18499755859375,-6.739997863769531,-1.4199981689452983,13.27999877929689,-2.8199996948242188,-2.100006103515625,-6.730003356933594,3.6999969482421875,-1.2700042724609375,3.049999237060547,5.0,7.0,06-29,0.01916535695394117
05-16,-1.7450027465820312,1.0949974060058594,-1.1449966430664062,-6.609996795654297,-0.68499755859375,12.919998168945312,-3.7400054931640483,1.05999755859375,-4.810005187988281,2.4300003051757812,-2.0900039672851562,-3.680000305175774,4.0,8.0,06-30,-0.5833346048990867
05-17,-2.045001983642578,-1.4950027465820241,-1.2550010681152344,-5.804996490478516,-2.1200027465820312,13.539993286132827,-5.550003051757798,1.8700027465820312,-3.9300003051757955,-2.220001220703125,-0.9099960327148438,-2.789997100830078,2.0,10.0,07-01,-1.059167226155597
05-18,-1.56500244140625,-2.2349967956542898,-1.7600021362304759,-5.574996948242195,-1.9650039672851705,14.559997558593764,-4.249999999999986,3.029998779296875,-2.6700057983398295,-2.2900009155273438,-0.5199966430664062,-1.779998779296868,2.0,10.0,07-02,-0.5850006739298479
05-19,-2.049999237060547,-1.9300003051757741,-1.4449996948242259,-5.0449981689453125,-0.15000152587889204,14.25,-2.7099990844726705,3.3600006103515625,-3.809997558593764,-3.0199966430664205,-0.5900039672851562,0.0,2.0,10.0,07-03,-0.26166629791260004
05-20,-2.260002136230476,1.0400009155273509,-1.875,-5.0449981689453125,-0.15000152587889204,14.66000366210936,-2.9099960327148438,2.5200042724609375,-3.1100006103515625,-3.0199966430664205,-0.5900039672851562,-1.9900016784667898,3.0,9.0,07-04,-0.22749932607015033
05-21,-0.9150009155273438,-1.1099967956542898,0.15000152587889914,-5.629997253417962,1.8000030517578125,12.389999389648423,-3.9399948120117045,2.1500015258789062,-2.5900039672851562,-5.0499954223632955,-8.069999694824205,-1.6599998474121094,4.0,8.0,07-05,-1.039581934611002
05-22,-1.0750007629394531,0.8600006103515625,-0.5849990844726562,-3.220001220703125,3.475006103515639,12.870002746582017,-4.490005493164077,3.5100021362304688,-0.739997863769517,-1.3300018310547017,-5.350006103515625,-2.4199981689453196,4.0,8.0,07-06,0.12541675567626775
05-23,-2.519996643066392,0.48999786376953125,-0.5050010681152273,-3.404998779296875,3.2400054931640625,12.260002136230469,-3.4800033569335938,1.4900054931640625,-2.2299957275390767,-0.5500030517578125,-1.2900009155273438,-0.9199981689453054,4.0,8.0,07-07,0.21500110626220822
05-24,-3.3199977874755824,1.2449989318847656,-1.895000457763679,-2.950000762939453,3.674995422363267,12.019996643066406,-4.060005187988281,0.2700042724609375,-2.369995117187514,2.4499969482421875,0.0399932861328125,-1.029998779296868,6.0,6.0,07-08,0.3395822842915832
05-25,-4.344997406005852,2.545001983642571,-2.4650001525878906,-4.875,4.6399993896484375,11.0,-2.4300003051757812,-0.31999969482421875,-0.719993591308608,5.459999084472642,1.4599990844726562,-3.3299980163574148,5.0,7.0,07-09,0.5516675313313785
05-26,-3.7499980926513565,2.0300025939941264,-2.4800033569335938,-7.1100006103515625,4.319999694824219,11.25,-4.660003662109375,0.45999908447265625,-2.5900039672851562,8.139999389648438,3.0400009155273438,-4.0,6.0,6.0,07-10,0.38749933242797824
05-27,-3.2499980926513565,-1.3549995422363281,-2.299999237060554,-6.6850013732910085,5.5500030517578125,11.82999420166017,-4.510002136230469,0.04000091552734375,-1.1800003051757812,9.919998168945298,2.0400009155273438,-5.290000915527351,5.0,7.0,07-11,0.4008329709370934
05-28,-5.420000076293942,0.69000244140625,-3.6100006103515625,-7.755001068115234,5.575004577636719,11.369995117187528,-4.660003662109375,1.1800003051757812,0.0,10.760002136230469,3.5500030517578125,-4.20000076293946,6.0,6.0,07-12,0.6233334541320822
05-29,-5.285001754760746,2.3699989318847656,-5.0649986267089915,-6.490001678466804,4.720001220703125,9.889999389648452,-3.3899993896484375,1.5400009155273438,1.0099945068359233,8.450004577636719,4.230003356933594,-6.6300010681152415,7.0,5.0,07-13,0.4458333651224751
05-30,-7.1100006103515625,2.354999542236328,-5.125,-4.5550003051757955,4.790000915527358,9.159996032714858,-4.220001220703125,3.779998779296875,0.9499969482421875,4.900001525878892,6.700004577636719,-6.409999847412124,7.0,5.0,07-14,0.4345830281575509
05-31,-6.444999694824219,2.9899978637695384,-5.099998474121087,-3.710002899169922,7.224998474121094,8.270004272460952,-4.5500030517578125,2.4799957275390625,0.26000213623045454,6.850006103515611,8.959999084472656,-6.86000061035157,7.0,5.0,07-15,0.8641665776570632
06-01,-6.025001525878906,2.904998779296875,-4.625,-0.3099975585937571,6.480003356933594,10.310005187988281,-3.529998779296875,3.089996337890625,0.1699981689453125,5.790000915527344,7.950004577636719,-4.530002593994141,7.0,5.0,07-16,1.472917238871256
06-02,-4.864997863769524,-0.5550003051757812,-5.985000610351555,1.2649993896484375,5.894996643066406,8.060005187988281,-6.519996643066406,3.3499984741210938,2.129997253417983,7.290000915527344,5.8000030517578125,-7.3500022888183665,7.0,5.0,07-17,0.7095836003621437
06-03,-3.0449981689453054,-1.5450019836425781,-6.924999237060554,1.4199981689453196,6.404998779296875,10.439994812011719,-5.760002136230469,4.9199981689453125,2.670005798339858,5.94000244140625,4.0500030517578125,-7.9099998474121165,7.0,5.0,07-18,0.888333320617677
06-04,-3.364997863769524,1.6000022888183594,-3.93499755859375,2.4199981689453196,6.834999084472656,10.729995727539048,-4.129997253417969,2.8300018310546875,2.7000045776367188,5.650001525878906,0.910003662109375,-7.690002441406243,8.0,4.0,07-19,1.2129176457722988
06-05,-2.1300010681152273,0.5699996948242188,-3.770000457763679,2.414997100830071,8.654998779296875,9.199996948242188,-7.279998779296875,1.9800033569335938,2.500000000000014,7.0,3.160003662109375,-11.490001678466804,8.0,4.0,07-20,0.9008331298828125
06-06,-2.0550003051757884,0.4350013732910085,-2.5149993896484446,0.8899993896484375,7.595001220703125,6.2300033569335795,-8.610000610351562,0.7700042724609375,3.4799957275390767,7.44000244140625,0.9200057983398438,-14.950000762939453,8.0,4.0,07-21,-0.03083229064941584
06-07,-0.6999969482421875,1.5050010681152344,-2.120002746582017,0.625,7.160003662109389,6.529998779296861,-11.180000305175781,-3.30999755859375,6.159996032714858,5.650001525878906,0.8300018310546875,-14.40999984741211,7.0,5.0,07-22,-0.2716662089029924
06-08,-0.5550003051757812,-1.470001220703125,-2.56500244140625,2.1850013732910227,8.525001525878906,6.639999389648423,-11.779998779296875,-3.25,6.199996948242202,4.720001220703125,1.8400039672851562,-11.69000244140625,6.0,6.0,07-23,-0.10000006357828717
06-09,-1.625,-0.6949996948242259,-3.4850006103515554,3.6500015258789062,8.935005187988281,7.040000915527315,-13.0,-2.470001220703125,3.5800018310546875,4.339996337890611,2.0100021362304688,-9.280002593994155,6.0,6.0,07-24,-0.08333301544189926
06-10,-1.9249992370605469,-3.174999237060547,-1.0550003051757741,2.634998321533203,8.510002136230469,7.259994506835966,-14.32000732421875,-0.06999969482421875,3.0300064086914062,4.8499984741210795,2.3899993896484375,-5.44000244140625,6.0,6.0,07-25,0.22416591644287287
06-11,-2.8449974060058594,-3.3300018310546875,0.9300003051757812,1.7849998474121094,7.480003356933594,5.25,-14.560005187988281,-0.40999603271484375,3.4300003051757955,7.6100006103515625,1.1800003051757812,-0.9600028991699219,7.0,5.0,07-26,0.4633334477742525
06-12,-1.9050025939941335,-3.30999755859375,0.75,0.7600021362304759,7.220001220703125,4.319999694824247,-13.209999084472656,-2.6399993896484375,4.990005493164077,9.910003662109375,2.6500015258789062,-3.720001220703125,7.0,5.0,07-27,0.4845844904581753
06-13,-0.7799987792968679,-2.6149978637695312,0.9300003051757812,1.4950027465820384,5.370002746582031,2.1800003051757955,-14.05999755859375,-0.94000244140625,4.190002441406236,10.1300048828125,1.19000244140625,-3.1699981689453125,7.0,5.0,07-28,0.32666842142741004
06-14,-0.9749984741210938,-4.194999694824212,-0.4799995422363281,0.615001678466804,7.814994812011719,0.7900009155273438,-16.029998779296875,-3.2000045776367188,5.819999694824219,10.850006103515625,0.3000030517578125,-3.6499977111816335,6.0,6.0,07-29,-0.19499937693277816
06-15,-1.404998779296868,-4.900001525878899,0.5999984741210866,0.3899993896484375,6.2050018310546875,-0.6399993896484375,-12.370002746582031,-2.660003662109375,7.709999084472656,14.680000305175781,-1.1800003051757812,-4.939998626708984,5.0,7.0,07-30,0.12416617075602272
06-16,-1.4799995422363281,-4.915000915527337,1.2299995422363281,3.1399993896484304,5.69000244140625,0.20999908447264204,-12.340003967285156,-0.40000152587890625,7.4600067138671875,12.52999114990233,-1.5500030517578125,-6.099998474121094,6.0,6.0,07-31,0.28958257039387786
06-17,-1.1749992370605469,-4.75,0.5900001525878906,2.4149971008300852,5.385002136230469,1.239997863769517,-11.279998779296875,-0.9899978637695312,7.349998474121094,13.27999114990233,0.589996337890625,-3.979999542236328,7.0,5.0,08-01,0.7229156494140607
06-18,-0.5999984741210938,-4.819999694824219,0.5499992370605469,1.6399993896484304,5.2350006103515625,0.08999633789061079,-11.069999694824219,-1.4900054931640625,7.069999694824219,12.319999694824176,-2.4500045776367188,-4.430000305175781,6.0,6.0,08-02,0.1704155604044543
06-19,1.4900016784667969,-6.555000305175781,0.3600006103515696,2.25,4.950004577636719,-2.1700057983398438,-9.729995727539062,-4.4900054931640625,6.3899993896484375,8.489997863769531,-2.8000030517578125,-5.719997406005859,6.0,6.0,08-03,-0.6279169718424473
06-20,3.2749977111816335,-4.049999237060554,-0.845001220703125,3.7549972534179616,7.25,-8.540000915527358,-10.889999389648438,-3.3000030517578125,4.470001220703125,6.1399993896484375,-5.599998474121108,-5.569999694824219,5.0,7.0,08-04,-1.1587505340576214
06-21,4.584999084472649,-4.4550018310546875,-2.1049995422363352,6.984996795654297,10.835006713867188,-9.370002746582031,-11.639999389648438,-2.5400009155273438,5.1999969482421875,8.970001220703125,-11.300003051757827,-6.04999923706054,5.0,7.0,08-05,-0.9070838292439797
06-22,4.98499679565429,-1.7249984741210938,-1.6799964904785156,4.250000000000007,12.80999755859375,-5.600006103515611,-11.340003967285156,-1.2299957275390625,4.629997253417969,7.419998168945298,-8.099998474121108,-3.9599990844726562,5.0,7.0,08-06,0.038332621256509235
06-23,5.364997863769531,-1.9199981689453125,-1.0900001525878906,10.924999237060547,13.384994506835938,-8.78000640869142,-12.700004577636719,-2.1299972534179688,1.1100006103515625,5.5800018310546875,-11.559997558593764,-1.7099990844726562,5.0,7.0,08-07,-0.2937507629394555
06-24,5.349998474121094,-0.7949981689453125,-3.069999694824226,10.41999816894532,12.904998779296875,-6.379997253417969,-12.25,3.1800003051757812,3.059997558593764,7.069999694824219,-12.27999877929689,1.7999992370605469,7.0,5.0,08-08,0.7508331934611002
06-25,4.694999694824219,-3.6699981689453054,-2.2050018310546875,11.91999816894532,13.035003662109375,-9.379997253417969,-11.560005187988281,11.57000732421875,2.279998779296875,7.599998474121094,-12.489997863769531,0.020000457763671875,7.0,5.0,08-09,0.9845838546752942
06-26,5.3300018310546875,-3.079998016357429,-5.865001678466797,11.970001220703125,12.18499755859375,-8.779998779296875,-10.379997253417969,12.07000732421875,3.7600021362304688,3.089996337890625,-15.539993286132812,2.1300010681152344,7.0,5.0,08-10,0.5741682052612299
06-27,3.8850021362304688,-2.739997863769524,-4.7350006103515625,11.084999084472656,12.605003356933594,-9.77999877929686,-12.489997863769531,11.79000091552733,2.3499984741210938,-1.160003662109375,-14.55999755859375,-0.8400001525878764,5.0,7.0,08-11,-0.3824993769327782
06-28,4.619998931884766,-2.3600006103515625,-7.710002899169915,11.369998931884766,13.450004577636733,-9.080001831054688,-9.980003356933594,7.6699981689453125,1.3300018310546875,-0.7300033569335938,-12.800003051757812,0.8099975585937571,6.0,6.0,08-12,-0.28416792551676195
06-29,3.400001525878899,-1.5449981689453196,-8.055000305175774,9.650001525878906,11.764999389648423,-8.559997558593764,-8.949996948242188,5.9799957275390625,0.34999847412109375,-2.120002746582017,-13.719993591308594,-0.23000335693358664,5.0,7.0,08-13,-1.0029163360595714
06-30,3.135002136230476,-0.6100006103515696,-8.780002593994126,10.52499771118164,11.72499847412108,-10.169998168945327,-7.620002746582031,6.0,-1.399993896484375,0.3699951171875,-15.169998168945312,-1.5699996948242188,5.0,7.0,08-14,-1.1304168701171886
07-01,3.5750007629394602,-0.9650001525878906,-4.970001220703125,10.180000305175767,11.465003967285142,-10.200004577636705,-5.839996337890625,5.5,-3.8400039672851705,-0.9000015258789062,-14.569999694824219,-0.7700004577636719,4.0,8.0,08-15,-0.9445835749308286
07-02,4.979999542236328,-1.4899978637695312,-4.54499816894532,10.704998016357415,9.259994506835938,-9.8800048828125,-5.739997863769531,8.439994812011733,-4.380004882812514,0.6699981689453125,-12.540000915527344,-1.4300003051757812,5.0,7.0,08-16,-0.4958349863688163
07-03,6.469999313354496,-2.8400001525878906,-3.474998474121101,7.465000152587891,9.110000610351577,-10.400001525878906,-5.409996032714844,7.7900009155273295,-5.350006103515639,-6.9899978637695455,-12.180000305175781,-2.990001678466797,4.0,8.0,08-17,-1.566666762034101
07-05,4.604997634887699,-2.3449974060058594,-4.619998931884773,8.90999984741211,8.095001220703125,-9.640007019042969,-5.079994201660156,7.459999084472656,-5.3199996948242045,-7.779998779296889,-13.629997253417969,-3.8699989318847656,4.0,8.0,08-19,-1.934582869211833
07-06,4.85000038146973,-3.25,-4.134998321533203,10.174999237060554,7.8650054931640625,-10.300003051757812,-4.67999267578125,7.459999084472656,-3.649993896484375,-8.439994812011719,-14.230003356933594,-4.060001373291016,4.0,8.0,08-20,-1.8662486076354972
07-07,6.619998931884766,-5.225002288818352,-4.775001525878899,9.85000228881836,6.465003967285156,-8.700004577636719,-9.650001525878906,8.610000610351562,-5.060005187988281,-11.360000610351548,-12.340003967285156,-2.5,4.0,8.0,08-21,-2.3387511571248347
07-08,6.02499961853027,-6.435001373291016,-7.145000457763679,9.040000915527337,7.430000305175781,-8.700004577636719,-7.4199981689453125,9.19000244140625,-5.530006408691406,-11.360000610351548,-13.459999084472656,-1.8299980163574148,4.0,8.0,08-22,-2.516250451405843
07-09,5.600000381469723,-7.025001525878906,-5.720001220703118,8.63999938964843,4.80999755859375,-9.27999877929689,-8.230003356933594,8.860000610351577,-5.930000305175781,-10.639999389648438,-11.930000305175781,1.2700004577636719,5.0,7.0,08-23,-2.4645838737487797
07-10,5.529998779296882,-7.060001373291016,-6.33000183105468,9.78000259399414,4.784996032714844,-7.680000305175781,-7.80999755859375,8.269996643066406,-5.3800048828125,-9.650001525878906,-13.44000244140625,-1.3000030517578054,4.0,8.0,08-24,-2.523751576741535
07-11,5.979999542236328,-6.904998779296875,-5.020000457763665,8.51500320434571,4.144996643066406,-6.4599990844726705,-9.349998474121094,8.30999755859375,-5.519996643066392,-7.340003967285156,-13.6199951171875,-1.5600013732910156,4.0,8.0,08-25,-2.4020830790201813
07-12,6.0,-8.46500015258789,-4.4850006103515625,8.930000305175788,4.844993591308594,-9.42000579833983,-14.949996948242188,5.590003967285156,-5.459999084472656,-6.819999694824219,-15.389999389648438,-0.6199989318847656,4.0,8.0,08-26,-3.353750228881834
07-13,5.290000915527344,-9.674999237060554,-4.510002136230476,7.040000915527337,6.540000915527344,-7.75,-15.849998474121094,6.890007019042969,-6.699996948242202,-9.55999755859375,-17.0,-0.5699996948242259,4.0,8.0,08-27,-3.8212486902872755
07-14,4.655002593994141,-9.59000015258789,-3.395000457763672,7.835002899169915,6.785003662109375,-6.2900009155273295,-14.240005493164062,6.100006103515625,-7.250000000000014,-7.150001525878906,-16.5,-4.020000457763679,4.0,8.0,08-28,-3.588332811991375
07-15,3.749999999999993,-9.365001678466804,-6.465000152587905,7.9650001525878835,6.375,-4.830001831054673,-12.260002136230469,6.150001525878906,-7.3899993896484375,-5.959999084472656,-17.089996337890625,-4.200000762939453,4.0,8.0,08-29,-3.609999974568687
07-16,2.365001678466797,-7.829998016357422,-5.834999084472656,7.790000915527337,7.450004577636719,-8.489997863769531,-11.410003662109375,6.930000305175781,-8.5,-6.6399993896484375,-14.470001220703125,-4.560001373291016,4.0,8.0,08-30,-3.5999994277954106
07-17,1.6850013732910227,-6.305000305175774,-4.984996795654304,6.405002593994126,6.81500244140625,-6.940002441406236,-4.709999084472656,7.8899993896484375,-8.75,-5.540000915527344,-12.660003662109375,-2.2099990844726562,4.0,8.0,08-31,-2.442083040873209
07-18,0.47499847412109375,-7.225002288818345,-4.659999847412109,5.675003051757805,6.230003356933594,-7.430000305175781,-0.6200027465820312,6.819999694824219,-8.02999877929689,-4.8000030517578125,-12.900001525878906,-1.4900016784667969,4.0,8.0,09-01,-2.3295838038126635
07-19,-0.15000152587890625,-7.569999694824212,-5.720001220703125,4.900001525878899,5.3950042724609375,-7.760002136230469,0.37999725341796875,6.4499969482421875,-10.639999389648452,-3.6100006103515625,-14.510002136230469,-2.3600006103515625,4.0,8.0,09-02,-2.9329172770182304
07-20,-0.8400001525878906,-7.104999542236321,-5.61000061035157,4.409999847412102,3.7999954223632812,-6.270004272460952,-1.910003662109375,6.379997253417969,-9.990005493164062,-3.5699996948242188,-12.729995727539062,-2.490001678466797,3.0,9.0,09-03,-2.993751525878908
07-21,-1.3349990844726562,-6.239997863769524,-6.48500061035157,4.345001220703125,3.779998779296875,-8.44000244140625,0.37999725341796875,7.0,-9.240005493164062,-3.9499969482421875,-13.019996643066406,-6.719997406005859,4.0,8.0,09-04,-3.3270832697550454
07-22,-0.7400016784667969,-6.629997253417962,-6.990001678466797,5.550003051757805,4.469993591308594,-8.810005187988281,1.6200027465820312,7.5099945068359375,-8.319999694824233,-4.629997253417969,-13.080001831054688,-6.489997863769524,4.0,8.0,09-05,-3.0450007120768237
07-23,-1.9449996948242259,-6.194999694824212,-7.395000457763672,6.060001373291016,5.944999694824219,-8.209999084472685,1.3899993896484375,9.800003051757812,-7.659996032714858,-5.180000305175781,-12.019996643066406,-5.149997711181641,4.0,8.0,09-06,-2.546665509541833
07-24,-2.385002136230476,-7.11500167846679,-8.930000305175781,6.520000457763672,8.229995727539062,-8.459999084472685,2.5499954223632812,10.160003662109375,-7.439994812011733,-7.730003356933608,-12.110000610351562,-5.340000152587891,4.0,8.0,09-07,-2.6708339055379278
07-25,-2.270000457763672,-6.694999694824219,-9.625,6.42499923706054,6.5800018310546875,-10.209999084472656,4.2599945068359375,16.080001831054688,-7.020004272460952,-10.490005493164062,-9.900001525878906,-5.4300003051757955,4.0,8.0,09-08,-2.3579177856445344
07-26,-1.9150009155273438,-7.505001068115234,-7.950000762939453,5.560001373291016,7.844993591308594,-8.209999084472656,3.6999969482421875,13.870002746582031,-6.900001525878906,-10.970001220703125,-8.69000244140625,-5.420001983642585,4.0,8.0,09-09,-2.215417861938477
07-27,-0.3300018310546875,-5.145000457763679,-6.700000762939453,5.70000076293946,8.504997253417969,-11.979995727539062,4.470001220703125,14.540000915527344,-8.1300048828125,-13.649993896484375,-7.4799957275390625,-7.729999542236335,4.0,8.0,09-10,-2.327499389648438
07-28,0.5,-5.145000457763679,-6.380001068115234,6.659999847412095,9.469993591308594,-12.080001831054673,0.0800018310546875,14.419998168945312,-6.819999694824219,-15.42999267578125,-3.9199981689453125,-5.409999847412109,5.0,7.0,09-11,-2.004583358764649
07-29,1.770000457763679,-5.155002593994141,-6.375,6.420001983642571,9.394996643066406,-12.229995727539034,-0.80999755859375,13.730003356933594,-8.360000610351562,-15.579994201660156,-3.8199996948242188,-6.6399993896484375,4.0,8.0,09-12,-2.304582277933754
07-30,0.770000457763679,-4.064998626708984,-8.150001525878913,6.4350013732910085,11.524993896484375,-11.619995117187472,-1.6100006103515625,13.950004577636719,-7.209999084472656,-13.67999267578125,-5.029998779296875,-4.720001220703125,4.0,8.0,09-13,-1.950415611267088
07-31,1.3950004577636719,-5.1550025939941335,-7.7550010681152415,7.48500061035157,10.829994201660156,-7.430000305175753,0.8699951171875,14.280006408691406,-6.6699981689453125,-11.999999999999986,-4.819999694824219,-8.849998474121094,5.0,7.0,09-14,-1.4850002924601196
08-01,-0.3500022888183594,-5.110000610351555,-7.435001373291023,6.265003204345703,7.5399932861328125,-4.9800033569335795,0.7099990844726562,11.700004577636719,-3.3600006103515625,-8.629997253417983,-0.04000091552734375,-7.319999694824226,4.0,8.0,09-15,-0.9175004959106451
08-02,0.21999740600585938,-5.1550025939941335,-5.729999542236328,8.430000305175774,7.480003356933594,-10.489997863769545,-0.01000213623046875,8.55999755859375,-1.220001220703125,-8.989997863769545,-2.779998779296875,-7.20000076293946,4.0,8.0,09-16,-1.407083511352542
08-03,1.6049995422363281,-5.05999755859375,-5.115001678466797,4.215000152587891,6.1300048828125,-9.89999389648439,0.80999755859375,6.079994201660156,2.1999969482421875,-5.7900009155273295,0.3899993896484375,-7.779998779296882,7.0,5.0,09-17,-1.0179166793823249
08-04,2.890003204345703,-5.709999084472656,-2.1899986267089773,5.94000244140625,5.810005187988281,-6.589996337890639,3.2000045776367188,4.209999084472656,1.3300018310546733,-6.0800018310546875,6.6399993896484375,-7.599998474121094,7.0,5.0,09-18,0.1541684468587222
08-05,2.6050033569335938,-5.430000305175788,-2.759998321533203,5.33000183105468,6.795005798339844,-3.4399948120117188,3.850006103515625,0.7899932861328267,3.5500030517578125,-6.3600006103515625,2.220001220703125,-9.889999389648438,7.0,5.0,09-19,-0.2283315658569336
08-06,2.5050010681152344,-4.130001068115227,0.7800025939941406,5.0699996948242045,9.284996032714844,-1.4499969482422017,2.2600021362304688,0.30999755859375,3.380004882812486,-4.4500045776367045,3.0400009155273438,-10.029998779296875,8.0,4.0,09-20,0.5475002924601219
08-07,3.9199981689453125,-5.415000915527351,-0.4199981689453196,2.4150009155273366,7.784996032714844,-0.8699951171875284,5.900001525878906,-0.6100006103515625,3.459999084472642,-4.260002136230469,3.7699966430664062,-7.6200027465820455,6.0,6.0,09-21,0.671249389648431
08-08,2.8300018310546875,-6.104999542236335,-0.7399978637695312,2.8349990844726562,6.6049957275390625,-2.7999954223632812,-0.0099945068359375,-0.26000213623046875,3.029998779296875,-2.5999984741210938,0.9599990844726562,-9.75,5.0,7.0,09-22,-0.5004161198933925
08-09,2.5400009155273438,-5.1599998474121165,-3.7150001525878906,2.079998016357422,5.944999694824219,-3.930000305175753,0.25,3.1399993896484517,3.8300018310546875,-2.1399993896484517,2.2399978637695312,-11.64999771118164,7.0,5.0,09-23,-0.5474999745686832
08-10,3.9150009155273438,-5.1699981689453125,-1.779998779296882,1.7800025939941264,5.055000305175781,-6.560005187988281,-1.0499954223632812,4.099998474121094,5.05999755859375,-3.55999755859375,3.0800018310546875,-12.009998321533203,6.0,6.0,09-24,-0.594999313354494
08-11,4.224998474121101,-3.395000457763672,-4.854999542236328,2.3249969482421946,5.0500030517578125,-7.460006713867173,-4.260002136230469,3.2399978637695312,5.3600006103515625,-2.0400009155273438,2.2099990844726562,-13.039997100830085,6.0,6.0,09-25,-1.0533342361450178
08-12,4.009998321533196,-2.5,-8.700000762939453,1.954998016357429,6.665000915527344,-4.550003051757798,-6.8899993896484375,1.4100036621093608,6.560005187988267,2.489997863769517,0.6399993896484375,-12.709999084472663,7.0,5.0,09-26,-0.9683332443237335
08-13,3.3199996948242188,-2.25,-11.28499984741211,1.559997558593757,6.569999694824219,-4.209999084472656,-6.6399993896484375,-0.8000030517577983,8.300003051757812,4.1399993896484375,-1.75,-11.039997100830085,5.0,7.0,09-27,-1.1737499237060536
08-14,2.680000305175774,-0.9899978637695312,-9.805000305175781,0.125,7.4900054931640625,-1.7900009155273438,-6.6699981689453125,-1.2900009155273295,8.880004882812514,2.2399978637695455,1.75,-11.319999694824226,6.0,6.0,09-28,-0.724999109903969
08-15,3.5500030517578196,-1.4199981689453125,-8.84000015258789,0.3899993896484375,7.3950042724609375,-5.7299957275390625,-7.220001220703125,-1.9900054931640483,10.300003051757812,9.869995117187528,1.8299942016601562,-9.09000015258789,6.0,6.0,09-29,-0.07958348592121982
08-16,4.145000457763665,-1.154998779296875,-10.145000457763672,-0.19499969482422586,8.299995422363281,-3.5500030517578267,-10.580001831054688,3.6999969482421733,12.339996337890625,9.39999389648439,-0.8300018310546875,-9.100002288818366,5.0,7.0,09-30,0.19416459401448272
08-17,4.900001525878906,-0.6700019836425781,-9.854999542236328,1.0049972534179616,9.019996643066406,-3.559997558593736,-9.8800048828125,3.7399978637695312,13.94000244140625,12.230003356933594,-2.8299942016601562,-10.350002288818366,6.0,6.0,10-01,0.6408332188924154
08-18,5.5900001525878835,0.2350006103515625,-6.669998168945305,1.2400016784667898,8.294998168945312,-6.410003662109375,-7.6100006103515625,2.2299957275390625,12.730003356933594,12.800003051757812,-3.589996337890625,-10.40999984741211,7.0,5.0,10-02,0.7025003433227534
08-19,4.845001220703118,1.1500015258789062,-6.895000457763672,2.3100013732910227,9.729995727539062,-10.180000305175781,-4.269996643066406,3.2900009155273153,13.049995422363267,14.720008850097656,-6.2299957275390625,-9.670001983642578,7.0,5.0,10-03,0.9875008265177373
08-20,4.975002288818345,0.7750015258789062,-7.6699981689453125,2.7849998474121094,8.870002746582031,-10.430000305175781,-3.9300003051757812,5.540000915527344,13.489997863769531,15.230003356933594,-6.8899993896484375,-8.15999984741211,7.0,5.0,10-04,1.2154175440470365
08-21,2.6300010681152344,2.2199974060058594,-8.969997406005852,1.1550025939941406,10.260002136230469,-10.340003967285142,-1.2700042724609375,4.94000244140625,12.80999755859375,14.890007019042983,-7.4199981689453125,-8.529998779296882,7.0,5.0,10-05,1.03125063578288
08-22,2.4650001525878835,1.9949989318847656,-6.344997406005859,1.0849990844726562,8.980003356933594,-9.209999084472642,7.799995422363281,3.970001220703125,12.090003967285156,13.060005187988281,-5.709999084472656,-9.520000457763672,8.0,4.0,10-06,1.7216676076253261
08-23,3.3400001525878835,2.799999237060547,-6.084999084472656,2.0349998474121165,7.590003967285156,-11.370002746582017,11.389999389648438,6.169998168945298,11.220001220703125,13.980003356933594,-0.910003662109375,-7.870002746582031,8.0,4.0,10-07,2.69083309173584
08-24,4.375,4.954998016357422,-6.55999755859375,1.2549972534179688,8.739997863769531,-12.85000610351561,13.579994201660156,6.649993896484361,11.709999084472656,12.769996643066406,-1.3300018310546875,-8.34000015258789,8.0,4.0,10-08,2.912914276123047
08-25,5.149997711181641,5.529998779296875,-5.729999542236321,0.37000274658203125,7.8600006103515625,-14.330001831054673,15.409996032714844,7.1299972534179545,12.04000091552733,12.400001525878878,-2.4899978637695312,-7.670001983642571,8.0,4.0,10-09,2.972499529520668
08-26,5.364997863769531,5.9499969482421875,-5.654998779296875,0.3250007629394531,7.1750030517578125,-14.840003967285142,12.779998779296875,6.959999084472656,12.79000091552733,11.18000030517581,-3.519996643066392,-6.549999237060547,8.0,4.0,10-10,2.6633332570393917
08-27,5.875,4.579998016357429,-8.325000762939446,0.9400024414062429,7.6150054931640625,-14.050003051757798,7.9799957275390625,5.300003051757798,13.099998474121094,13.700004577636719,-3.070007324218764,-8.240001678466797,8.0,4.0,10-11,2.1170829137166334
08-28,8.220001220703132,5.950000762939446,-6.069999694824212,0.3400001525878906,6.029998779296875,-13.830001831054673,9.730003356933594,6.150001525878906,13.379997253417969,8.5,-3.940002441406264,-8.540000915527344,8.0,4.0,10-12,2.15999984741211
08-29,8.799999237060547,6.0,-5.70500183105468,0.7249984741211009,7.215003967285156,-17.9199981689453,8.990005493164062,4.910003662109361,13.779998779296875,7.69000244140625,-5.890007019042983,-7.779998779296875,8.0,4.0,10-13,1.734583854675293
08-30,9.290000915527344,5.675003051757805,-5.625,1.8050003051757812,8.904998779296875,-17.87999725341797,7.720001220703125,6.2300033569335795,13.260002136230469,7.55999755859375,-5.279998779296861,-7.130001068115234,8.0,4.0,10-14,2.044167518615722
08-31,8.814998626708977,5.939998626708984,-5.819999694824219,0.7649993896484446,10.280006408691406,-23.949996948242188,6.970001220703125,7.810005187988267,11.94000244140625,3.3899993896484517,-4.879997253417969,-6.700000762939453,8.0,4.0,10-15,1.2133347193400066
09-01,10.409999847412116,4.404998779296868,-5.2350006103515625,-0.2700004577636719,11.31500244140625,-23.87000274658203,9.760002136230469,7.749999999999986,11.0,4.5,-5.939994812011719,-7.5900001525878835,7.0,5.0,10-16,1.3529170354207352
09-02,10.760002136230476,4.630001068115227,-4.064998626708984,0.4650001525878906,10.770004272460938,-19.540000915527344,8.069999694824219,6.589996337890625,10.750000000000014,4.8899993896484375,-4.879997253417969,-6.08000183105468,8.0,4.0,10-17,1.8633337020874041
09-03,10.840000152587898,4.3400001525878835,-1.4899978637695312,2.2099990844726634,11.930000305175781,-19.569999694824205,8.330001831054688,-0.34999847412109375,11.339996337890625,4.580001831054702,-5.9499969482421875,-5.5100021362304545,7.0,5.0,10-18,1.7250003814697308
09-04,11.334999084472656,5.665000915527344,-2.7749977111816406,2.9599990844726634,10.879997253417969,-16.44000244140625,10.25,-1.0500030517578125,11.57999420166017,2.4599990844726562,-7.3899993896484375,-5.05999755859375,7.0,5.0,10-19,1.8679157892862974
09-05,9.584999084472663,6.310001373291016,-0.470001220703125,3.349998474121101,10.430000305175781,-13.910003662109375,9.839996337890625,-1.700004577636733,10.790000915527344,2.25,-7.4199981689453125,-3.410003662109375,7.0,5.0,10-20,2.137082099914551
09-06,10.354999542236328,5.385002136230469,0.4550018310546875,1.4149971008300852,9.834999084472656,-10.19000244140625,7.149993896484375,0.2299957275390767,8.810005187988281,4.6399993896484375,-9.670005798339858,-4.64000320434571,9.0,3.0,10-21,1.9812485376993816
09-07,10.385002136230469,5.705001831054695,-1.3999977111816406,0.9350013732910227,10.069999694824219,-8.650001525878892,7.209999084472656,0.7399978637695455,8.060005187988281,4.080001831054673,-15.55999755859375,-4.550003051757805,8.0,4.0,10-22,1.418750762939456
09-08,9.650001525878913,4.92500305175782,-0.6899986267089844,0.33499908447265625,10.335006713867188,-5.3800048828125,6.1199951171875,-0.37000274658201704,8.980003356933608,3.3499984741210938,-12.33999633789061,-5.710002899169915,7.0,5.0,10-23,1.6004168192545627
09-09,9.25,5.375000000000007,1.0099983215332031,-0.14500045776367188,10.750000000000014,-9.239997863769545,6.849998474121094,2.2600021362304688,8.909996032714844,1.9300003051757812,-10.430000305175781,-6.74000167846679,8.0,4.0,10-24,1.6483329137166354
09-10,8.060001373291023,3.3000030517578054,2.2550010681152415,-1.1199989318847656,7.470001220703125,-9.940002441406264,5.720001220703125,0.8999938964843608,9.040000915527344,-3.1999969482421733,-8.159996032714844,-2.8800010681152273,7.0,5.0,10-25,0.9537506103515625
09-11,7.75,2.5099983215332102,2.4850006103515625,-0.8650016784667969,5.6450042724609375,-10.989997863769545,8.650001525878906,0.6399993896484517,8.550003051757812,-10.080001831054688,-9.089996337890625,-2.1199989318847656,7.0,5.0,10-26,0.257084210713705
09-12,6.035003662109375,2.5849990844726562,0.7049980163574219,-1.1400032043457031,5.224998474121094,-7.9199981689453125,9.0,-0.31000518798828125,7.680000305175781,-10.800003051757798,-7.739997863769531,-1.6599998474121094,6.0,6.0,10-27,0.13833268483479935
09-13,4.885002136230469,1.7299995422363281,0.33499908447265625,-2.240001678466797,7.4949951171875,-9.810005187988281,6.959999084472656,1.7399978637695312,5.0500030517578125,-10.480003356933608,-7.4199981689453125,-4.239997863769531,7.0,5.0,10-28,-0.49958419799804804
09-14,4.840000152587891,1.7800025939941335,-0.16500091552734375,-3.460002899169929,8.819999694824219,-13.480003356933594,6.269996643066406,3.69000244140625,4.370002746582031,-10.699996948242173,-13.159996032714844,-4.589996337890618,6.0,6.0,10-29,-1.315416018168131
09-15,2.204998016357422,2.0900001525878835,-1.4900016784667969,-2.8500022888183594,8.30999755859375,-10.410003662109375,7.540000915527344,1.1900024414062358,3.6999969482421875,-10.98000335693358,-14.589996337890625,-6.080001831054695,6.0,6.0,10-30,-1.7804177602132174
09-16,0.5199966430664062,2.3800010681152273,1.339996337890625,-1.9900016784667969,9.639999389648438,-12.09000396728517,4.849998474121094,0.769996643066392,5.419998168945327,-15.5,-13.830001831054688,-8.350002288818366,7.0,5.0,10-31,-2.2366685867309593
09-17,0.8499984741210938,2.915000915527351,3.7099990844726634,-1.1550025939941406,6.279998779296875,-12.060005187988281,5.129997253417969,0.7499999999999858,6.479995727539077,-12.02999877929686,-11.599998474121094,-8.680000305175781,7.0,5.0,11-01,-1.6175012588500952
09-18,1.9899978637695312,3.9949989318847656,0.8349990844726634,0.30500030517579546,4.2700042724609375,-11.85000610351564,9.259994506835938,0.3699951171875,6.819999694824247,-14.110000610351577,-11.699996948242188,-6.739997863769531,8.0,4.0,11-02,-1.379584312438963
09-19,0.19000244140625,4.1699981689453125,-0.94000244140625,1.4599990844726634,4.8000030517578125,-12.15000152587892,9.330001831054688,1.1100006103515625,9.16000366210939,-14.830001831054688,-11.989997863769531,-4.569999694824212,7.0,5.0,11-03,-1.1883328755696603
09-20,0.345001220703125,5.004997253417976,4.459999084472656,1.4699974060058736,4.7649993896484375,-6.689994812011719,9.550003051757812,0.5400009155273295,8.110000610351562,-13.870002746582031,-11.69000244140625,-3.6599998474121094,8.0,4.0,11-04,-0.13875007629394473
09-21,0.8600006103515625,-0.4900016784667969,6.305000305175781,1.4650001525878835,5.05999755859375,-8.419998168945298,11.930000305175781,-2.5799942016601705,8.400001525878906,-12.569999694824219,-8.979995727539062,-3.7900009155273438,6.0,6.0,11-05,-0.23416582743326883
09-22,0.6350021362304688,-0.8600006103515625,9.645000457763672,0.9949989318847656,7.3000030517578125,-11.459999084472642,11.25,-1.6699981689453267,8.399993896484403,-21.639999389648423,-6.439994812011719,-2.4099998474121094,6.0,6.0,11-06,-0.5212494532267217
09-23,1.5450019836425781,-0.5149993896484375,13.154998779296875,1.799999237060554,5.43499755859375,-4.739997863769531,13.430000305175781,2.3300018310546875,8.209999084472656,-17.639999389648423,-6.1199951171875,-0.3400001525878835,7.0,5.0,11-07,1.3791672388712588
09-24,2.625,-1.9099998474121094,12.5,4.385002136230469,2.2750015258789062,-6.040000915527344,13.209999084472656,2.5400009155273295,10.669998168945312,-16.65999603271483,-7.1399993896484375,-0.6100006103515625,7.0,5.0,11-08,1.320417086283366
09-25,4.544998168945305,-1.3199996948242188,12.244998931884766,3.7900009155273438,2.6299972534179688,-4.260002136230469,13.680000305175781,4.1699981689453125,9.799995422363281,-16.48999786376953,-5.349998474121094,-1.8500022888183594,7.0,5.0,11-09,1.7991657257080071
09-26,5.11000061035157,-0.8950004577636719,12.615001678466797,4.700000762939453,2.2750015258789062,-2.9099960327148295,15.839996337890625,4.099998474121094,7.459999084472642,-16.159996032714858,-3.6699981689453125,-2.8599967956542827,7.0,5.0,11-10,2.133750915527344
09-27,6.135002136230476,0.36999893188477273,9.810001373291016,3.4000015258789062,0.4250030517578125,-2.319999694824247,15.94000244140625,4.870002746582031,7.010002136230469,-17.849998474121094,-0.2400054931640625,2.8700027465820384,9.0,3.0,11-11,2.535001118977864
09-28,5.525001525878913,1.0499992370605398,11.970001220703125,1.859996795654304,0.8400039672851562,-3.3700027465820455,17.150001525878906,-0.529998779296875,7.510002136230469,-22.720001220703125,0.4799957275390625,4.75,9.0,3.0,11-12,2.0429166158040357
09-29,4.305000305175781,0.029998779296867895,12.22500228881836,0.16499710083007102,1.0849990844726562,-3.1200027465820455,13.19000244140625,-1.620002746582017,8.040000915527358,-23.98000335693358,-0.40000152587890625,5.720001220703132,8.0,4.0,11-13,1.3033326466878272
09-30,3.3699989318847727,0.45499801635741477,14.514999389648438,0.28499984741209516,-1.089996337890625,-1.459999084472642,10.519996643066406,-4.080001831054702,7.400001525878906,-28.240005493164062,-0.9300003051757812,5.970001220703125,7.0,5.0,11-14,0.5595827102661121
10-01,4.599998474121094,-1.029998779296875,17.799999237060533,0.5449981689453054,-1.3449935913085938,0.7099990844726705,9.730003356933594,-4.6999969482421875,7.279998779296875,-30.970008850097656,1.029998779296875,7.049999237060554,8.0,4.0,11-15,0.8916664123535156
10-02,4.049999237060554,-1.8349990844726634,17.67999649047851,-0.8899993896484375,-1.4499969482421875,0.5,4.6300048828125,-3.4300003051757812,5.290000915527344,-31.93000030517578,2.80999755859375,5.680000305175781,7.0,5.0,11-16,0.09208361307779889
10-03,2.9949989318847727,-1.6450004577636719,16.974998474121087,1.1399993896484375,-1.1699981689453125,-0.720001220703125,1.5999984741210938,-1.5400009155273438,4.8600006103515625,-32.31000518798828,1.7700042724609375,6.209999084472656,7.0,5.0,11-17,-0.15291722615559897
10-04,4.00999832153321,-2.3349990844726634,13.514999389648445,0.970001220703125,-2.4599990844726562,3.07000732421875,4.1399993896484375,0.0800018310546875,5.029998779296875,-32.159996032714844,1.4300003051757812,8.889999389648438,9.0,3.0,11-18,0.34833431243896545
10-05,3.7350006103515696,-3.5800018310546875,11.944999694824226,3.125,-0.7249984741210938,1.2600021362304688,2.3300018310546875,-2.1599960327148295,4.809997558593764,-29.46000671386716,3.720001220703125,8.889999389648438,8.0,4.0,11-19,0.3241666158040424
10-06,2.079998016357429,-4.174999237060547,11.07500076293946,3.424999237060547,-2.154998779296875,2.5800018310546875,2.3100051879882812,-1.9199981689453125,5.2399978637695455,-24.630004882812514,1.5,9.359996795654297,8.0,4.0,11-20,0.39083321889241657
10-07,2.0149993896484446,-4.194999694824226,11.05999755859375,4.395000457763672,-2.470001220703125,4.720001220703125,1.3800048828125,-4.100006103515611,5.1399993896484375,-24.12000274658206,0.6399993896484375,8.639999389648438,8.0,4.0,11-21,0.25874932607014856
10-08,-0.4750022888183594,-3.674999237060547,9.214996337890625,4.395000457763672,-2.2700042724609375,3.7700042724609233,-1.8899993896484375,-4.1399993896484375,4.940002441406236,-24.12000274658206,3.329994201660142,7.680000305175781,6.0,6.0,11-22,-0.2700007756551166
10-09,-1.3400001525878906,-3.299999237060554,8.29999923706054,3.174999237060554,-2.3000030517578125,6.370002746582031,-4.650001525878906,-1.6200027465820312,4.940002441406236,-29.990005493164062,3.470001220703139,7.789997100830078,6.0,6.0,11-23,-0.7629175186157232
10-10,-2.0550003051757812,-3.529998779296882,8.29999923706054,3.950000762939453,-3.970001220703125,9.610000610351548,-3.4000015258789062,-1.6200027465820312,4.8800048828125,-24.110000610351562,3.149993896484361,7.1399993896484375,6.0,6.0,11-24,-0.1379172007242874
10-11,-1.2000007629394531,-3.529998779296882,7.420001983642578,3.7849998474121094,-4.840003967285156,17.97999572753905,-3.4599990844726562,-0.780006408691392,4.730003356933594,-19.260002136230483,4.069999694824219,7.1399993896484375,6.0,6.0,11-25,1.0045824050903303
10-12,-1.2000007629394531,-5.105003356933594,7.015003204345703,4.680000305175781,-5.4550018310546875,15.799995422363295,-3.4599990844726562,-1.030006408691392,5.010002136230469,-16.18000030517578,4.799995422363281,7.1399993896484375,6.0,6.0,11-26,1.001248677571617
10-13,-0.539997100830071,-5.025001525878906,7.380001068115234,4.369998931884773,-5.93499755859375,15.799995422363295,-0.1399993896484375,-0.23000335693359375,4.9699935913085795,-21.870002746582017,5.329994201660156,6.709999084472656,6.0,6.0,11-27,0.9016650517781599
10-14,-1.4449996948242259,-5.1550025939941335,3.8149986267089844,3.200000762939453,-5.93499755859375,12.900001525878892,-0.6399993896484375,2.5199966430664062,4.450004577636719,-20.029998779296875,5.329994201660156,7.729999542236321,7.0,5.0,11-28,0.5616664886474592
10-15,-2.2949981689453125,-5.119998931884766,4.729999542236335,2.4150009155273438,-5.385002136230469,8.569999694824205,-2.0,2.2000045776367188,2.6100006103515625,-20.620002746582017,2.660003662109375,7.269996643066406,7.0,5.0,11-29,-0.41374969482421814
10-16,-1.549999237060554,-6.2050018310546875,7.089996337890625,1.3050003051757741,-6.5449981689453125,5.470001220703111,-3.970001220703125,-0.30999755859375,2.6299972534179688,-18.490005493164077,3.7300033569335938,7.930000305175781,6.0,6.0,11-30,-0.7429170608520543
10-17,-3.55999755859375,-6.055000305175781,8.40999984741211,0.5550003051757741,-6.095001220703125,2.8499984741210938,-2.7900009155273438,-1.3399963378906392,3.0500030517577983,-16.37000274658203,5.140007019042983,9.159999847412116,6.0,6.0,12-01,-0.5870825449625663
10-18,-3.930000305175774,-6.19000244140625,8.86000061035157,0.7999992370605469,-8.680000305175781,-6.040000915527358,-1.3799972534179688,9.389999389648452,3.839996337890625,-14.780006408691392,7.909996032714844,9.159999847412116,6.0,6.0,12-02,-0.08666801452636423
10-19,-3.029998779296875,-3.9250030517578196,7.934997558593757,2.2849998474121094,-9.660003662109375,-5.520004272460952,-0.7599945068359375,7.459999084472642,4.739997863769517,-12.199996948242188,3.239997863769517,9.159999847412116,6.0,6.0,12-03,-0.022917429606123935
10-20,-3.660003662109375,-4.2450027465820455,8.20000076293946,2.7550010681152415,-9.660003662109375,-2.4599990844726847,-4.010002136230469,7.609992980957031,5.480003356933594,-12.940002441406236,3.1299972534179545,9.069999694824212,6.0,6.0,12-04,-0.06083488464355765
10-21,-2.9250030517578196,-3.585002899169922,5.954998016357415,2.5649986267089915,-9.420005798339844,-4.229995727539077,-2.9199981689453125,10.870002746582045,5.94000244140625,-12.940002441406236,1.1199951171875,10.229999542236321,6.0,6.0,12-05,0.05499903361002604
10-22,-2.1800003051757812,-1.7249984741211009,5.739997863769538,2.5349998474121094,-9.009994506835952,-0.26999664306642046,-4.94000244140625,10.119995117187472,4.080001831054673,-8.139999389648438,2.4800033569335938,8.419998168945312,6.0,6.0,12-06,0.5925003687540631
10-23,-1.1500015258789062,-1.8600006103515554,5.5149993896484375,4.279998779296875,-5.654998779296875,-1.599998474121108,-4.44000244140625,10.83999633789061,3.9300003051757812,-7.050003051757827,0.1100006103515625,7.840000152587891,6.0,6.0,12-07,0.896665891011553
10-24,0.10499954223632812,-1.5400009155273509,6.904998779296875,4.010002136230469,-7.149993896484375,0.9000015258789062,-2.9000015258789062,10.34999847412108,2.3799972534179688,-2.0699996948242188,0.0800018310546875,10.419998168945312,8.0,4.0,12-08,1.7908334732055646
10-25,0.20499801635742188,-2.375,7.755001068115234,3.1500015258789062,-9.029998779296875,2.3199996948242188,-7.1999969482421875,10.860000610351562,2.7099990844726562,-3.0500030517578267,-1.8900070190429688,10.419998168945312,7.0,5.0,12-09,1.1562493642171212
10-26,-0.8050003051757812,-1.7750015258789062,7.805000305175781,2.1350021362304688,-11.19000244140625,-0.23999786376953125,-6.279998779296875,11.389999389648438,1.94000244140625,-4.43000030517581,2.9099960327148438,10.419998168945312,6.0,6.0,12-10,0.9899997711181617
10-27,-0.539997100830071,-1.7800025939941335,5.095001220703125,0.43000030517577414,-12.139999389648438,0.720001220703125,-4.319999694824219,11.790000915527358,1.25,1.5699996948242188,3.4599990844726562,10.7699966430664,8.0,4.0,12-11,1.3587500254313163
10-28,0.710002899169929,-1.3700027465820384,2.7249984741210866,0.6200027465820241,-11.555000305175781,-4.709999084472656,-6.410003662109375,14.129997253417983,0.8600006103515625,-0.3300018310546875,3.7899932861328125,12.840000152587898,7.0,5.0,12-12,0.941665649414063
10-29,-0.0749969482421804,-1.7449989318847656,7.159999847412109,1.1200027465820241,-14.410003662109375,-6.339996337890611,-7.1399993896484375,16.02999877929689,1.6800003051757812,0.029998779296875,2.8600006103515625,11.379997253417969,7.0,5.0,12-13,0.8791669209798201
10-30,2.5049972534179688,-2.6599998474121094,5.8100013732910085,2.125,-12.035003662109375,-5.430000305175781,-7.6699981689453125,15.410003662109375,0.75,-1.5800018310547017,5.049995422363281,11.10999679565429,7.0,5.0,12-14,1.1154158910115537
10-31,2.0400009155273438,-2.6850013732910156,4.534999847412109,2.125,-11.069999694824219,-8.190002441406236,-11.180000305175781,17.59000396728517,0.06999969482419033,-1.4099960327148438,5.3600006103515625,10.199996948242188,7.0,5.0,12-15,0.6154168446858724
11-01,4.209999084472656,-2.2099990844726562,3.645000457763679,1.9300003051757955,-10.30999755859375,-6.9499969482421875,-9.209999084472656,13.049995422363281,-2.349998474121108,-2.9599990844726562,5.55999755859375,10.199996948242188,6.0,6.0,12-16,0.38374996185302795
11-02,4.915000915527337,-3.80999755859375,-1.4350013732910156,1.6550025939941335,-12.220001220703125,-7.980003356933594,-8.769996643066406,13.26999664306642,-3.009994506835966,0.48000335693359375,1.7999954223632812,10.199996948242188,6.0,6.0,12-17,-0.40874989827474195
11-03,5.154998779296882,0.740001678466804,-3.4300003051757812,1.0900001525878906,-11.860000610351562,-7.849998474121094,-12.649993896484375,12.129997253417969,-4.8600006103515625,-6.269996643066406,4.220001220703125,10.329998016357422,6.0,6.0,12-18,-1.1045827865600575
11-04,4.004997253417976,0.9150009155273509,-3.6199989318847585,2.0800018310546804,-11.905006408691406,0.8600006103515625,-10.669998168945312,12.119995117187514,-8.409996032714858,-10.139999389648438,5.1199951171875,9.30999755859375,7.0,5.0,12-19,-0.8612508773803699
11-05,2.6399993896484446,0.950000762939446,-1.7449989318847656,3.555000305175774,-8.864997863769531,-4.959999084472656,-10.669998168945312,10.569999694824219,-7.049995422363281,-12.33999633789061,6.579994201660156,9.75,6.0,6.0,12-20,-0.9654159545898432
11-06,1.0900001525878906,1.1049995422363281,-2.799999237060547,0.23499679565429688,-7.319999694824219,-7.8300018310546875,-11.969993591308594,10.050003051757812,-5.529998779296875,-14.349998474121094,9.169998168945312,10.7699966430664,6.0,6.0,12-21,-1.448333104451498
11-07,0.2749977111816406,1.0,-1.5999984741210938,1.2249984741210938,-4.790000915527344,-7.100006103515597,-13.94000244140625,9.730003356933594,-2.5499954223632812,-16.169998168945312,5.849998474121094,5.039997100830078,6.0,6.0,12-22,-1.9191672007242815
11-08,1.145000457763679,1.095001220703125,-1.8650016784667969,3.3400001525878906,-2.81500244140625,-3.4800033569335938,-15.120002746582031,9.190002441406236,-0.7900009155273438,-11.8699951171875,6.5500030517578125,5.039997100830078,6.0,6.0,12-23,-0.7983334859212246
11-09,2.68499755859375,-0.1699981689453196,-0.02500152587890625,4.92500305175782,-1.464996337890625,-3.440002441406236,-15.560005187988281,9.120002746582017,-1.2399978637695312,-15.770004272460952,8.840003967285156,5.039997100830078,5.0,7.0,12-24,-0.5883334477742524
11-10,3.2949981689453125,-1.1149978637695241,-0.9300003051757812,4.8050003051757955,-1.464996337890625,-3.440002441406236,-16.770004272460938,9.920005798339844,-1.0400009155273438,-11.510002136230469,8.840003967285156,3.1599998474121165,5.0,7.0,12-25,-0.520833015441891
11-11,3.759998321533203,-1.2299995422363281,-2.9150009155273366,4.404998779296882,-1.9150009155273438,-2.339996337890625,-13.510002136230469,11.139999389648423,1.8899993896484375,-13.989997863769531,9.55999755859375,3.4399986267089844,6.0,6.0,12-26,-0.14208380381266275
11-12,4.454998016357422,0.0749969482421946,-2.7199974060058594,4.004997253417976,0.5799942016601562,-1.1499938964843892,-11.8800048828125,10.449996948242173,2.6500015258789062,-18.389999389648438,10.519996643066406,4.859996795654297,8.0,4.0,12-27,0.2879152297973621
11-13,5.694999694824219,-0.4900016784667969,-2.75,3.1350021362304616,-0.600006103515625,0.5600051879882812,-8.55999755859375,9.349998474121094,4.950004577636719,-9.529998779296875,11.199996948242188,2.6800003051757812,7.0,5.0,12-28,1.3033336003621414
11-14,5.025001525878906,-1.154998779296868,-2.379997253417976,4.095001220703118,-0.7050018310546875,-4.110000610351577,-11.370002746582031,9.860000610351562,5.8899993896484375,-9.080001831054688,11.459999084472656,0.0,5.0,7.0,12-29,0.6274998982747378
11-15,4.700000762939453,-1.2249984741210938,-2.959999084472649,2.6949996948242116,-1.6800003051757812,-2.529998779296875,-14.300003051757812,7.0800018310546875,7.0,-12.599998474121094,10.169998168945312,0.0,5.0,7.0,12-30,-0.3041664759318034
11-16,4.369998931884766,0.06999969482423296,-2.125,2.479999542236321,0.31999969482421875,-2.0199966430664062,-13.700004577636719,6.430000305175781,6.930000305175781,-16.409996032714858,11.879997253417969,0.0,7.0,5.0,12-31,-0.14791679382324277
11-17,4.644996643066406,0.5100021362304759,-0.289997100830071,1.509998321533196,0.31999969482421875,-2.0199966430664062,-11.890007019042969,9.310005187988281,6.720001220703125,-16.919998168945312,11.879997253417969,0.0,7.0,5.0,01-01,0.31458346048990943
11-18,5.26499938964843,-0.45999908447264914,-0.6999969482421804,0.0,-0.5849990844726562,-4.970001220703111,-14.060005187988281,8.5,7.009994506835966,-18.19000244140625,11.129997253417969,0.0,4.0,8.0,01-02,-0.5883344014485635
11-19,6.174999237060547,-0.6049995422363281,1.0200004577636719,1.0900001525878906,-0.02500152587890625,-5.630004882812486,-11.560005187988281,5.6100006103515625,6.470001220703139,-18.5,13.360000610351562,0.0,6.0,5.0,01-03,-0.21625073750813564
11-20,6.16999816894532,-0.5449981689453125,1.25,3.1399993896484375,0.45999908447265625,-6.740005493164034,-12.019996643066406,5.430000305175781,7.8600006103515625,-11.75,11.700004577636719,0.0,7.0,4.0,01-04,0.41291681925456025
11-21,4.5600013732910085,-0.07500076293945312,2.7199974060058665,2.770000457763672,-0.7350006103515625,-9.669998168945298,-11.779998779296875,7.870002746582031,9.269996643066406,-15.389999389648438,10.44000244140625,0.0,6.0,5.0,01-05,-0.0016663869221993366
11-22,6.099998474121087,-0.18000030517578125,3.3049964904785156,2.345001220703118,-2.5649948120117188,-7.319999694824247,-12.889999389648438,8.35000610351564,9.340003967285156,-10.08999633789064,11.150001525878906,0.0,6.0,5.0,01-06,0.6287514368692998
11-23,5.4850006103515625,1.81500244140625,4.989997863769531,2.595001220703118,-2.31500244140625,-12.879997253417983,-12.44000244140625,6.6200027465820455,9.269996643066406,-10.729995727539077,11.470001220703125,0.0,7.0,4.0,01-07,0.3233337402343732
11-24,5.465000152587891,1.2649993896484375,5.35999679565429,4.575000762939446,-2.5849990844726562,-15.349998474121108,-17.81999969482422,7.639999389648452,9.289993286132827,-8.620002746582031,14.920005798339844,0.0,7.0,4.0,01-08,0.34499963124593097
11-25,4.885002136230469,1.7050018310546875,5.63999938964843,4.66999816894532,-1.1699981689453125,-13.059997558593736,-16.209999084472656,8.199996948242188,12.349998474121094,-8.02999877929686,15.770004272460938,0.0,7.0,4.0,01-09,1.2291673024495466
11-26,6.125,1.9500007629394531,3.420001983642578,3.7449989318847656,-1.2099990844726562,-10.389999389648438,-14.699996948242188,11.739997863769531,12.889999389648438,-7.0200042724609375,15.42999267578125,0.0,7.0,4.0,01-10,1.8316659927368164
11-27,5.659999847412102,2.5200004577636648,3.2900009155273438,4.7749977111816335,0.1750030517578125,-3.0400009155273438,-16.55999755859375,9.549995422363281,11.889999389648438,-2.759994506835966,14.989997863769531,0.0,8.0,3.0,01-11,2.5408334732055624
11-28,6.280002593994126,2.8649978637695312,4.965000152587891,4.13999938964843,0.8899993896484375,0.15999603271484375,-17.91000366210939,9.930000305175781,12.170005798339858,-4.5799942016601705,16.43999481201172,0.0,9.0,2.0,01-12,2.9458332061767547
11-29,5.825000762939446,3.7550010681152344,2.4699974060058594,3.4949989318847585,1.0,0.220001220703125,-19.76000213623047,12.479995727539077,11.510002136230483,-6.279998779296889,17.349998474121094,0.0,9.0,2.0,01-13,2.6720829010009766
11-30,4.4650001525878835,4.770000457763679,-0.2849998474121165,4.239997863769524,0.904998779296875,-2.7299957275390625,-20.51000213623047,2.4000015258789062,9.690002441406264,-4.189994812011719,15.479995727539062,0.0,7.0,4.0,01-14,1.186250368754069
12-01,4.735000610351555,3.4300003051757955,0.31999969482421875,4.1949996948242045,-0.7699966430664062,-2.1800003051757812,-19.8800048828125,0.1699981689453125,9.099998474121108,-11.239997863769517,14.729995727539062,0.0,7.0,4.0,01-15,0.21749941507975437
12-02,5.335002899169915,2.3149986267089915,0.30500030517577414,3.7100028991699148,1.8000030517578125,-2.560005187988267,-16.69000244140625,1.1800003051757955,14.08999633789064,-9.59999847412108,15.540000915527344,0.0,8.0,3.0,01-16,1.2854166030883825
12-03,5.450000762939446,2.375,0.884998321533196,3.930000305175774,2.44000244140625,-4.060005187988267,-16.81999969482422,0.9100036621093892,14.649993896484403,-9.520004272460938,17.959999084472642,0.0,8.0,3.0,01-17,1.5166657765706397
12-04,5.345001220703118,1.740001678466804,0.4650001525878906,4.095001220703132,1.6149978637695312,-5.260002136230469,-16.31999969482422,0.9300003051757812,12.33999633789064,-5.400001525878906,14.689994812011719,0.0,8.0,3.0,01-18,1.186665852864585
12-05,5.365001678466797,3.1000022888183665,0.8050003051757812,3.3250007629394602,2.4899978637695312,-3.0100021362304688,-10.930000305175781,1.0200042724609375,12.629997253417969,-3.459999084472642,16.150001525878906,0.0,8.0,3.0,01-19,2.290417035420738
12-06,4.80000305175782,4.25,0.24000167846680398,3.5050010681152415,5.160003662109375,-1.660003662109375,-13.220001220703118,1.4300003051757812,14.669998168945312,-3.459999084472642,12.779998779296875,0.0,8.0,3.0,01-20,2.374583562215173
12-07,5.040000915527344,4.365001678466804,1.1700019836425852,4.010002136230476,5.980003356933594,2.119995117187514,-15.210002899169922,1.8700027465820312,13.80999755859375,-4.94000244140625,12.509994506835938,0.0,9.0,2.0,01-21,2.5604162216186555
12-08,5.540000915527344,4.620002746582038,2.3700027465820455,4.149997711181641,5.410003662109375,1.1399993896484375,-16.869998931884766,0.470001220703125,13.84999847412108,-2.659996032714858,10.799995422363281,0.0,9.0,2.0,01-22,2.4016672770182286
12-09,5.319999694824212,4.604999542236335,0.6650009155273438,4.529998779296875,5.5449981689453125,1.3899993896484375,-18.139995574951172,-1.259994506835966,13.16000366210939,-0.659996032714858,9.529998779296875,0.0,8.0,3.0,01-23,2.057084401448565
12-10,4.8300018310546875,5.305000305175781,1.0550003051757884,4.384998321533203,6.2050018310546875,3.75,-17.939998626708984,-0.3600006103515625,15.610000610351562,-4.849998474121094,8.25,0.0,8.0,3.0,01-24,2.1866671244303393
12-11,5.269996643066406,5.510002136230469,2.2749977111816477,3.009998321533203,7.730003356933594,3.6800003051757812,-11.139999389648438,-2.3700027465820312,16.62999725341797,-5.5,8.419998168945312,0.0,8.0,3.0,01-25,2.7929159800211596
12-12,1.8300018310546804,5.515003204345703,1.75,2.0050010681152273,6.680000305175781,3.9899978637695312,-10.84000396728517,-2.1500015258789062,18.19000244140625,-7.3600006103515625,6.379997253417969,0.0,8.0,3.0,01-26,2.1658331553141252
12-13,2.2900009155273438,4.585002899169929,4.154998779296882,3.1199989318847727,5.0749969482421875,5.450004577636719,-15.270000457763672,-4.110000610351577,18.52999877929689,-6.260002136230469,6.340003967285156,0.0,8.0,3.0,01-27,1.9920835494995135
12-14,1.375,5.314998626708984,6.819999694824226,3.0,2.8949966430664062,6.9900054931640625,-10.830001831054673,-0.30999755859375,18.830001831054688,-2.8400039672851705,1.9399948120117188,0.0,8.0,3.0,01-28,2.7654161453247075
12-15,0.2949981689453196,6.079998016357415,6.18499755859375,2.1499977111816406,1.1800003051757812,7.660003662109375,-11.230003356933594,-0.01999664306640625,18.899993896484403,2.8899993896484375,-1.2700042724609375,0.0,8.0,3.0,01-29,2.734998703002932
12-16,-0.45999908447266336,5.88499832153321,3.5349998474121094,1.6149978637695312,3.7399978637695312,2.6299972534179688,-9.730003356933594,0.3899993896484375,17.849998474121108,1.8899993896484375,-0.8600006103515625,0.0,8.0,3.0,01-30,2.2070821126302094
12-17,-0.06999969482421875,5.790000915527344,4.275001525878913,2.9850006103515696,2.5,-3.0400009155273438,-7.230003356933594,-0.5800018310546875,16.669998168945312,2.660003662109389,-3.6699981689453125,0.0,6.0,5.0,01-31,1.690833409627281
12-18,-0.7199974060058665,5.534999847412109,4.869998931884773,1.2000007629394531,1.3249969482421875,-4.349998474121108,-2.8000030517578125,-2.280006408691392,15.259994506835938,5.439994812011719,-5.4499969482421875,0.0,6.0,5.0,02-01,1.5024986267089844
12-19,-2.135002136230476,7.465000152587891,5.284999847412109,1.9350013732910156,-0.34000396728515625,-6.109992980957031,0.7699966430664062,-1.9000015258789062,13.569999694824219,6.469993591308608,-6.1100006103515625,0.0,6.0,5.0,02-02,1.5749991734822597
12-20,0.43000030517576704,7.959999084472649,3.9650001525878906,0.9749984741210866,-1.1949996948242188,-6.029998779296889,-1.1600036621093892,-2.160003662109375,11.459999084472656,9.70999908447267,-6.840003967285156,0.0,6.0,5.0,02-03,1.4262488683064742
12-21,1.1699981689453054,7.79499816894532,3.8600006103515625,0.7050018310546875,-1.1899948120117188,-2.540000915527358,-3.089996337890611,-1.5500030517577983,8.650001525878906,11.939994812011733,-10.469993591308594,0.0,6.0,5.0,02-04,1.273333867390953
12-22,-0.2849998474121094,7.520000457763679,3.7849998474121094,2.9150047302246094,-2.9399948120117188,1.25,0.3800048828125,-2.1299972534179545,9.409996032714844,15.989997863769531,-12.009994506835938,0.0,7.0,4.0,02-05,1.9904181162516295
12-23,-1.345001220703125,7.895000457763679,4.105003356933594,2.2600021362304688,0.48000335693359375,-1.2200012207031392,-3.5,-2.3199996948242188,3.4199981689453125,16.519996643066392,-9.759994506835938,0.0,6.0,5.0,02-06,1.377917289733885
12-24,-1.69000244140625,8.465000152587876,5.039997100830085,3.025005340576186,-0.3849945068359375,1.1399993896484375,-3.2299957275390625,-1.599998474121108,0.1499938964843892,15.489997863769531,-6.7599945068359375,0.0,6.0,5.0,02-07,1.6370840072631843
12-26,-3.5349998474121094,7.73499679565429,6.05999755859375,4.059997558593757,-0.2649993896484375,2.370002746582017,-3.4300003051757812,-5.349998474121108,-3.6300048828125,7.19000244140625,-6.599998474121094,0.0,5.0,6.0,02-09,0.3837496439615862
12-27,-4.174999237060547,7.3199996948242045,6.204998016357429,4.020000457763679,2.0449981689453125,1.4599990844726562,-2.05999755859375,-4.400001525878906,-2.5800018310546875,7.3899993896484375,-7.269996643066406,0.0,6.0,5.0,02-10,0.6629165013631185
12-28,-2.6949996948242188,6.984996795654297,7.489997863769524,5.5800018310546875,4.5749969482421875,1.6199951171875142,-4.9000015258789205,-3.5100021362304688,-2.6699981689453267,5.470001220703111,-8.040000915527344,0.0,6.0,5.0,02-11,0.8254156112670868
12-29,-5.51499938964843,6.379997253417962,6.684997558593757,6.244998931884766,3.4249954223632812,0.9300003051757955,-5.299995422363281,-3.1399993896484375,-6.870002746582031,5.290000915527344,-8.69000244140625,0.0,6.0,5.0,02-12,-0.046667416890460466
12-30,-5.284999847412109,6.099998474121094,6.9699974060058665,6.274997711181641,3.6899948120117188,0.5,-4.819999694824219,-1.2900009155273295,-9.23000335693358,7.0,-7.599998474121094,0.0,6.0,5.0,02-13,0.19249884287516572
12-31,-4.530002593994126,6.414997100830085,5.19000244140625,6.655002593994141,3.6350021362304688,1.129997253417983,-5.0,-2.099998474121108,-6.160003662109361,8.419998168945298,-8.3800048828125,0.0,6.0,5.0,02-14,0.43958250681559424
