,2009,2010,2011,2012,2013,2014,2015,2016,2017,2018,2019,2020,ups,downs,avg
01-02,-9.369171414095698,-10.235009822866635,11.963777759013395,10.813189496050825,7.42515370145541,5.762090287660109,1.0300419698573722,-6.28432413057949,-2.2819297461136854,-2.3791690377508257,6.346252599119833,-11.621122917768828,6.0,6.0,0.09748156199848197
01-03,-10.249609752294596,-10.331933996096062,10.816035004884126,11.659700293137771,7.0509022215471,6.024786142987514,8.56540346538676,-2.924672741783638,-2.769231677942773,-3.905955494103678,7.0077506762758395,-12.748740992977172,6.0,6.0,0.6828694290850988
01-04,-10.90708853593695,-8.144793776610292,10.535002135326762,11.537792078131806,5.838325370819406,6.52533018099235,10.565412770561306,-2.6366194308734596,-2.848637961868035,-3.924685957447903,2.925066492046189,-16.86046787100476,6.0,6.0,0.21705295784470144
01-05,-25.657887730831064,-6.773638675623879,10.35051583049396,11.050152574608491,5.505140528375466,7.312388082313645,10.166854363956034,0.9743044964411061,-3.404466804144696,-5.067437171658573,2.526812057937117,-18.045921787095082,7.0,5.0,-0.9219320196022897
01-06,-25.609332547217306,-7.129014325942258,9.874743547812997,10.806336144596562,2.4769753983773084,8.837257702478544,11.646205810987622,4.942106770802193,-4.426798098732165,-4.661525238424787,5.725683654632935,-18.663630605040783,7.0,5.0,-0.5150826488057615
01-07,-21.282231480712284,-6.127506357965653,8.476547148866564,13.135524755023608,4.117196563172424,6.71474587154891,12.202284703940114,7.568484373692098,-2.8451617512404526,-4.710144670728967,5.215120846442715,-15.540893278906106,7.0,5.0,0.5769972269277474
01-08,-22.94242656926588,-4.992587340153893,8.894649936560802,10.651508935465596,2.5512206731858194,6.753886721364326,8.844822706026491,5.672332987817483,-4.029079988844428,-4.399777732753953,3.3002654145747234,-13.017595390139677,7.0,5.0,-0.22606497051354926
01-09,-19.204588461681972,-3.6982248759215692,12.80191249843229,11.655860941702786,2.166576771688687,6.63088480928092,6.759065843299385,8.664468505024994,-3.568910605003999,-5.576034081856664,-0.41506749056094616,-14.195136379378361,6.0,6.0,0.16840062291879607
01-10,-15.351114118629816,-6.546519096015735,12.343060177483439,8.76708170325337,1.0126390781913823,7.3432213021952215,7.213438255096858,11.826618229889583,-6.01866381631503,-5.859564049421114,-0.34420325115091144,-13.52809457598125,6.0,6.0,0.07149165321633315
01-11,-24.695959720747396,-9.1535929177227,15.438409062805677,10.79889771545618,-1.2818416044461467,8.168535554007198,8.0713566238589,6.395175961192136,-7.577155215977656,-8.817694023561483,-1.594131407221255,-15.24053051896641,5.0,7.0,-1.6240442076102461
01-12,-19.201195410060272,-2.9564068350747665,13.899817825611196,10.185030291980349,0.542518506182281,9.390237115161753,7.750243889114025,9.49366914962205,-8.038556408707146,-8.039967228297666,-3.1194424735818482,-22.32869712953183,6.0,6.0,-1.0352290589651563
01-13,-28.925626378731174,-5.481227680543045,14.450562870439821,11.553647282809147,-2.373332593179082,11.163039829420008,8.567130307731219,7.695625334375881,-8.014758347118295,-4.190018820060842,-3.9683399854675283,-27.660843962078296,5.0,7.0,-2.265345178533515
01-14,-21.833559248269253,-5.7401809207019605,8.70472587571836,11.765207547434313,-0.9392742203314777,9.568759978694658,5.686338799248263,6.127725420799191,-9.532710295182312,-3.561970592721547,-4.898305073729974,-36.598102514072586,5.0,7.0,-3.43761210359286
01-15,-23.04439389789188,-3.9154703691081862,7.937362636762457,10.29233804116192,1.43397393718962,8.624759504660625,6.986993534655969,8.07299091868156,-7.731589635057655,-6.031416496157494,-3.7352645077503297,-37.246830406106504,6.0,6.0,-3.1963788949133245
01-16,-23.964208775317463,-3.508766948733893,8.396403267888989,11.053939904108175,1.2212381379804642,8.76421160905418,-0.19971187247427058,9.659259937427663,-8.753485596616873,-11.802407253807589,-3.8194415177293113,-37.68986644394951,5.0,7.0,-4.220236296014121
01-17,-21.36290653702185,-2.8526116267456825,4.678961398572009,8.905673050494048,0.7012286499277636,9.873576778315933,0.4346850026105931,5.807844370716936,-5.427286496300007,-11.940446488846055,-4.219278301348703,-42.183329264322914,6.0,6.0,-4.7986574553289945
01-18,-33.20903561959963,-2.657383311618965,5.345482617980828,7.456523641540935,-0.8591216601067387,10.658854733700618,-0.3031712102656393,6.21346863951412,-5.347324648609407,-12.640504758705145,-7.500003246550849,-32.848566464347805,4.0,8.0,-5.474231773922306
01-19,-26.415483732031657,-1.5967426259337787,6.670346708206585,7.711223197111631,-2.8455284552845526,10.597494991861952,1.150825366735637,8.985075310095032,-5.137430517607697,-13.03617553036471,-0.45633940029254716,-33.69392316182691,5.0,7.0,-4.005554820777585
01-20,-18.84540382714925,-0.5322501960496425,6.743952218610204,11.761183448201692,-3.867311806442532,11.656923217606776,1.2819052493085206,10.089549733631646,-7.108764002460745,-15.150323517923308,-0.051650710689806804,-34.614769349216196,5.0,7.0,-3.2197466285477208
01-21,-27.82779186951374,-0.8035865638893318,8.434598457171411,7.28709652376255,-1.4434667969598423,11.160695654653631,-0.05525809806416958,4.850746268656716,-4.960940859072768,-14.743151454838104,-1.4240844087450917,-31.1485619758512,4.0,8.0,-4.2228087602241615
01-22,-24.696679302198504,1.20797682074466,6.993960585645663,6.713779751775081,-0.7165617331311868,9.853537577400378,0.143659251283951,4.66426477535539,-3.3876280603444173,-15.651912903903378,-5.351313942025249,-29.666033026895523,6.0,6.0,-4.157745850524428
01-23,-28.414350885184163,2.4748368255167934,6.308710958376447,6.316538918981409,0.6767503857065964,11.192192088515567,-1.339440369113171,13.751579618993976,-3.9485585786958293,-16.823627569380236,-5.035889852590227,-27.699749520603056,6.0,6.0,-3.5450839982896576
01-24,-30.59343268396299,2.4648263922978755,4.209033634423829,7.592360247684929,0.48566928165786094,13.362294098987102,-4.245232188309686,18.391414924619927,-9.332487929176564,-17.448198666493493,-5.764623973923637,-29.060933978730535,6.0,6.0,-4.161609236743782
01-25,-34.86712112156038,3.141256231709476,5.604915060611834,5.594839902070768,1.7952343676358746,14.648268920412544,-5.25535857979849,12.712581797578833,-9.564483306646945,-16.436991920496368,-8.483853453150882,-38.58951256239151,6.0,6.0,-5.808352055335438
01-26,-28.520128890769534,5.76689311961971,3.3270360783817017,7.415590803349489,3.4815013852438703,14.255486121766344,-7.123795354133487,8.62164845385455,-10.081195163979283,-17.069297567786265,-13.489120434278822,-103.82979388256454,6.0,6.0,-11.43709794427469
01-27,-23.4444512261285,6.525695252145169,2.4102107544461284,8.993969570980095,3.466505974599679,12.661637514652451,-7.452335899266256,8.566291528384335,-7.523515995022143,-13.404667675310211,-13.725940232637267,-84.23077452112251,6.0,6.0,-8.929781246189918
01-28,-29.555553860134548,7.416020308825319,0.29174661715041567,8.410163085768168,4.520298893022259,9.674284659283838,-1.790866975979617,5.023532764320873,-6.762312449418756,-15.82712375923799,-12.784542064864235,-98.27586680797211,6.0,6.0,-10.80501829910303
01-29,-26.981480916341145,7.527102374959231,-0.7004239025858122,7.403504396209534,2.2636297589139502,11.06250226660555,-2.7267481538276286,1.7296250976371468,-6.582412007245152,-16.521737406390287,-11.62922331178435,-93.36077768777126,5.0,7.0,-10.709703290968351
01-30,-15.235495766957447,2.080343042841433,0.13141780836633699,9.875910197879127,2.7409955760321885,10.26305812071198,-3.8735266950034006,8.10056390338416,-6.98805462127263,-15.296825380579925,-12.2840660391848,-95.11064977859836,6.0,6.0,-9.63302746936511
01-31,-13.137813128986128,1.3830078917657647,-0.9009834277745707,7.446809289153719,3.772714306794226,9.66048757048149,-8.34992072184312,7.608989748982936,-4.656917768550591,-15.1266400066846,-12.001803421073253,-124.33847280649037,5.0,7.0,-12.386711872852041
02-01,-8.485041234012401,0.9639306310295236,-2.765814382938634,7.656085416753014,2.450121886274741,13.028980786413877,-5.255967050043012,6.140475798101429,-4.059347352680192,-16.648310496577427,-10.212951035093344,-105.08621928524626,5.0,7.0,-10.189504693168223
02-02,-5.768620408352783,-1.2733548186941601,-2.6318308510115536,7.150328676683918,2.399936587457537,13.614266312043574,-6.589854136177656,10.501062309805247,-2.730271576896675,-14.374049757572415,-11.851433832454012,-129.48553656322886,4.0,8.0,-11.753279838199822
02-03,-9.482343536966976,-1.4507874178770876,-2.4500002299989507,5.65597255977969,1.2720017477841221,14.495663796837729,-6.232068903881767,6.463217503929332,-5.332359921437046,-9.069189534217283,-8.11575199420855,-131.04565929677184,4.0,8.0,-12.107608768919052
02-04,-10.59507125843612,3.0372571828271,1.748253147353387,5.754411107165085,-0.01571797987630993,10.105048297123036,-4.9966893848584055,8.795307027715422,-3.391057381227559,-11.262309536316923,-6.998277554062699,-147.3790395845979,5.0,7.0,-12.93315715976599
02-05,-11.417510414443685,0.45025533280616786,2.168075568117034,6.2441450457159124,-2.043733764344182,10.686286682973737,-6.099711621353132,12.339872472426471,-3.6167072161606932,-8.12197333348594,-2.5654386277305776,-158.90457815582076,5.0,7.0,-13.406751502608303
02-06,-8.175208485807135,0.13085618449390823,5.215444442016979,4.053701998946598,-2.7170471825238884,7.61478103356836,-6.99207217869196,9.520028044053374,-5.469161362221041,-3.330786318408612,-0.30243082424990614,-154.93952339741855,5.0,7.0,-12.949284837186823
02-07,-14.18885713087602,-0.08743369514173498,6.8542733156543525,2.3548021814129663,-2.796266213898988,7.266327798037225,-5.811641624758158,9.913110676743173,-2.6835719752554366,-0.9543806181047471,3.024300286096344,-123.81094443724834,5.0,7.0,-10.076690119778279
02-08,-7.052051912209338,2.719351577641125,8.161653005611601,2.099990722184128,-7.57061915891807,9.1003978798532,-7.808985335103598,9.841898643646468,-3.687266568944858,3.569381472934799,4.511203285514758,-111.23530592582449,7.0,5.0,-8.112529359467857
02-09,-10.393251938840093,-2.128120586796623,8.871747851018197,1.194974641530412,-6.689064455440534,8.122367436457512,-8.003152750377964,13.583669276308235,-5.451659745936748,4.0464101866498545,-0.5657544594047069,-113.37578168711222,5.0,7.0,-9.232301352662057
02-10,-4.6658306482429825,4.677543313524255,8.6175171888781,-1.3411901924771474,-7.601677136972383,9.067186778658437,-5.891510788901978,13.320158639133165,-6.992938565065404,2.5694324627059832,-1.5412807975751714,-85.17587527894975,5.0,7.0,-6.246538752107072
02-11,-1.4501923133006716,1.6312003253845555,10.601470944585706,-1.4767688596708233,-3.4445327010425455,9.051634307528001,-3.601598373436153,13.623193358908726,-5.787473991614583,4.118248877701664,0.5909017394005793,-88.43538297630018,6.0,6.0,-5.381608305154643
02-12,-1.0403528715309005,-1.7445819950039496,10.753785342176785,-1.0877260622992702,-4.034144649539099,8.853838714944986,-5.380173428792909,8.93193397463765,-7.464126607101629,3.000096291237512,-1.099482985296119,-89.9218943350927,4.0,8.0,-6.6860690509716365
02-13,-2.790771891263335,-3.605316987347076,11.431949203332517,-1.8871302095231282,-3.6462470361369332,8.66645550679324,-6.085811647820603,8.627191653873997,-5.310103379135588,3.630208355008429,-2.283543446173204,-90.67775994894518,4.0,8.0,-6.994239985611405
02-14,5.176192250446876,0.1506017545473728,12.342271972140182,-3.75809801131195,-3.4367790103449627,8.528894565998835,-6.5481453898438415,8.909163421981583,-4.360828203024323,-0.40440167193734566,-2.5055532702591523,-89.52694278397828,5.0,7.0,-6.286135364632084
02-15,0.7412604484228364,0.5570994894664655,13.121905419321624,-4.752348093587348,-0.7722351924576858,8.744169797597383,-4.721074997760185,10.0198778851904,-3.865979381443299,-1.2790375123969453,-5.260397153091864,-107.02777438693576,5.0,7.0,-7.874544473139532
02-16,-2.7027089158102,0.5570994894664655,13.59174783606589,-7.288156246774863,-2.600129914754738,8.283631621388503,-5.235025951090665,7.833293491171819,-3.268039349428157,-3.6794449104729274,-4.759401938193247,-113.06460764616708,4.0,8.0,-9.3609785362166
02-17,1.5578494188846552,0.5142444250816969,12.559779271807955,-4.889013020707767,-2.2488518505809347,9.112956118958428,-5.235025951090665,3.8555577329492468,-1.914171704642475,-2.555336303968075,-2.85743405540009,-107.488871321079,5.0,7.0,-8.29902643664892
02-18,0.8927045802474024,-1.071352088315926,8.117460613597462,-4.095412344058367,-1.820992475129261,9.232167762617522,-3.9480805112867756,5.701879403784495,-1.968219486294244,-4.886815082467209,-3.8105111050778637,-115.40463024887488,4.0,8.0,-9.421816748438138
02-19,2.29301828951327,-1.8291337460572277,8.50578574773158,-2.0291160853283343,-4.203009902058781,9.766925885948135,-2.3012330179617364,3.954261055631508,-2.5886985972882757,-2.750546681300504,-6.153517258083499,-123.35260747799772,4.0,8.0,-10.057322648937634
02-20,8.652413496225265,3.6304678324202486,8.490329322095096,-1.8404403066376949,-1.0229983593473908,9.176673559371562,0.153474443954144,-0.23597746638655503,-1.2417315223441476,-3.638284517755902,-5.163417926502281,-119.62428096812174,5.0,7.0,-8.55531436775245
02-21,19.258789934999104,5.78909300097254,7.355455532674912,-1.8404403066376949,1.6336221915312026,11.574765374328866,0.8413318811341802,-2.702320568700796,-1.936871648066467,-1.574349062566616,-1.5117621253399134,-93.75979259201712,6.0,6.0,-4.739373198973984
02-22,16.01318138143699,5.411785573737444,5.652815958346613,-1.849248105550607,-2.018554220428769,9.592061758868747,3.098980031928149,-2.3674484650845966,0.05124313467874839,-2.80310859198595,-1.9856951496858404,-75.2569684928379,6.0,6.0,-3.8717462655480808
02-23,12.057963655813095,13.331400121890882,0.3658202054494243,-2.5889419730651873,2.388780246038953,7.893396643362448,2.482228090821442,4.49312626058551,0.010250190656673656,-4.263273323175927,3.933891677446535,-77.3015549607608,9.0,3.0,-3.099742763744746
02-24,8.004138851029253,10.66126642215441,4.041459357474865,-6.360845658904051,4.034993120978545,8.621215900273572,2.5840071049749995,2.386976338807692,1.7848036160449938,-7.4168522868236035,4.754727781785826,-69.1507393294625,9.0,3.0,-3.004570731805499
02-25,10.246683312617998,10.140733429434988,2.5379413650507465,-5.898518431402651,5.052634196439449,7.023746500848846,1.0740133202866686,3.819153572146304,-0.5649168532352441,-5.910234835249575,3.875418186721169,-62.085639719072894,8.0,4.0,-2.557415496284517
02-26,11.31620016414319,12.06992907929914,2.049543021506283,-7.6135518608507535,3.9807147500842306,5.790799296877459,4.1578090430067105,5.528337462496372,0.6695708986083109,-1.699790209373923,4.8820009429136935,-52.91555277757575,9.0,3.0,-0.9819991824054194
02-27,15.258253070185326,9.659249252116144,0.3195177209568585,-11.173079564021197,1.321720582163991,5.270335016400707,6.258487013966869,11.882405351687355,-0.03065632359360599,2.24862801660085,3.7374681615941716,-45.172991390764906,9.0,3.0,-0.03505525772561965
02-28,25.68866945967595,11.690612748292551,-2.8197327721355063,-13.26858092961081,2.2624756205778933,3.4654994442229907,7.795837110248429,12.525339825551699,0.9092760672481107,7.294335690704629,4.790846952403569,-39.67762650197911,9.0,3.0,1.7214127262666992
02-29,0.0,0.0,0.0,-10.59738123896628,0.0,0.0,0.0,16.47529856858546,0.0,0.0,0.0,-40.249890759393715,1.0,2.0,-2.8643311191478777
03-01,26.43214578902243,11.855090382891444,2.4229276651183476,-13.559987496537316,4.1010406456516675,4.0403535651659475,5.945722608145784,16.405248568385016,-2.217006394801536,7.513712162754091,2.3397195477012556,-45.206743545724464,9.0,3.0,1.6726852914810557
03-02,24.669531051301448,13.23085274347203,1.7358269219335067,-8.249382441052378,1.8851175297405223,5.317129341822753,7.671575363999872,13.859602659400203,-0.6027829830824475,7.7559612187024225,8.071408410460421,-48.85153040904521,9.0,3.0,2.2077757839710954
03-03,18.906145249166244,12.325007876168275,-0.433953281701855,-9.551916134991476,-4.8196904694490526,6.39403019311551,7.748056766870344,10.966828121842747,-1.1078078312852913,8.295801984288602,5.1997699228087875,-56.50539298172197,7.0,5.0,-0.21526004874076085
03-04,13.740720752383965,12.892308398986685,1.2102636854330238,-10.148876759625217,-2.2156939620978857,5.2714882789833615,7.625562771046603,8.225156274635463,-4.63195350632265,8.295801984288602,5.412800193571183,-60.64177190156494,8.0,4.0,-1.2470161491901497
03-05,12.491561978751157,11.873305653015425,2.2154170246667033,-8.01526111820423,-8.60477031847905,5.800611045757488,8.544306681101975,0.31699625765647693,-4.522667565980056,8.403062383323965,6.692719664136678,-55.10152890085078,8.0,4.0,-1.6588539345920204
03-06,11.113011151835366,9.397970000371979,1.1741156669512223,-8.207740426270545,-9.38860721820992,5.5187437418365635,9.622449290995695,2.5439064547985972,-5.525675168819358,10.491800175438879,10.17097820020681,-51.42387334035341,8.0,4.0,-1.2094101226015106
03-07,16.078567522806274,9.83423958447034,0.813007563463989,-8.610925773614174,-11.09562610837024,5.989508884078916,9.780933670565691,4.6252952859249,-6.688817453673039,10.615858120978457,10.747435431355983,10.133847186911504,9.0,3.0,4.351943659574883
03-08,9.916031678957472,12.680476296981627,2.9871236283886233,-9.8300908833238,-11.594827335239177,7.735476484559592,10.25168494174955,11.099917957817725,-1.6507673924473327,10.863980772708604,15.121754173467746,8.671362287106156,9.0,3.0,5.5210102175605655
03-09,11.403974162480889,12.353624166909649,3.352514961195827,-10.600235061089831,-13.41678499043096,8.697959393020604,9.18314054610638,8.958045060238764,-2.5833379880626994,9.856188857886217,16.953884802829712,7.160497594762731,9.0,3.0,5.109955958820607
03-10,6.1213639559574515,11.647453373366012,6.065588120586109,-10.385329228778762,-10.532647745287816,7.636305541979264,11.78095687447515,8.945452762783706,-1.5969965863162676,11.687285734980394,19.435880842352997,3.592127455263725,9.0,3.0,5.366453425113497
03-11,4.18736796450301,12.594979548899369,5.517794836151213,-9.777997135147583,-9.965815095819979,11.686332856217875,11.412481315010929,5.02779582214529,-1.4639827851904132,12.356317715529073,19.080672259886093,9.942064342580489,9.0,3.0,5.883167637063781
03-12,-4.3470559553001,13.653658980180644,4.773401122892458,-8.884640191315565,-8.463271491746061,11.909972565255368,12.272260223428049,7.587740396174139,-1.2908034052135913,12.165106254918593,16.317104758616345,24.681346811753052,8.0,4.0,6.697901672470278
03-13,1.8795696498568621,14.799509013714928,3.452961469136284,-9.790470862601866,-8.29651009115132,12.966311155861964,13.106744371021342,6.243735235146715,0.3358871692030164,13.301558293895525,14.787379628210514,21.30258191678266,10.0,2.0,7.007438079089719
03-14,2.611995819231764,13.860244934215803,4.645544562028234,-7.751573782151719,-9.922456012338843,10.142058761229082,9.119106269134619,9.664170231904842,-0.29689193780638223,13.44020964570983,13.709832273703373,28.274907878933327,9.0,3.0,7.291429053649495
03-15,1.4418419378124765,10.807325932616765,5.654974565158287,-8.644176380590284,-7.02445225317569,5.477587844920246,9.716515021741737,12.897883386996083,-2.915915672982024,14.514731177229445,12.960426253547316,30.175124063305127,9.0,3.0,7.08848882304829
03-16,2.9499904557344556,11.825987048576136,6.505014435843602,-7.611502388263499,-8.235384236910335,4.532938818571995,10.725165200879108,11.205775625750718,-1.611710647661253,14.597862096070044,6.089087915523536,30.858157630111233,9.0,3.0,6.819281829518812
03-17,4.01581909862427,12.43831186081506,2.7559070975144477,-7.677493124482091,-5.740992662253196,6.027910778208204,12.973726778785252,9.478170552307303,-3.688172371156754,15.686274125534796,5.2371152897471,35.26823428443892,9.0,3.0,7.231234309006943
03-18,5.673866235843019,14.750502339369586,3.616719887789719,-6.9028339855941105,-6.412998331809866,3.489794049944196,9.103663922333453,7.644403691400911,-4.021622941300676,16.670895534818822,4.299848778335778,37.63621234785178,9.0,3.0,7.129037627415218
03-19,3.802854071403218,17.58044653283248,1.4595324912317518,-5.538070526661416,-7.10257904734462,4.321429194236289,10.236614500852538,8.061006343145998,-4.552865910011112,16.23851372434393,-1.0773728048158437,30.385581787682852,8.0,4.0,6.151257529741339
03-20,2.410206033916061,18.391011631696237,-0.4146377089865252,-4.968887596844023,-6.235795605936237,2.8928562086455676,8.35775330785731,8.23870475404004,-4.734949759520844,13.133304324411398,-4.353030826606586,26.562827568370867,7.0,5.0,4.939946860920273
03-21,0.0,19.425852441755666,-3.0050854869588854,-4.145313716964552,-4.266599021038843,1.3385533515170518,10.010112611867248,5.791886801468727,-3.0187408223399417,10.175741612784,-5.419527032334069,22.503923823139782,6.0,6.0,4.1159003802413485
03-22,8.273180189796543,16.999272702207172,-6.661650275097536,-0.9791358956593715,-4.437206709481042,2.3284510237821086,10.453767434805483,4.335763764547681,-3.149519749746537,10.59579978454564,-5.057757349827041,26.101840660737537,7.0,5.0,4.900233798384219
03-23,6.942684349900075,10.487780708694377,-7.329696090516722,-3.7322479868449427,0.04839908562958226,4.483624129211286,5.859954370507572,6.301991720173721,-3.3238833384453708,8.749246908865478,-2.0682037644220945,24.994567887571385,8.0,4.0,4.284518165027029
03-24,17.34811964402325,11.980601591226073,-8.722247251537137,-6.52483871862983,1.6820078793897089,8.520693269987444,6.562900055735983,6.352399191788025,-7.065465286727893,6.183502303190772,-1.6878572463654964,13.176267223869885,8.0,4.0,3.9838402213292317
03-25,18.17361069835384,14.975753802618847,-12.64015585460443,-7.053552787845807,8.6741867939338,8.593374534538864,5.384941783740852,8.282061506288054,-2.7508803648274496,5.549213915790617,-1.0895620105690973,13.416233650539628,8.0,4.0,4.959602138996476
03-26,20.043850568174886,12.484132134223394,-10.2382722915508,-7.856530403090129,6.526468744266889,8.3309507402056,3.9124959497930005,5.2745316596114815,-1.8431614865445078,6.696158521465836,-0.7869806161610424,13.765273456123186,8.0,4.0,4.692409748043148
03-27,19.32806844206448,7.814356941281503,-6.395978050755499,-5.88011455271095,7.034080766909629,7.691571226429346,3.144387637867632,5.226348731244486,-1.8987318587499529,9.729178194583046,-0.5955520215502202,25.481268936781298,8.0,4.0,5.889907032782901
03-28,26.291143719347076,12.705417457708599,-6.847094336277437,-4.310179681317776,7.128344457828292,3.0964331288053693,1.4545461073278743,6.522017256612229,-0.7933149912597677,11.860090934816835,-1.2868223972997164,32.01166370548788,8.0,4.0,7.319353780148288
03-29,23.15204493736975,11.246896142406444,-12.16608438514903,-3.7297794727471274,5.562909481451231,4.10148586712083,-0.5785381244031859,6.063250454538849,-2.602072202929949,10.62908920549174,-0.9974559239327481,29.815410443131736,7.0,5.0,5.874763035195712
03-30,22.64846437213365,13.877100292187928,-11.71618681597177,-4.309450986602981,3.7954837960183903,5.359899978666552,1.3596019940807467,8.291827761478455,-2.7818883308113183,13.467841155167982,-2.0421078330591955,29.646020347097558,8.0,4.0,6.466383810865499
03-31,22.12741956885458,14.246166454414414,-11.078825967143162,-8.749875106456876,3.853066747097052,6.736711236878885,-0.09825760784326872,9.636451560231135,-3.4683966003391484,12.33285316863216,-3.6791469961564016,25.47718340169846,7.0,5.0,5.611279154988986
04-01,18.757108481159193,11.810293178393302,-12.196742945430811,-12.183291218381223,5.970588842784899,4.735320593541919,0.41484417003055507,10.509315632885286,-2.386485965216712,13.270980754550202,-2.7559955527275624,28.21577193682388,8.0,4.0,5.346808992367744
04-02,14.20648166542132,9.539234838378677,-12.262898336294208,-14.252595020799156,4.187392744388722,4.610202930877025,-1.2117910795218634,10.603946351534361,-2.3540543106882956,14.389089718643955,-1.7910157169083756,20.53942192775011,7.0,5.0,3.850284642731856
04-03,11.519059908066652,7.8423979470462895,-13.056357399033683,-14.76503391707393,6.377610670117859,3.128007653773235,-4.562988246965685,12.864053251640476,-3.335817107894419,13.522633996029448,0.4557018889300526,16.127001182026756,8.0,4.0,3.0096891522219202
04-04,11.062269944411048,5.2891664596661645,-12.082191139557466,-11.692774180555197,8.783132835862133,2.890793539475495,-4.86349228087777,13.80409731317547,-5.701993787809402,14.263375992637602,0.7312446343186593,17.302852238246405,8.0,4.0,3.315540130749429
04-05,14.567208788546685,4.929988210196207,-9.660471916179404,-10.33855853708071,6.357905076634124,4.458536287633384,-3.3442261359112915,12.274595569049765,-4.981178090183945,14.090537239985224,-3.6247078558315224,24.809303322343883,7.0,5.0,4.128244329933533
04-06,15.717851163239061,4.744210059919454,-7.681480586225428,-10.376008304393274,6.1811464771545745,4.271752313019045,-5.107467871974603,11.428929266094217,-5.486827618031508,19.1993665697535,-6.94475053429139,22.16738960927967,7.0,5.0,4.0095092119619435
04-07,19.97515286171799,-1.4770561060864318,-7.540799764034024,-11.556437716698257,6.430205133438734,3.8865434372305767,-4.211803666984263,11.14290051710233,-6.183878305127862,17.815409411721475,-6.191292733628828,21.50047363105987,6.0,6.0,3.632451391642609
04-08,18.48426663869364,-4.626817541054358,-8.180022618250744,-7.22555460446158,5.503425273182098,5.2323390802829675,-3.957552362687554,8.25424632768706,-5.074088327587212,18.88583779613517,-4.025939782590587,13.979108066566562,6.0,6.0,3.1041039954929555
04-09,15.309226385318542,-8.806725149975165,-5.446887953146592,-6.0298041053415234,2.046889808065309,5.001926392752648,-5.803670189182166,8.539293362671744,-5.864030768640804,16.46735983438249,-6.09191239868943,14.871797918573701,6.0,6.0,2.0161219280657297
04-10,14.453341893758079,-6.551351234916796,-8.076736852705334,-2.261556657595914,1.764299769201021,5.8083744614523685,-6.7764728227486515,8.93317928721156,-6.52761374171634,12.457309543536029,-6.264125998735414,17.777778421812318,6.0,6.0,2.061368839046077
04-11,11.154120113687286,-10.086277355446247,-6.232322046490522,-1.2291052482884124,2.039256334151745,5.309145751022173,-3.497655101491631,10.280029030360256,-5.622099047605859,11.042447113650244,-6.264125998735414,17.259172079448945,6.0,6.0,2.012715468688547
04-12,10.435035360516732,-8.580692229016016,-1.8936627485834023,-3.4611645802234983,5.19361170301287,3.5879641297777076,-4.908043652037035,6.704380804120534,-5.201251526990357,10.570824235765532,-13.346241962900024,17.195864716296853,6.0,6.0,1.358052020811658
04-13,10.538466545593474,-7.659915333148039,-3.1809736559561443,-1.602758044960466,11.575336500441843,3.8568838022019505,-6.214246573982559,6.379396888478054,-3.204922066890041,9.725163756220441,-14.935289251947529,15.843697373175946,6.0,6.0,1.7600699949355778
04-14,11.351979736899276,-9.574897991076483,-3.283586168533615,-1.9644763464170496,11.190093391998543,4.554572824946961,-8.382021443227703,6.343288584872236,-3.3128302098672036,7.467916705429391,-17.163834850750646,19.912763305809587,6.0,6.0,1.4282472950069411
04-15,13.226886492774852,-10.788051300068268,-3.582093355039151,-1.0024537032593672,11.386511006530824,3.878697344196135,-10.06741470165467,8.870970852370853,-5.185675010747943,5.723509995666365,-17.231089462817426,24.35046513190873,6.0,6.0,1.6316886074884114
04-16,14.193635987231055,-7.750153922693731,-2.461996929031847,1.9931374738890049,10.298878353231714,3.973761962315886,-10.112359550561797,5.9052253100101915,-4.955049969940739,4.466054971426043,-18.419528072120066,30.74151190061849,7.0,5.0,2.322759792864517
04-17,17.256574402934998,-1.3895368489863689,-1.5903848325804832,-3.7726559744339827,13.55868545355983,2.604815504867293,-9.06337823080035,5.063132608642176,-6.828827192176015,7.189379138919396,-17.829452711215634,18.977535540066288,6.0,6.0,2.0146572382330956
04-18,23.527805227891562,-3.0045799655760446,-0.6688687566575581,-3.1488269852876205,13.189794497439264,2.9436574890301075,-10.204076190371309,4.818090142008388,-5.004987703081613,5.769876034445173,-20.178181626550202,19.227001799201897,6.0,6.0,2.2722253302076703
04-19,27.04640207226764,-7.101057128523871,-1.1831026438788417,-2.940886507106866,14.507498414208298,2.145561632309621,-10.117164839356795,2.006195351804373,-3.299749127996745,4.776220038971335,-27.52501293753047,20.53658159104165,6.0,6.0,1.570957159684111
04-20,26.5581919786341,-3.4895611473136467,-3.3552058152359274,-3.756289640388937,9.837338479638442,1.7555499357930338,-8.87824609417393,1.7089749268333978,-3.3108244646159997,3.2594825714861644,-30.764537477258802,24.885974936305146,6.0,6.0,1.2042373491419198
04-21,21.5791648246748,-3.8236684423035223,-3.4014236270757108,-13.014072808411225,11.650852731780716,2.934562887066939,-8.515890371577477,1.9690357125580495,-3.5176993932521547,2.9657813109291933,-29.077762066262697,26.855696620434454,6.0,6.0,0.5503814482134469
04-22,22.337052711368237,-4.881672516223159,0.5139368004668851,-14.601766289200127,11.924940753273377,3.788668143868141,-9.762941920517687,-0.5342282477178878,-4.527205112374891,3.227439024311841,-27.040817804479655,22.069708581787584,6.0,6.0,0.20942617704688823
04-23,17.155850648056976,-3.636195882352,0.19898808390127232,-12.768036765924071,8.963588460547092,1.2127487846368503,-10.403319047968843,-0.06273121607343363,-5.089687299161725,1.4925420019169688,-29.952456492081907,20.137254697978552,6.0,6.0,-1.0626211688770224
04-24,13.713974922937485,-9.214492368197728,-1.1736647789755967,-10.040032620243746,6.683787489669271,2.7169308216844197,-10.68894971488433,1.8579975011783927,-3.2037828625474107,1.3345988116958474,-26.70974520072663,21.378060905392594,6.0,6.0,-1.112109757751453
04-25,15.086387763576564,-11.212185125290592,-2.119382898153072,-12.126003327290583,5.182075506308141,8.21130721506669,-8.563782648351015,6.626078382161042,-8.077135557504473,0.6371602097971831,-24.442281299677564,24.90305195712747,6.0,6.0,-0.491225818519184
04-26,15.305290700647598,-6.757785407494099,-2.5518622333353553,-14.327853704669122,8.818123619785629,10.300038572689058,-9.258220113895533,3.0224950944316324,-6.988083863965014,-1.2743269887303965,-16.150470099100634,28.28851959775366,5.0,7.0,0.7021554311764518
04-27,16.38312539443662,-4.64309778266166,-2.588580532060238,-14.216867604702552,8.10219548087727,10.455670125357965,-9.282752960383325,0.995780773246638,-5.501983426168451,0.9666746262175704,-14.657212469893876,25.105095003728113,6.0,6.0,0.926503885666173
04-28,15.760798153291114,-5.404104365945178,-2.7905276733974778,-16.96847120923391,7.362099355332948,9.780112838384568,-8.903876890049299,4.065137296030338,-4.9824076259655365,-0.4249171477695805,-13.849769336172804,19.144348950917117,5.0,7.0,0.23236852878519146
04-29,12.637876592997282,-7.17657716293815,-2.0491102161712185,-19.449578150834963,5.561149617561163,10.009028461708638,-10.31964807404418,2.3173315701596686,-2.164739019321306,-0.1355783660864021,-12.138728323699421,14.218946064241178,5.0,7.0,-0.7241355838689759
04-30,15.641196621612853,-3.079899059396714,-3.037061695988866,-16.60826132925008,6.5339820270470055,11.472445617302128,-9.44584995046507,-1.495832831317412,-2.3920800974403074,0.25323123885085747,-12.96013692892593,14.596445426344001,5.0,7.0,-0.04348508013562761
05-01,14.282001595354076,-3.3679200142782166,-5.94976927839306,-19.989220084912613,8.331406807799768,12.267384440859095,-9.10093751917343,-1.7078257772111793,-1.6232346072580186,0.5835115783562247,-8.067741630994634,12.864128318208525,5.0,7.0,-0.1231846809702885
05-02,7.188870952855514,-4.231299439633399,-5.626967276776116,-17.88565520699198,7.683411508679017,13.05204698854194,-11.013069077167922,0.24102743979945487,-3.305973722385284,1.3530642487281976,-4.868869162745943,11.089971562110195,6.0,6.0,-0.5269534320821939
05-03,5.521310274718238,-2.8995985235089314,-5.132690423178095,-16.192020097488356,7.012674076138301,12.95386517972203,-11.398787300829365,2.1955423755290786,-3.1822802443980134,1.8942899482194648,-5.0988597190805525,10.476915345575339,6.0,6.0,-0.3208032590484051
05-04,2.4641208770436207,0.13588325637128146,-3.314859474744332,-11.465172492082868,4.326707408504314,12.961500427535135,-10.335254628496433,3.7603178210953305,0.3710804339618125,2.4419255909096926,-7.126922420244278,14.395598929145978,8.0,4.0,0.7179104774166044
05-05,3.0580175614601113,4.728690324816343,-1.4387048585825206,-8.412662773970185,5.467637302491498,11.691431142456866,-6.200858774005447,1.4313443355541622,-4.411760452090691,0.2539857372151347,-6.750902726872483,12.252287273746763,7.0,5.0,0.9723753410182959
05-06,-5.843001746480375,7.265147828072593,-5.737626017158756,-10.598535765171544,6.650868814085189,8.728204669896327,-6.807465082577357,1.8707907137575455,-3.5811182993172084,2.340939197940141,-3.3295523334109074,12.652437971735331,6.0,6.0,0.30092416261424804
05-07,-0.3685960997493601,8.377250068349849,-8.87041534946134,-9.192287624127749,-0.07375625504582294,7.706535079658767,-5.032580909766337,2.7815552194056936,-4.110369886596878,2.7246347723921227,-3.5307357016843963,7.945880726598058,5.0,7.0,-0.1369071633356164
05-08,-6.615817438849238,3.3841438174770735,-10.327054520680838,-11.889385767263903,-1.7036637074885892,10.401618340112813,-5.280939725633873,5.469410888601122,-4.371091672148785,3.466465192221071,-6.068806723987961,2.796144972044532,5.0,7.0,-1.7282480287997146
05-09,-5.449092230783953,3.7248013053499993,-8.934335096677305,-13.083705308035753,-0.3613876439254173,11.675305627080201,-3.7838496593479967,7.384293960711361,-5.188242080540728,1.3731888013545992,-6.305692319992534,4.703631205274406,5.0,7.0,-1.1870902866277604
05-10,-9.262003095851647,-0.03757718804520689,-9.384253483216987,-14.600817019968721,-1.9772472931347336,12.154605491831768,-4.007718785096904,4.629180846678461,-8.516985692170929,0.4019118778422857,-3.8819061456797943,4.921781965810648,4.0,8.0,-2.4634190434168137
05-11,-9.57051917637915,1.9655546107280413,-5.279264157142359,-20.52497607653814,-2.5000076059918364,11.728135459470053,-3.17603296063382,3.9234435875165943,-8.218544314721973,-0.6946871342953393,-1.2233379017191464,4.994279408327791,4.0,8.0,-2.3813296884482735
05-12,-8.808675478398285,-1.4414086187881783,-4.124729086469184,-15.316135298191158,-4.905423295155822,8.299413848897345,-5.739198023991916,3.7081322137592116,-7.994063532521821,-0.14344626266218505,-3.246469214516053,-1.5730346185135389,2.0,10.0,-3.440419780545966
05-13,-4.456328005941226,-1.1606191835147945,-5.271564083712507,-19.010599646136285,-2.696895835751409,9.351834845764506,-3.6902900966413044,6.923075117303069,-7.905231084442075,-1.5834960584836217,-3.842735505654556,1.5321756655984216,3.0,9.0,-2.6508894893009813
05-14,-6.0011897412975665,-1.4341715771306356,-6.5431978475898935,-20.343022888638192,-3.655663134096107,10.446470839397163,-2.705464249626476,0.4564460009020494,-8.399134933687387,0.8355614951955788,-1.3427866034743947,2.839630986687978,4.0,8.0,-2.9872101377798237
05-15,0.5536897400925421,5.96647430788506,-4.355621486528146,-15.723778373617478,-2.1539599593654257,11.446301640701288,-3.2173412957575436,-2.672103577262986,-7.647731087424538,2.985553892625676,-1.3642757787326336,6.012220115478625,5.0,7.0,-0.8475476551587969
05-16,-5.165786884668305,2.0773997818725523,-2.2361031190745733,-15.420498161265265,-1.0390557859450646,11.193899128324144,-4.2471106028313335,1.2966330991972477,-5.403286193409358,1.9607845551455998,-2.245143462783076,-7.5471706969904195,4.0,8.0,-2.2312865285356542
05-17,-6.1081302616588395,-2.9828467247451402,-2.434531690958753,-13.542508487511974,-3.236398497019114,11.688530485306973,-6.434786146965562,2.2411345779803833,-4.414738770361317,-1.791334798060522,-0.9879448775213404,-5.619329335520478,2.0,10.0,-2.80190704391964
05-18,-4.608370093042221,-4.544061671751751,-3.4141652032560414,-13.092993678962706,-2.984514089582839,12.459350917805855,-4.854368762828564,3.631350300384542,-2.999332620787951,-1.8542517534634362,-0.558175850821593,-3.5136178141694105,2.0,10.0,-2.19442919337301
05-19,-6.036511461503121,-3.923961067984892,-2.803103232221545,-11.197421229105526,-0.2217153626271205,12.226511906371918,-3.095372918343102,4.026846251246269,-4.233330620659738,-2.42706472366761,-0.6337995386138023,0.0,2.0,10.0,-1.5265768330923557
05-20,-6.654894573491918,2.1144675947739295,-3.6372454466536968,-11.197421229105526,-0.2217153626271205,12.578295391034105,-3.3238103155684784,3.020139260219402,-3.455556233723958,-2.42706472366761,-0.6337995386138023,-3.9281517656152265,3.0,9.0,-1.4805630785866584
05-21,-2.6943490582887106,-2.2567790274720867,0.2869469564809872,-12.660213849503787,2.610970391664372,10.630629828594893,-4.500279468502654,2.5773214733529994,-2.861250622332567,-4.125813202131031,-9.216537140060893,-3.2767466490565096,4.0,8.0,-2.123841697271249
05-22,-3.207042805067948,1.7359721325358557,-1.1350389485468846,-6.786808391642577,5.040623702427527,11.04247310990346,-5.23493723784242,4.14012996788059,-0.8011235701699695,-1.0863365414844939,-6.110103075249045,-4.85358632033971,4.0,8.0,-0.6046481647996347
05-23,-7.846789697526489,0.9965382998102349,-0.9783050727715086,-7.176728424909921,4.69974670499587,10.548052810926043,-4.0621027562891525,1.8003932512125584,-2.4695411430505674,-0.44923878982834636,-1.4732765549292024,-1.8210573250379385,4.0,8.0,-0.6860257247832017
05-24,-10.601940702076035,2.4937385095853393,-3.705877618002551,-6.21772743579819,5.31914259249687,10.295500336673582,-4.771424800473706,0.3262497166402751,-2.6245792215855075,2.0011410129340765,0.04586386184915882,-2.043242972455087,6.0,6.0,-0.7902630600176478
05-25,-14.344659209892951,4.903664564197665,-4.820573449691239,-10.597826086956522,6.609686027578415,9.504881777350239,-2.8021220836833365,-0.3866598436011036,-0.7973350686333033,4.431098060689895,1.6484126560948542,-6.92163370216403,5.0,7.0,-1.1310888632259515
05-26,-12.14181015010833,3.911372898480371,-4.849913832673877,-15.688439228219064,6.182026137118829,9.699947986186572,-5.515450088687538,0.5558229490079714,-2.9222656522030688,6.5460389943973185,3.372158473735207,-8.431703448127797,6.0,6.0,-1.6068512467577838
05-27,-10.522901306674264,-2.610789021963101,-4.442296802079159,-14.613622318026742,7.804813674758838,10.149274579139664,-5.337912475157512,0.04901472274008287,-1.334238209635466,7.864900011861755,2.2882791706236394,-11.15092974001279,5.0,7.0,-1.8213673095354215
05-28,-17.548972109851164,1.299194941586506,-7.083988766105606,-17.358704422051794,7.837217136733954,9.754628822355563,-5.515450088687538,1.4296102399894701,0.0,8.474444382753928,3.915732305713007,-8.853290228754005,6.0,6.0,-1.9707981488598065
05-29,-16.879597077315616,4.489909896250496,-10.231286773915887,-14.127126409389124,6.635272480436372,8.48490013452242,-3.9742078175442437,1.8576609013048104,1.1144152459938788,6.778440822559603,4.665787763145095,-14.95264105841074,7.0,5.0,-2.1782059910302447
05-30,-22.752001953125,4.462762027302302,-10.3650521420399,-9.915107621547842,6.7336764907296125,7.967985478134955,-4.991721285784897,4.439744898279219,1.0489090774463994,3.9306925893892433,7.39025403374976,-14.118941920647949,7.0,5.0,-2.1807333606761747
05-31,-20.1942644835977,5.598722838897712,-10.30927501167464,-8.075757531723063,10.066176691777676,7.276730454401107,-5.403162452470303,2.958010300411063,0.28707313360553405,5.4949509885163605,9.863495646944799,-15.261402656098571,7.0,5.0,-1.4748918400841688
06-01,-18.63306539808169,5.448234801056954,-9.349100234233356,-0.6809391503645257,8.955846943945488,8.91175120616841,-4.141732535799207,3.6855873960649648,0.1876981003843675,4.664089692278627,8.745879476551362,-9.581224007936633,7.0,5.0,-0.14891447583043638
06-02,-14.635973580353689,-1.0408857996104888,-12.09824229364854,2.7224779629705496,8.213734037614607,7.1050819944678825,-7.831827799479167,3.995704461412406,2.320005783747684,5.787552372589686,6.535214706205986,-15.486730785089806,7.0,5.0,-1.2011574115977408
06-03,-9.16064384833616,-2.897603136694226,-14.321164931481015,3.0458991880717132,8.861370901311437,8.915452560248275,-6.9189214849615235,5.813539322484862,2.906286838485148,4.766874578534272,4.655175921560704,-16.666666666666682,7.0,5.0,-0.9167000631202663
06-04,-10.123338429159594,3.0134706696164018,-7.777443351426536,5.081894630881583,9.37392717362928,9.163104925155366,-4.9609576617633255,3.3650438554116313,2.9379809932608123,4.5447245332595765,1.0682047611575973,-16.20312387220875,8.0,4.0,-0.04304264768216296
06-05,-6.151627633545783,1.114586823674456,-7.4271091064327015,4.994823530599855,11.86998377648485,7.856530374144601,-8.83494981126971,2.3783824107310436,2.7262814429656714,5.664346897785006,3.709359750614901,-24.02760717648106,8.0,4.0,-0.5105832267274059
06-06,-5.906022167892757,0.8528602375874491,-4.835142591867371,1.8407433665686708,10.416239628800113,5.391608128424715,-10.695652932113742,0.9385717502048471,3.689954212306064,6.0203935354989095,1.0799457353844126,-31.700595443831048,8.0,4.0,-1.9089247117441446
06-07,-1.9363676865714008,2.8900644187533224,-4.08439032162662,1.2926577450349368,9.74150158110121,5.627368776091659,-14.346208470928563,-4.031174685165525,6.531646900836489,4.5719383736561054,0.9715577994729351,-30.209642802789993,7.0,5.0,-1.9150873643446202
06-08,-1.5291371626260337,-2.8705355340434733,-4.941725270648385,4.447839945630581,11.468354921470143,5.716744987014909,-15.233413294148127,-3.9581049517009435,6.574061190480057,3.856525242455664,2.113975124001765,-23.185249634948136,6.0,6.0,-1.461722036421832
06-09,-4.551820631015026,-1.357156233644527,-6.714190718258147,7.356649002116286,11.953983356294499,6.040326667688696,-17.085031706758507,-3.0081612499607426,3.822337914879877,3.547197704958359,2.304784035467718,-18.489744666093163,6.0,6.0,-1.3484022103603897
06-10,-5.392154610424852,-6.199959566145035,-1.9988638301931931,5.421807416179874,11.450487313205844,6.261314961549058,-18.819829167330106,-0.08589973820006766,3.2612273052004035,3.947581352781178,2.7286214060663747,-10.838817673350787,6.0,6.0,-0.8553737358884422
06-11,-7.969180238671819,-6.4534921114867485,1.745332284580927,3.7382195757321663,10.383845320560589,4.5278138319775,-19.13524232979601,-0.5062929312409561,3.6759194029792317,6.057952908744559,1.3458032630801957,-1.9127374485701805,7.0,5.0,-0.3751715393425455
06-12,-5.1619093808582095,-6.4692612124809825,1.412296406110498,1.5884671686487768,10.022906717086581,3.7257436899740584,-17.308699079264432,-3.3523801773313497,5.259834877936541,7.719273473431784,3.0223557443606395,-7.615151150258158,7.0,5.0,-0.5963769102203546
06-13,-2.088629679477574,-5.042417726558149,1.745332284580927,3.12467908546135,7.454712950069118,1.8760760433985304,-18.706754754566166,-1.1684306737898376,4.422166165072544,7.8906406741917055,1.357210808923781,-6.464107075376519,7.0,5.0,-0.46662682483919077
06-14,-2.624491074224867,-8.343277240793272,-0.9224551621867647,1.2854042486693156,10.605951103950698,0.6880342428384059,-21.90189676811395,-4.011036132614142,6.142479888996537,8.451476624743627,0.35100391654743973,-7.516469538629803,6.0,6.0,-1.4829396575680647
06-15,-3.8262492717585057,-9.745428887911006,1.1530671199779523,0.8006557113090935,8.51516618248753,-0.5644231352794805,-16.09629537045154,-3.334173605928474,8.137202199971142,11.392208781346621,-1.3999291640278169,-10.450599912989073,5.0,7.0,-1.2848999461044628
06-16,-4.174892836063254,-9.775260610290866,2.363792727670202,6.217204877223083,7.864006879160751,0.18382273144215622,-15.873429774090814,-0.501380711956977,7.772459317514992,9.701890624900301,-1.8470008169416199,-12.577316441486792,6.0,6.0,-0.8871753360765698
06-17,-3.314525280035898,-9.447096490296342,1.140868511741397,4.851340217056141,7.473979053633212,1.0912592570112187,-14.509903639390092,-1.2390461137211364,7.702786224233203,10.223242320153597,0.685563972377442,-8.206184623167687,7.0,5.0,-0.2956430492004121
06-18,-1.692520341913084,-9.5844096382508,1.0784298765893077,3.3465959675603085,7.196371451917407,0.07920121452603814,-14.239773603059689,-1.8237522017387549,7.4311538156194885,9.554831287073004,-2.8538201761008257,-9.134021247785116,6.0,6.0,-0.8868094662968932
06-19,4.087796014483919,-13.44615447215545,0.708523126592177,4.4798408528759515,6.804597416651135,-1.9097120925738391,-12.388586216091378,-5.7052168580348965,6.764767575250619,6.761167384250201,-3.261506233575362,-12.279942424116355,6.0,6.0,-1.6153688272036064
06-20,8.847758382234405,-7.901666476756709,-1.7034597893376575,7.476351154799456,9.966320333035723,-7.803363235577085,-14.1080438466301,-4.130683536073982,4.841855757668215,4.889702480346122,-6.523003580261204,-11.889007206480409,5.0,7.0,-1.5031032969194353
06-21,11.963467692625269,-8.761065810694085,-4.296794182723151,13.907410667724326,14.250024583436183,-8.672716278397761,-15.227628228519322,-3.0836479675032447,5.63257903534603,7.143426967032837,-13.938575421604765,-13.04722746693975,5.0,7.0,-1.177562200851453
06-22,12.87281340756058,-3.3495116002351333,-3.4292639986108555,8.84311252300944,16.741812273119862,-5.008502124848845,-14.777175244930513,-1.4932568732858291,5.015161686225116,5.892160844091043,-9.822942716532664,-8.171686255234583,5.0,7.0,0.27606016002730166
06-23,13.752878991558672,-3.7281517843598304,-2.224944101332808,20.468382645546694,17.362816373954164,-8.082487922934348,-16.69076776037704,-2.585889501510735,1.2485945908881002,4.558452466399128,-14.632908302017423,-3.3694563240840516,5.0,7.0,0.5063766143108767
06-24,13.714428875450471,-1.5436857649423545,-6.664495357314973,19.708716435515644,16.845057664120613,-5.9827431450991515,-16.099356800599363,3.7749292329261275,3.3830819920809647,5.706214372683049,-15.687275128758236,3.546796526227679,7.0,5.0,1.725139075190872
06-25,12.035375280271717,-7.165166109878755,-4.5975852234087515,21.923852130066805,16.68800865478665,-8.795946462025661,-15.19254270515943,12.832749394708776,2.542655097417509,6.107850562952192,-16.105734844953588,0.0394097689924569,7.0,5.0,1.6927437953141602
06-26,13.628232543785623,-6.205919705966262,-13.239281669242665,22.187212328875123,15.599791913173956,-8.23330722950956,-13.36250928506543,13.313486473267497,4.125070842881934,2.5168986090911787,-20.038675273502225,4.185500282298095,7.0,5.0,1.2063749858406057
06-27,10.397436000837569,-5.483285565008776,-10.422629492723358,20.546800607438385,16.137502571294448,-9.221194610997248,-16.933293793431872,13.044922852198315,2.600994481249718,-0.9448592439746455,-18.77497999436084,-1.720959084110018,5.0,7.0,-0.06446210596569356
06-28,12.125981934153716,-4.687191026558931,-17.726182523292263,21.07506723094488,16.963052619920983,-8.424570359893933,-13.085097412077651,8.577497568781014,1.4720551782141305,-0.5946105537951252,-15.928326225160557,1.6052270576497223,6.0,6.0,0.11440862407383222
06-29,9.219092807506414,-3.1806446622314493,-18.5193711989516,17.64007166233351,14.813648527945642,-7.903967975423642,-11.578262089135407,6.687537295897481,0.3873807194599385,-1.73330290973672,-17.286119587414817,-0.4654054339445865,5.0,7.0,-0.9932785703079362
06-30,8.451279237270375,-1.2557912522298356,-20.1862347617114,19.138099673785977,14.770721692883681,-9.532287877236346,-9.53334507380029,6.709908435318825,-1.5709087223272873,0.3013725888281972,-19.46868393920375,-3.1982067426036718,5.0,7.0,-1.281173061752127
07-01,9.637419181278291,-1.9866189139087826,-10.672109197491556,18.62763041343218,14.490651629534263,-9.590977643613925,-7.306388484415486,6.0921578138758985,-4.337517248653992,-0.7407419966081532,-18.555782371025867,-1.5685484933189178,4.0,8.0,-0.49256877590967046
07-02,13.42498821500762,-3.1249954996493323,-9.654802114253904,19.401899708893815,11.841425662669527,-9.290084649335158,-7.181280923125236,9.254380586001112,-4.977844060860025,0.5444041363506151,-16.715544490345337,-2.913017520331777,5.0,7.0,0.050794087585159686
07-03,17.123195287766094,-6.031645338874913,-7.217776386085248,13.594973908818384,11.649617603413928,-9.779033074842603,-6.789653629511126,8.602982499155317,-6.148019202367917,-6.055091576524742,-16.235671621163018,-6.305360172757044,4.0,8.0,-1.1326234752477404
07-05,12.820149971134901,-4.928535762424705,-9.829784961456964,16.22655230772512,10.339103914704351,-9.086631493831042,-6.3491989326667095,8.268675441738724,-6.260295933949432,-6.7394305394664,-18.187879382676734,-8.315425130543135,4.0,8.0,-1.8368917084760021
07-06,13.41075697135513,-6.963042427688908,-8.797868769219582,18.33498411190073,10.11641290797927,-9.769518184523958,-5.820162246785901,8.268675441738724,-4.295120913509082,-7.281506811625378,-18.74341899385649,-8.759442301940664,4.0,8.0,-1.691604268014676
07-07,17.935516009894855,-11.194434652865796,-10.159577714635956,17.717424359279082,8.468143118625015,-8.1285664550709,-12.521086757610265,9.543339053265045,-6.068608005118228,-9.89805780484689,-15.859149665173405,-5.481254037590617,4.0,8.0,-2.137192712654005
07-08,16.323488603191375,-13.786826949065148,-16.30720228622395,16.500868742731885,9.610659086548976,-8.109624046076764,-9.62760892477805,10.018534945045989,-6.576295218839968,-9.89805780484689,-17.55117832308918,-4.012273606376759,4.0,8.0,-2.784626315148207
07-09,15.172041193769767,-15.351839561963365,-13.063837480043283,15.886732842331464,6.335613375398176,-8.650259959816259,-10.678608264593382,9.655623805672622,-7.0856734761449465,-9.21291850935805,-15.449365600343038,2.784478054743623,5.0,7.0,-2.4715011316955557
07-10,15.035342476437673,-15.445201301019596,-14.661266804658412,17.95978746697385,6.302681965385139,-7.158837054962648,-10.178544528745952,9.070962826763953,-6.3865206781140795,-8.225367840931415,-17.404820291304148,-2.94785282707136,4.0,8.0,-2.8366363826039165
07-11,15.780444570521668,-15.05504966009564,-11.284703582976958,15.636769659403004,5.459690125179555,-6.026680602049551,-12.489979158279871,9.110840524071907,-6.485720365974264,-6.256396169773408,-17.63791103584689,-3.5953016714335,4.0,8.0,-2.7369997806044957
07-12,15.8248710407991,-19.10619590177273,-9.975535368506042,16.398861454234996,6.275898682427231,-8.86421953129368,-21.585325566170784,6.161141585428992,-6.415226231132913,-5.813160341429063,-20.381405051323867,-1.3985989313684961,4.0,8.0,-4.073241180008938
07-13,14.218520777256963,-22.1243982125269,-10.031143745703602,13.157650266308702,8.35142525784646,-7.179914605066812,-23.18607128818687,7.593967556616908,-7.872161790852237,-8.213056214151596,-23.693379790940767,-1.2843616068178547,4.0,8.0,-5.0219102830181335
07-14,12.584488734165115,-21.930025732850634,-7.551157755552905,14.388031651303255,8.637265146394926,-5.749543718278112,-20.05917160399239,6.723251270605692,-8.567714210211197,-6.0871799605046,-22.837370242214533,-9.292650517193094,4.0,8.0,-4.9784814115273734
07-15,10.137874641360186,-21.41550829293213,-14.649898019737398,14.591921381663303,8.157911925082457,-4.4471059791102965,-17.270041562414928,6.8144061228575135,-8.744526331611882,-5.023176576338023,-23.848723785269712,-9.708740004386108,4.0,8.0,-5.450467206736419
07-16,6.393624144774098,-18.07896044350192,-12.988312039099862,14.317222821859374,9.344041469915279,-7.816957753483663,-16.072691936130607,7.684631050924981,-10.19184633631267,-5.628549055641742,-19.950367384858517,-10.540918978772169,4.0,8.0,-5.294090370027285
07-17,4.618973120709988,-14.105145855843515,-10.890216558127335,11.85562686365871,8.547600845941258,-6.389837402086146,-6.214538893754919,8.65701057986245,-10.523150738941025,-4.664085681480033,-17.45485161337556,-4.916571850861379,4.0,8.0,-3.4565989320247925
07-18,1.2969241614227816,-16.502975080563445,-10.108459873438106,10.50440146501316,7.813875698767059,-6.840990943211202,-0.8019696884767421,7.571888217976894,-9.59722595318196,-4.041086968418494,-17.785746233269084,-3.2244139969426286,4.0,8.0,-3.4763149328601473
07-19,-0.41667090521918404,-17.428339945855612,-12.35554908076463,9.06987762606858,6.766592305670296,-7.159334052890097,0.48524743361617917,7.288955931688422,-12.716624384482847,-3.0392327390567195,-20.00551824133249,-5.205118223222723,4.0,8.0,-4.559642856315069
07-20,-2.3789298213487995,-15.79942038997621,-12.117941099984227,8.162887039067712,4.837985245336351,-5.706229003628698,-2.512501639637446,7.209851291035155,-11.939770182607607,-3.005556264954654,-17.091830227950688,-5.5076348792096885,3.0,9.0,-4.654090827821567
07-21,-3.818647366800392,-13.875912151180408,-14.007994096221193,8.206631874110451,4.813751933581471,-7.8358578712707,0.48899402637349476,7.9104985523635225,-11.043391532657584,-3.32183737834738,-17.549529875469858,-15.377568166325686,4.0,8.0,-5.4509051709870215
07-22,-2.116709662030471,-14.743155600284188,-15.098826989814398,10.249312826160118,5.642862839053718,-8.177097979088492,2.084677346117388,8.486828667797669,-9.789386873688786,-3.9160933113061973,-17.644681391717707,-14.851253433554811,4.0,8.0,-4.9894602968630135
07-23,-5.5635004169324755,-13.775849514480731,-16.17808052040784,11.086720435799503,7.406714931827346,-7.620196071336213,1.7887008184589919,11.067196740839945,-8.943369406012692,-4.401767753010411,-15.905778340091292,-11.784891581853667,4.0,8.0,-4.402008389766628
07-24,-6.822088669017629,-15.901222143949411,-20.215054803405568,12.014004795960794,10.25352991979274,-7.852236172465702,3.281425109259587,11.42728966778712,-8.664253608991382,-6.5569627593130315,-16.02487846930741,-12.219679769700532,4.0,8.0,-4.773343908612535
07-25,-6.508028636039066,-14.823424242470312,-22.136614768476036,11.83895187555946,8.197846983231015,-9.76006024749257,5.500315913095234,16.956660888504643,-7.990898570736923,-8.898130076744371,-13.100438753286056,-12.589845051476336,4.0,8.0,-4.44280539052761
07-26,-5.434939356762045,-16.920304690723125,-17.536122032618167,10.245073385650988,9.719375515384694,-7.805665583429983,4.812065258957865,14.705261653370366,-7.854298970661351,-9.30528567096283,-11.494712456086829,-12.563750719345466,4.0,8.0,-4.119441972268823
07-27,-0.8962570173542825,-11.399137363674344,-14.778870405302863,10.141447517558953,10.51817609351981,-11.813425988480901,5.7558601724404195,15.415607466679438,-9.2544166465836,-11.818176533752705,-9.78544674075949,-18.932155756988024,4.0,8.0,-3.903899600224799
07-28,1.3433637388541557,-11.399137363674344,-14.073014661867282,11.80014176020975,11.573472587232445,-11.923800337738703,0.10399302058667098,15.28837809118081,-7.697516718147858,-13.479507741099395,-4.899997711181641,-12.924031936287813,5.0,7.0,-3.0239714393277666
07-29,4.755508865429966,-11.421297852435655,-14.285714285714285,11.423490919018242,11.492350633720374,-11.989016244903455,-1.0529020608092394,14.387512640706685,-9.63355695776526,-13.628406440912133,-4.769038411478115,-15.862396781729696,4.0,8.0,-3.3819554980727147
07-30,2.0687813877216543,-9.097009067428838,-19.104551230731705,11.447125065950514,13.79000217448022,-11.39103506896256,-2.0928124320353643,15.05666956059382,-8.199703240588136,-11.770773130351966,-6.207576027487288,-11.275683592646473,4.0,8.0,-3.064713800123844
07-31,3.6318679075903733,-11.182218578354117,-18.011847667280094,13.2501334536245,12.958414115608221,-7.283599793727354,1.1145210663559915,15.358147873874575,-7.539276677871738,-10.261672438405057,-5.948413880583355,-23.28946966873972,5.0,7.0,-3.1002845239923147
08-01,-0.9216650503801237,-11.07379035574768,-17.141213540728582,11.090463831113382,9.021828969736385,-4.832139991175769,0.9202839538953176,12.942482721404982,-3.6882553969592466,-7.379850413242564,-0.04936556353196436,-18.745198048242607,4.0,8.0,-2.4880349069882057
08-02,0.5707547449907664,-11.182218578354117,-13.059828016493055,14.922995317221194,8.90529568705559,-10.353333888043242,-0.013086662554666263,9.677781632488646,-1.3391890682080445,-7.687701108330367,-3.488954277923483,-18.381417154744092,4.0,8.0,-2.619075114407906
08-03,4.019533007687671,-11.050442143314983,-11.658123483685007,7.3189792349713745,7.366023543493415,-9.714447591728675,1.0485405289239482,6.87393376080946,2.414925340385317,-4.964843748211132,0.4912449838099999,-20.160660141316807,7.0,5.0,-2.3346113923479517
08-04,6.9446187379132125,-12.469969360792044,-4.991449861444963,10.100326989796576,7.0084500374521355,-6.263064304730297,4.003007855775626,4.759750401049985,1.4491194691045106,-5.160415758617405,7.75338561066248,-18.600093883003254,7.0,5.0,-0.45552783890278636
08-05,6.25976991917682,-11.858484814606065,-6.106190873775804,9.158078627464064,8.100382220059618,-3.2702678317056715,4.816119572097299,0.868601773106596,3.808198890013956,-5.410924417911408,2.7333183788936495,-24.204599221525424,7.0,5.0,-1.2588331482260309
08-06,6.019466459402832,-9.07692542442907,1.7302630042415235,8.750431161534502,10.80970533277778,-1.3784550951502168,2.8271229262057953,0.34076899465095334,3.632460797376228,-3.725412047992681,3.738318896871357,-24.547231104925274,8.0,4.0,-0.0732905082863559
08-07,9.494969561423002,-12.15352009524801,-0.9571516835046416,4.252885307769173,9.063387085356226,-0.82707015590397,7.406479104501056,-0.6774020984773915,3.7152358923168087,-3.5449797795963947,4.636001791950763,-18.499643118805494,6.0,6.0,0.159099317648427
08-08,6.9142482530028735,-13.917700464225133,-1.69880128659331,4.992514030273186,7.689616375428579,-2.667170254170458,-0.013105830784115853,-0.28761297770115374,3.2172422695674565,-2.1636003276506606,1.180520275547612,-23.949890000657803,5.0,7.0,-1.7253116614969108
08-09,6.250002346639594,-11.515286072916151,-8.905669756679654,3.6629356730591143,6.964212316049721,-3.765450035215654,0.3267119850594673,3.3575700410178015,4.06668275498424,-1.7808100376600293,2.7447590332273637,-30.018029628824365,7.0,5.0,-2.384364281771546
08-10,9.318102992741952,-11.443112293102491,-4.267047279841507,3.1351872235226175,5.986854327398848,-6.447813373037582,-1.3958992360057108,4.384087490688622,5.372687982796355,-2.9863246253958295,3.8024713963638117,-31.23536562607614,6.0,6.0,-2.148014251662254
08-11,10.278551322643413,-7.514387859299646,-11.638498200832768,4.080731918401443,5.981289865574279,-7.397864919461601,-5.832423443090138,3.464497412393508,5.708808866967054,-1.7076853600884563,2.7580171723747164,-35.843861236878354,6.0,6.0,-3.138568705108046
08-12,9.7555002218473,-5.53342183070681,-22.67101176010281,3.453755025470303,7.745948117101388,-4.454673075138991,-9.433186340751694,1.5225177117121802,6.9381332377083496,2.008224781570955,0.8146631995133347,-34.936774907387715,7.0,5.0,-3.7325271349303506
08-13,8.076875639939718,-5.018400905419499,-30.61584281212109,2.77530258673263,7.6671717909177355,-4.121792744889449,-9.090908141318028,-0.8913683027942041,8.619797458553546,3.2951284700416315,-2.279536376869249,-30.346335285036442,5.0,7.0,-4.327492385188559
08-14,6.695815622750121,-2.1495990819877875,-25.57381394406165,0.22603978612033762,8.740816057609093,-1.7524974801485602,-9.104556339681963,-1.4452172133701087,9.166929525173195,1.787565164321501,2.279536376869249,-30.886764593532334,6.0,6.0,-3.501312176661575
08-15,8.994180243135494,-3.1123247538527394,-22.49077746839202,0.7052430289855602,8.629949891199441,-5.709441702562172,-9.918946462278415,-2.24707040201464,10.583644763724346,7.876462620288866,2.383736201225215,-24.272363063830323,6.0,6.0,-2.381475592030949
08-16,10.34568975375039,-2.5168855843511126,-27.311886748525442,-0.35262151449279294,9.64611028995158,-3.484494648078456,-15.23837215116069,3.937842682305449,12.67981543011339,7.501391812005297,-1.105342750743838,-24.3055625603752,5.0,7.0,-2.5170263324667856
08-17,12.003923475041582,-1.4282711273117608,-26.53116010441867,1.7756135698086122,10.566387710172553,-3.4946475533624946,-14.088129573298925,3.9804149640392916,14.323882537113924,9.629923903097318,-3.7743319217902638,-28.599067923644096,6.0,6.0,-2.1362885037127444
08-18,13.38761827228522,0.5009605864761622,-17.956651195978676,2.213300570628297,9.800328720181678,-6.473443626962815,-10.453297103492105,2.3733458378753647,13.148113403282846,10.033709400625746,-4.836966153119952,-28.964942251488758,7.0,5.0,-1.435660294973916
08-19,11.603403416992933,2.4515061386050045,-18.69070363741576,4.045890750333142,11.30409070288996,-10.511100119321053,-5.865379758336842,3.4613369909475997,13.489761950109235,11.367679531741732,-8.703542285795535,-26.905960915803345,7.0,5.0,-1.0794181029210772
08-20,11.91474592636841,1.6672077351900134,-21.60258537728435,4.837588782656346,10.292414382887067,-10.769231254002282,-5.39835184125159,5.72846755038055,13.881454848123784,11.715387197641226,-9.871058865913508,-22.70450795551218,7.0,5.0,-0.8590390725597091
08-21,6.489823489422299,4.616819066806905,-26.224227235275276,2.0795869192563083,11.90531689475322,-10.676307826734819,-1.725783850606101,5.139946321958701,13.274608869009066,11.420468217060082,-10.630369404773903,-24.46930186445243,7.0,5.0,-1.5666183669646625
08-22,6.104507398179075,4.168405571338982,-17.227795521464845,1.953545312544859,10.420054914288826,-9.488975186623815,10.121977250819967,4.172799291750968,12.550611167317141,10.016877357633795,-8.180514090004554,-27.348463321429712,8.0,4.0,-0.22808082130410914
08-23,8.09598852530214,5.753620023393779,-15.846351152803454,3.6640255921263236,8.83586010763752,-11.773845689668574,14.122751610852264,6.336001584482215,11.647462895704049,10.722505624615545,-1.2845902161949092,-21.585307032916674,8.0,4.0,1.5573434893775193
08-24,10.345235056246262,10.058867611027559,-17.08332629667416,2.252732496934753,10.01202594317567,-13.513520452619106,16.393040562519595,6.828911567104148,12.156128788422391,9.805726070807204,-1.8753551401487107,-23.17310298314824,8.0,4.0,1.8506136019706136
08-25,12.159125880868142,11.22614487966705,-14.921873214965117,0.6732831120987157,9.095643727452938,-15.308195425297367,18.395603020464392,7.321829384388997,12.470223236630057,9.462038334315443,-3.569377562384461,-20.893495437015076,8.0,4.0,2.17591249468531
08-26,12.66674045981175,12.078759949208614,-14.40030230042659,0.5918790090012545,8.369302193871334,-15.693744025415807,15.256057408896492,7.164915717730937,13.29660109252862,8.611260993221064,-5.121484753588752,-17.84254808066999,8.0,4.0,2.0814531386807444
08-27,13.87085365009026,9.293827373797626,-22.2296411037136,1.692935462537772,8.879437154243028,-14.858294643093412,9.526078604898167,5.495647985884182,13.575127952457091,10.351344122282443,-4.475882035472314,-22.446205077548196,8.0,4.0,0.7229357871969206
08-28,18.32980487668777,11.964610532292552,-15.287745661496608,0.6210048449093892,7.0312484014612915,-14.625636831774411,11.178772121540531,6.321308940287383,13.825167826185394,6.720961427972652,-5.74428145760043,-22.67056365977638,8.0,4.0,1.4720542800574277
08-29,19.642855774383133,12.053033642289588,-14.237588905675953,1.324198126248586,8.413017476170374,-19.486731565193185,10.29782952909421,5.111924524836862,14.216443552988478,6.080495269377287,-8.587268309546788,-20.713521019275696,8.0,4.0,1.1762240079747415
08-30,20.51225596761323,11.47508409997521,-13.897468096500393,3.296804210366724,10.185289658256707,-19.904260145786576,8.973615401888095,6.469369843721787,13.679977400683473,5.977700233750119,-7.662165866637592,-18.660039882106783,8.0,4.0,1.7038469021019997
08-31,19.669750969166355,12.03037696548655,-14.379246236526507,1.39306087024418,11.486682041678598,-28.593596391376636,8.173078471472971,8.110077819821738,12.318170229871225,2.787369933473976,-7.046927441758799,-17.339546761831386,8.0,4.0,0.7174375391435225
09-01,22.769027929724146,8.921516515031632,-12.933911816448166,-0.496415629331775,12.498622107563593,-28.470901466146927,11.377946228866186,8.047767138527128,11.38127245352878,3.6830905129809293,-8.710946765423259,-20.175439574919793,7.0,5.0,0.6576356361627068
09-02,23.534562224285516,9.377217353144763,-10.134626190107541,0.8435376917694162,11.968666110362834,-22.161734514370902,9.407787141134728,6.900519725539922,11.126060540688918,3.9895564998152873,-7.046927441758799,-16.16162148771776,8.0,4.0,1.8035831377321987
09-03,23.709536008672025,8.766791352284518,-3.54845869066404,3.886054380130476,13.089034773784613,-22.195758309221592,9.71089059174147,-0.37044714403622897,11.66546285844165,3.7461162694495536,-8.726894868890904,-14.646470740753958,7.0,5.0,2.0904880400781325
09-04,24.339701865474623,11.3254715387514,-6.817338376986726,5.137103678137539,11.937020850442517,-18.645801046638386,11.76268082601986,-1.1196449833923585,11.883011353823393,2.0476103687117346,-10.838954761763821,-13.287808075857976,7.0,5.0,2.310254436393483
09-05,20.655100391358943,12.454359536697817,-1.092772004289561,5.813950947970837,11.443305380788791,-15.240499806861873,11.245710100446429,-1.8254103165179052,11.162839340711729,1.872815058623902,-10.882954144519173,-9.112784150105387,7.0,5.0,3.041138361192045
09-06,21.950184864235183,10.826300672526349,1.0356249387334546,2.455739547136781,10.844036735835525,-11.17079840500325,8.430602643921278,0.24194796280876224,9.114426706194918,3.862160323973026,-14.48256145650716,-12.821230672612655,9.0,3.0,2.5238694884368513
09-07,21.999791830107508,11.396327755792946,-3.186520239948661,1.6296320231651813,10.958158836370133,-9.325141576835247,8.495344469354366,0.778453484930315,8.338511155206788,3.4415872847117375,-24.14648815810037,-12.54135392737184,8.0,4.0,1.4865252447819042
09-08,20.766088384735575,9.838199993309434,-1.5704987029508746,0.5925516677753928,11.21419954773322,-5.602421067584535,7.304840303602189,-0.38923075540155794,9.377613989772513,2.846943593311964,-18.23824367423319,-16.258550890745934,7.0,5.0,1.6567910324436832
09-09,19.90531473426985,10.737115166896062,2.3127968030267403,-0.2586753313250511,11.612206701999932,-10.03584000694743,8.17617399609442,2.3812054040966415,9.20073974561751,1.660215316280242,-14.992094797941677,-19.191349326459324,8.0,4.0,1.7923173671339938
09-10,17.344525848000544,6.680167914628608,4.976828514166635,-2.033403948169984,8.372563459424995,-10.796136064248351,6.827406665129495,0.9586641700200882,9.322471694057585,-2.879766800888243,-11.342779755061871,-8.200458871599023,7.0,5.0,1.6025069021217064
09-11,16.94915310797934,5.158767617935355,5.456742556859008,-1.5627853700325367,6.3270614158555265,-11.936567720426913,10.081586501414105,0.6836139402610916,8.861943153263129,-9.496892678555795,-12.635524088693565,-5.740587366276424,7.0,5.0,1.0122092557985263
09-12,13.537468403389244,5.304738577377021,1.61105585785754,-2.0596264422278385,5.856308453971031,-8.4796552886039,10.53494084964288,-0.3345259459519092,7.987519691415396,-10.175243182459539,-10.758962470252362,-4.425486328158965,6.0,6.0,0.716544347999883
09-13,11.24799010339472,3.6135760673343666,0.7664129295112702,-4.046976947098039,8.262134619143369,-10.65147160751014,8.346323462542957,1.8884283430601077,5.2522131790071755,-9.873754868285497,-10.30984860788199,-12.138556618166609,7.0,5.0,-0.6369608287456926
09-14,11.155930252014464,3.717632736603033,-0.3774900914741907,-6.251134588174658,9.616222827560714,-15.243699321964849,7.581616534992722,4.004778018069758,4.544984583703661,-9.988794505126714,-18.156726577270405,-13.273557243622108,6.0,6.0,-1.889186447890714
09-15,5.233174567923387,4.365079586390568,-3.4088348425431527,-5.149055767636342,9.110840524071907,-11.377053182633198,8.892559068420255,1.2915155733547008,3.8175784339085186,-10.304057440406794,-20.534828587216595,-18.70194446312096,6.0,6.0,-3.0637522107906414
09-16,1.2341204788909665,4.970762353846612,2.8866789977322194,-3.540298364844683,10.417116159797807,-12.981857966114626,5.72001229125229,0.83932489753249,5.504212553828813,-15.190121384682756,-19.25915931102772,-25.684413164942217,7.0,5.0,-3.7569685382275666
09-17,2.017321722988416,6.140722225758084,7.795753462024138,-2.024721940692272,6.9650071707761665,-12.94964624037468,6.050238469190212,0.8259911616660089,6.510595606364032,-11.40176147827595,-16.66187592141483,-26.699479401161735,7.0,5.0,-2.7859879302627006
09-18,4.636528305374884,8.347260511778376,1.86738025634187,0.5236506322757105,4.735766904124324,-12.724155967996372,10.82787052189004,0.4091961122319228,6.8288770474251885,-13.394722898121303,-16.805510609975656,-19.841029206857428,8.0,4.0,-2.0490740326257035
09-19,0.4653500682964383,8.68116619588159,-2.1891068268958023,2.5066514056942033,5.323576779259149,-13.175017745663704,10.867794987634337,1.2176399361126111,8.95493555589452,-14.078225124942747,-17.222058877839064,-13.346961071261394,7.0,5.0,-1.832854559819155
09-20,0.8417743456516826,10.241451530199466,9.287794756260945,2.5238173799693557,5.341927749631317,-7.038395157513882,11.09562342932377,0.5937990994395,7.928439278291655,-13.16689123672678,-16.866257182484645,-10.412516894821366,8.0,4.0,0.030880591435085297
09-21,2.072290627353163,-1.1055994626372263,13.129946366246681,2.5068449469783713,5.654260452991155,-9.022715598457395,13.487847051206566,-2.8370289557914763,8.211947845044755,-11.759752798765136,-12.621216493260128,-10.822389680143846,6.0,6.0,-0.2587971416028762
09-22,1.488867792525555,-1.940434603504736,20.08538185301976,1.7274287469500633,7.958141049393112,-12.69384053990557,13.010292403357179,-1.8363735695095535,8.159294944620033,-21.143136015893578,-8.739306009838181,-6.687013835157239,6.0,6.0,-0.050891481995263055
09-23,3.622513313874353,-1.1620022409625155,26.30210724749015,3.0819266752533667,6.047958257154706,-4.932359978180408,15.531398306445606,2.5304102788026626,7.85645845404082,-16.58674155405925,-8.26914598100187,-0.94339662583471,7.0,5.0,2.756593846085243
09-24,6.154747728220404,-4.32665041931425,24.586939343987623,7.189706534765751,2.575862243817724,-6.285120719490816,15.276973398850657,2.7668854369157816,9.97569022090079,-15.52221722584044,-9.997199065671548,-1.6925654685229268,7.0,5.0,2.5585876673848955
09-25,10.326021201795609,-2.9793469940909,24.20677899279321,6.316668192545573,2.9778048714962724,-4.4328847074619375,15.8205159154091,4.463232532724614,9.237435913515212,-15.107647854553477,-7.49089696343253,-5.196635865485196,7.0,5.0,3.178420436271295
09-26,11.311567673828407,-2.0008952982853647,24.757141056127967,7.833334604899088,2.575862243817724,-2.940280889989622,18.576283524667677,4.39160073620061,7.150387188292094,-14.805309946682325,-5.138614201954843,-8.270666987315924,7.0,5.0,3.6200341419671234
09-27,13.279225183805254,0.8044329611415234,19.973533621178632,5.666669209798178,0.4953992857236235,-2.3304868143680904,18.671666778228424,5.212461447794992,6.719066436500228,-16.35364015078731,-0.32112055127634137,7.119827955361154,9.0,3.0,4.911419613591689
09-28,12.11888902695099,2.2368966079668517,24.37137496006859,3.2132622433926645,0.9826906110164775,-3.421322585362483,19.808271151742467,-0.5672683052185695,7.1983149663810835,-21.669052504860876,0.6425645878829686,11.258592449901018,9.0,3.0,4.681101100821766
09-29,9.54016688127597,0.06390877753413166,24.890566773976303,0.2881542187681521,1.2656740784897171,-3.1594964522349827,15.830535873400397,-1.7339213756721705,7.673221043323733,-22.72770625667462,-0.5418606441784526,13.648296925623432,8.0,4.0,3.7531283203026344
09-30,7.468141677306976,0.9693183418597712,29.018391157162704,0.49668846655087145,-1.3046035883629958,-1.4965140641744872,12.626016180506422,-4.4046226406469575,7.075924073737681,-27.891363450038583,-1.2689320419680195,14.244813272343078,7.0,5.0,2.9611047820230385
10-01,10.193902435725416,-2.1889252419866225,34.227475957064996,0.9455207750109407,-1.5873876289638205,0.7277563573597372,11.67787253069087,-5.141665857071174,6.969173696248866,-31.435251629474397,1.4185356984421158,16.821759157071156,8.0,4.0,3.552397187509841
10-02,9.115460745537645,-3.9869614853589557,34.075353305236575,-1.5702176867616677,-1.7113146356597326,0.5125051378765195,5.66777420056201,-3.7009066615035717,5.162487413397773,-32.55837708222297,3.8699869645685494,14.028155272210057,7.0,5.0,2.4086621239901858
10-03,6.768359168101182,-3.559451373650071,33.167249653971616,2.0112903731659606,-1.3808546236173016,-0.7511749944341636,1.9452868986274696,-1.6284243634312154,4.79479141780434,-32.94586039413793,2.437686623856878,14.553548982789072,7.0,5.0,2.117703947420487
10-04,8.858938198616762,-5.129047789587272,26.84476921631444,1.7113641769238814,-2.8997455189728525,3.127554207094839,4.882650483484417,0.08401788492866893,4.96250863161812,-32.79289908513391,1.9765035733722631,19.603086414041453,9.0,3.0,2.6024750327250668
10-05,8.301845901328834,-7.940560948769422,23.726287427146076,5.380509472245057,-0.8460712492298487,1.3077344641254935,2.807907612430819,-2.2684268063684865,4.745459283375868,-28.998924870400145,5.062603498577691,19.603086414041453,8.0,4.0,2.5734541832086157
10-06,4.687847794521175,-9.260284622027248,21.99821331692637,5.871259605405904,-2.5575584199638417,2.6415499942898664,2.7128657035739705,-2.0163811639690032,5.166122299126286,-23.412552849151066,2.1049676607255674,20.639464411438876,8.0,4.0,2.381292810908071
10-07,4.541355506322637,-9.304646290364438,22.799418555502825,7.410842989878718,-2.9424042285813687,4.800163869428963,1.620675112252449,-4.440119413166169,5.057063577837765,-22.817144031292454,0.9090900224102623,19.051818479285814,8.0,4.0,2.223842845792917
10-08,-1.0705483440456374,-7.97958791164646,18.836869752256767,7.410842989878718,-2.719870952985981,3.834032545772084,-2.2196116920491495,-4.4444437164053765,4.869876106578053,-22.817144031292454,4.6211411524853885,16.934951628627644,6.0,6.0,1.2713756272644663
10-09,-3.083295399945474,-7.099826311447891,17.289863665003384,5.408857233039606,-2.7558148538078733,6.47818837380541,-5.626136043594535,-1.6933236935170002,4.869876106578053,-29.29855931451724,4.815433441947588,17.17750245410797,6.0,6.0,0.5402304714709997
10-10,-4.753094197213361,-7.63242979307434,17.289863665003384,6.729132387734663,-4.75677122484144,9.664119443293577,-4.114730290322339,-1.6933236935170002,4.800319404898242,-23.554123160012313,4.371348880386824,15.744210870751996,6.0,6.0,1.007876857757324
10-11,-2.7217073231718243,-7.63242979307434,15.62434559147847,6.448040542108116,-5.717328022062204,17.672494697330713,-4.190382823374942,-0.8187324826028108,4.652767250190998,-18.815945702800963,5.5510088812937175,15.744210870751996,6.0,6.0,2.149695140505577
10-12,-2.7217073231718243,-11.510718224516832,14.771537073932109,7.92280401109575,-6.411991803388949,15.869823031147194,-4.190382823374942,-1.0811445837983602,4.928193936410207,-15.264151231297907,6.576237241878155,15.744210870751996,6.0,6.0,2.052725847972216
10-13,-1.2196433251717467,-11.330330775120707,15.540115408042865,7.3451533916118565,-7.015778087300582,15.869823031147194,-0.16443433245485672,-0.24142265669989715,4.892207668536839,-21.71797756639731,7.24972040945111,14.79602935003781,6.0,6.0,2.000288542973548
10-14,-3.263692027158075,-11.623456079715892,8.328782013517213,5.486499307468128,-7.015778087300582,13.334713469856426,-0.7517023657933576,2.5979346835736146,4.377340563971788,-19.53383908763335,7.24972040945111,17.04520353324253,7.0,5.0,1.352643861123296
10-15,-5.183507825751011,-11.403115273690501,10.410475182723042,4.197081816305026,-6.365250866851642,8.858796655022244,-2.3490721333540034,2.2921488859041492,2.6147070910949863,-20.225604084177014,3.6990731840429274,16.03086414041451,7.0,5.0,0.21471639764022635
10-16,-3.4555774225369125,-13.956369677978111,14.834180582723263,2.2432321827078257,-7.73640459455494,5.654332583722025,-4.7527849619544105,-0.3316545999200085,2.634212089228462,-17.818257773259283,5.1870437588351805,17.48621956338328,6.0,6.0,-0.0009856891336360956
10-17,-8.162323562058601,-13.573190366132263,17.123077593417364,0.954018586083985,-7.204493298622894,3.0296571525107616,-3.4016106190162807,-1.4495849226529451,3.03482890722169,-15.775275393801245,7.147833065333775,20.198456792979293,6.0,6.0,0.16011616127188688
10-18,-9.0877567400705,-13.917937389043555,17.081165978018323,1.3751598582762081,-10.430812578457665,-6.964945607133359,-1.6540779676017299,9.159188155595315,3.8208918784981347,-14.24304412336988,10.932959501781019,20.198456792979293,6.0,6.0,0.5224373132893002
10-19,-6.863741642036832,-8.567070106752427,15.297855642939046,3.884732844725218,-11.709095348011363,-6.327377817088864,-0.904217107961239,7.276628295692763,4.716415784845291,-11.56726728647027,4.569813531790827,20.198456792979293,6.0,6.0,0.8337611320542871
10-20,-8.405106937677068,-9.265530664246963,15.808754447262721,4.684579159636688,-11.709095348011363,-2.72425138575319,-4.9591913257011715,7.422935261549004,5.355749973883938,-12.525411622497739,4.421524527387609,19.999999999999986,6.0,6.0,0.6754130071527041
10-21,-6.71719640545036,-7.8249547236261545,11.616108626268439,4.37563745043644,-11.385068940719307,-4.607838329977136,-3.6111775252342744,10.377090927524625,5.772035982924866,-12.525411622497739,1.6283732728483615,22.557882880798893,6.0,6.0,0.8046234661080541
10-22,-5.006316217347959,-3.6756839183971954,11.193443838549642,4.326676635620625,-10.78201907928327,-0.2941139804910394,-6.1093277320280395,9.755152617678828,4.037606836058082,-7.529367628982356,3.442058642457044,18.56670000496289,6.0,6.0,1.4937341682331045
10-23,-2.6479427073406088,-3.9684246911433836,10.80207493229482,7.210240457023348,-6.767185561039171,-1.7429176698600022,-5.482161450201079,10.37717445232288,3.8949457341363987,-6.774289490180953,0.1526725963807975,17.287762770404004,6.0,6.0,1.861829114399754
10-24,0.2411842026055955,-3.263405298460273,13.166171836165208,6.7553943648901855,-8.556206171953118,0.9677435762138777,-3.602934032607629,9.954793067810531,2.4074420784180743,-1.9890455471262651,0.11103654082737152,22.976843483007983,8.0,4.0,3.264084841649295
10-25,0.46980182019683614,-5.123503448287213,15.053870057258594,5.306606289572021,-10.920302954030616,2.5564734929192494,-9.450054754597664,10.489713839853016,2.7412493098739614,-2.930722648891787,-2.6774431464709805,22.976843483007983,7.0,5.0,2.3743776117002833
10-26,-1.8885637658082846,-3.850328816985383,15.150927686401447,3.6076413065576567,-13.984007636640966,-0.27213726854014625,-8.144207923211741,11.001641576302347,1.9623734871827563,-4.3376093452578175,3.9345539058095733,22.976843483007983,6.0,6.0,2.1797605574014525
10-27,-1.2603502986227926,-3.8611771212820405,9.890325693621046,0.7328509770208493,-15.353483541802898,0.8076289493883176,-5.511609908401513,11.388004495838002,1.2535098121724495,1.5152974477131331,4.643670628470205,23.748615226993405,8.0,4.0,2.332773530092347
10-28,1.6571429080199171,-2.971806490082878,5.415877071443586,1.0532620893627278,-14.506309060642458,-5.426891387012307,-8.17811161868834,13.466117613954687,0.8566596429726049,-0.3244536761627663,5.0641281020667055,28.31312146551675,7.0,5.0,2.034894721729019
10-29,-0.175042469612397,-3.784015761403703,13.802409344408886,1.8866381115395094,-18.44362494391228,-7.304984757473762,-9.109466241193417,15.05871229577484,1.6599153447018673,0.02939039814496657,3.8301870637262385,25.09371033366616,7.0,5.0,1.8786523931972425
10-30,5.780540686143762,-5.862258616886192,11.499260163931172,3.519960307432884,-15.403819384599911,-6.256481447051483,-9.810690891539345,14.561091746657679,0.747905872686189,-1.5202557744782539,6.763084968794784,24.498339954728316,7.0,5.0,2.3763897988183
10-31,4.741431361252395,-5.920620647480743,9.208121517588038,3.519960307432884,-14.168693311121213,-9.428968896910405,-14.928562419939237,16.285532468649812,0.0700417181450745,-1.3566785611224759,7.178251964362235,22.49172500868506,7.0,5.0,1.474295042461785
11-01,9.315187770550622,-4.822692957290625,7.824408134374315,3.1969526906127776,-13.020961756576066,-8.046771711509786,-11.982824630933255,12.522786236457934,-2.351409262271018,-2.84806992762536,7.248074077632446,22.49172500868506,6.0,6.0,1.6272003060089204
11-02,10.708062640817579,-8.455387133769813,-3.080393692160271,2.7930175751607247,-15.369137080094248,-9.35083630111489,-11.345402712590158,12.733899587034598,-3.0118015142141843,0.4667931035557296,2.3844157812954005,22.49172500868506,6.0,6.0,0.08041293855046068
11-03,11.04918854179546,1.6422584463244922,-7.3628858486315645,1.832087019340602,-14.849130089530515,-9.184507268053734,-16.688645629534733,11.639955244203955,-4.877559855601993,-6.264984540718538,5.41650753734398,22.77838669002871,6.0,6.0,-0.4057774794194895
11-04,8.58428326697372,2.030627802132538,-7.6662406571425645,3.4388721336950825,-14.913882698186015,0.9436039237556109,-14.076514168026637,11.662813058833718,-8.533734928752853,-10.539444430038387,6.496631488131794,20.529212506823978,7.0,5.0,-0.170314391816668
11-05,5.65855633634684,2.0992171926138274,-3.5728888747603804,5.737573204817343,-10.944441807122878,-5.442175902665198,-14.076514168026637,10.163461245023289,-7.056345875239893,-13.126258969772861,8.16477788889844,21.499449455469822,6.0,6.0,-0.07463252286819078
11-06,2.3559930119263606,2.4108204741094115,-5.859577788012039,0.3838249105937121,-9.037036660276813,-8.591180473437669,-16.330140645228173,9.712024280761119,-5.452034666921607,-15.433424345054084,11.378581195733219,23.748615226993405,6.0,6.0,-0.89279462323443
11-07,0.5917110709207855,2.186748327159719,-3.2663028563543186,2.0008142174783106,-5.913581377194252,-7.67983378895135,-19.51561302232861,9.431953287635855,-2.4628118599725375,-17.390834141908538,7.2589635686217635,11.11355517179597,6.0,6.0,-1.9704359502580997
11-08,2.4184189000780734,2.3895279923021784,-3.7991478359538755,5.455288257785192,-3.4053135065985285,-3.6623905281810267,-21.523135582323178,8.961484317819053,-0.7629910262139774,-12.766180564245316,8.061542217548077,11.11355517179597,6.0,6.0,-0.6266118488489466
11-09,5.492477550952566,-0.37097253925809875,-0.05092997718719347,7.91992111119121,-1.738661643423695,-3.6187697556859946,-22.289078544843484,8.893225231772133,-1.1976027166362284,-17.572993813082906,10.694415165308463,11.11355517179597,5.0,7.0,-0.22711789659143852
11-10,6.740305373998363,-2.4331649649884315,-1.8944801431758689,7.726944116848703,-1.738661643423695,-3.6187697556859946,-24.022353328955983,9.67333544917901,-1.0044436027925323,-12.825944294876532,10.694415165308463,6.968026358844015,5.0,7.0,-0.47789927247670677
11-11,7.6915177470241884,-2.684123342625406,-5.9380747738165685,7.129560233350696,-2.284931358205227,-2.427130224049851,-19.352532027939258,10.862992743184979,1.77715036837386,-16.032543572401387,11.46557672524013,7.585443754032349,6.0,6.0,-0.1839244773192914
11-12,9.113221170747291,0.16268319029185052,-5.5323855493854515,6.524390914600817,0.6894023779806943,-1.1928159452361422,-17.01762684183055,10.13283935474539,2.474093465389075,-22.194061373626162,12.552197768185833,10.71664158583742,8.0,4.0,0.5357150098083391
11-13,11.40254225572533,-1.071627544709755,-5.596825264965612,5.158374426194841,-0.7131892584143029,0.5808579677591819,-11.616226455413857,9.163969995085722,4.524270552922935,-10.70906731999914,13.363557182318228,5.909592933514913,7.0,5.0,1.699685789168207
11-14,9.992048984686749,-2.563246214150106,-4.807589540586567,6.737969753829468,-0.8379910306321153,-4.37001645612893,-15.4862476575098,9.615760212908766,5.435584492868459,-10.203395942266255,13.673785250334452,0.0,5.0,7.0,0.5988884877795101
11-15,9.406586107447497,-2.72282380177684,-6.138529675527634,4.434388526796894,-1.999762245513928,-2.6966518732961027,-20.286570414421494,6.965077938786063,6.459948284026952,-14.158892883006718,12.157797947916364,0.0,5.0,7.0,-0.7149526740474125
11-16,8.804269325398414,0.15352493244906087,-4.406884998351342,4.077940636748028,0.3783396641009844,-2.1414148243993743,-19.27135361284958,6.3256273572595845,6.395349082818077,-18.481806356018545,14.289147631262935,0.0,7.0,5.0,-0.3231050967984797
11-17,9.358309257867473,1.1185483552501831,-0.6014041756298453,2.4829373602419667,0.3783396641009844,-2.1414148243993743,-16.72528855189384,9.158883470963906,6.201551479191454,-19.056197763802917,14.289147631262935,0.0,7.0,5.0,0.3719509919294106
11-18,10.607433399195482,-1.0088805179454174,-1.4516734353412635,0.0,-0.6991324327897551,-5.361382291606811,-19.77775483509818,8.362026436208168,6.463803323278551,-20.783824427679885,13.50891775199643,0.0,4.0,8.0,-0.8450389191485566
11-19,12.440816854791029,-1.31880009206829,2.080572006153315,1.8047854033053046,-0.0297920953579788,-6.073360375573608,-16.26108564282884,5.539100195465572,5.99573811614554,-21.213163850719315,15.950334610333877,0.0,6.0,5.0,-0.09040457252944956
11-20,12.488611115057555,-1.1924256582679065,2.537813364923823,5.077618664134227,0.5481400077566725,-7.2707720766455095,-17.023079647593505,5.3709202642230665,7.19121719203388,-12.967663525937162,13.968486484285641,0.0,7.0,4.0,0.7274055153308988
11-21,9.373075499011772,-0.1624272099159164,5.362242459984609,4.479302152213452,-0.8758348741522617,-10.502876290862966,-16.640766530507285,7.6009297633701385,8.356618243544606,-16.984879468028872,12.464185977963838,0.0,6.0,5.0,0.2057974768850929
11-22,12.153812793441537,-0.3907104544565551,6.506539245234388,3.7920459490894487,-3.108707727066485,-7.93581945398053,-18.49885093742024,8.058295582115363,8.419727703588016,-11.135632126613105,13.251725227907082,0.0,6.0,5.0,0.9260354834865767
11-23,11.064045438103065,3.9315550859131116,9.82379770380675,4.1794189311094065,-2.813566450840476,-14.85924920174337,-17.73848984544193,6.388730526066705,8.356618243544606,-11.926192710854362,13.495707152609167,0.0,7.0,4.0,0.8251979060227228
11-24,10.987133028091096,2.7401697488604664,10.552213778661471,7.273450957003804,-3.15205342901784,-18.228237312677358,-26.47058790196976,7.373093212835744,8.373135233583266,-9.178026953403668,16.870200572670413,0.0,7.0,4.0,0.5950409112198028
11-25,9.821073525104564,3.693278018502583,11.042583074694484,7.413283987820835,-1.402455050819036,-15.607071595321143,-24.079024298805717,7.870989560589205,11.010072814229783,-8.496453917884903,17.661556849327535,0.0,7.0,4.0,1.5773194139531823
11-26,12.314032555916873,4.201682329995069,6.677734986728816,6.0335088614428445,-1.4510122236826142,-12.416347217682544,-21.836002695900742,11.158633177387957,11.436429326902738,-7.349250962280582,17.666582691493968,0.0,7.0,4.0,2.202999235860149
11-27,11.486554382833472,5.346913644499185,6.440248555328532,7.66267803323839,0.20986095819487005,-3.6328882701250578,-25.29788846654879,9.270040510145977,10.643630370686406,-2.7825329558453804,17.162810272830793,0.0,8.0,3.0,3.042452252936533
11-28,12.68046925897127,6.034750828546648,9.410538875171836,6.643664416088065,1.067273529395081,0.18415750204060843,-27.335171824989253,9.603481778180154,10.865106299648374,-4.617394988336326,18.82298546064808,0.0,9.0,2.0,3.6133217612803783
11-29,11.870798449493067,7.763880777010386,4.788208684391236,5.608599869866255,1.1976047904191618,0.25154496113204655,-31.035028591956674,11.894773108405335,10.27586993725044,-6.331282008997455,19.660054928182543,0.0,9.0,2.0,2.995418742099696
11-30,9.358625525610268,9.68626370438448,-0.5524859018518483,6.724818263403355,1.085065394811225,-3.2303817992316435,-32.5969528498069,2.287458604425776,8.651015317025836,-4.227194003135963,17.94366098283974,0.0,7.0,4.0,1.2608244365395278
12-01,9.686989580366907,6.965174900135828,0.6203347882205164,6.678340820723171,-0.942122368090033,-2.562897211082194,-30.980217313506657,0.16202646960742068,8.124273101123034,-11.603176984699846,17.224036840199417,0.0,7.0,4.0,0.28106355191646387
12-02,10.914490144416087,4.700982184832771,0.591257750487352,5.952194433149334,2.1352348595440285,-2.9177174040545193,-26.0090430382516,1.1246667229975775,12.237273243513139,-9.74520177234911,18.000695686232785,0.0,8.0,3.0,1.4154027342098203
12-03,11.149755818018017,4.822824756855164,1.703885916312107,6.282974185629198,2.8645250442174373,-4.627313980896237,-26.211625642470654,0.8636268751913909,12.662052102765397,-9.656156431767874,20.70555629097423,0.0,8.0,3.0,1.7133420779023478
12-04,10.934944975256352,3.556103959972279,0.9025623999539748,6.532665120827357,1.895982458304123,-5.9949877641864875,-25.432445317915224,0.8824369584986707,10.882790726090416,-5.472789729490908,16.935664253858125,0.0,8.0,3.0,1.3019106700973895
12-05,10.948983017279177,6.1642518043009655,1.5522566442374828,5.3043003750434385,2.923218895102812,-3.4305928989239107,-16.748390970566273,0.9670119833134124,11.124810525164166,-3.5066374264529148,18.618863181485747,0.0,8.0,3.0,2.8265062608320086
12-06,9.910194932718081,8.26205309771002,0.4555408032853811,5.5914508914865575,6.057764315123908,-1.9184140593175956,-20.994125717686465,1.3567365127833253,12.9216932323446,-3.5066374264529148,14.733685835880056,0.0,8.0,3.0,2.739161868156246
12-07,10.35439341453538,8.606075657358376,2.2207496500811037,6.397067956257663,7.031161836989493,2.3474644828907745,-24.942609074037595,1.7741961285673118,12.164183658136457,-5.006590182506997,14.375999758019653,0.0,9.0,2.0,2.9435077738576347
12-08,11.502129783498807,9.10883800352951,4.498439185357092,6.585729987110603,6.403886656173239,1.2761663117442454,-28.004645520976247,0.44592145531205274,12.123598330802768,-2.6855082794140834,12.659706636312448,0.0,9.0,2.0,2.826188545787536
12-09,11.045364047961971,9.079257554033033,1.2657040425189896,7.1456719719009145,6.553209606969182,1.5352323565197323,-30.112873621375474,-1.1978272436468647,11.506516871621459,-0.6531380631199072,11.339836596236994,0.0,8.0,3.0,2.292246176635002
12-10,10.028032262525299,10.467640633841905,2.045366940139591,6.932803670408226,7.22688305025075,4.14181573015302,-29.78087338454003,-0.34132986269549465,13.362438496088416,-5.007225318562271,9.928993096173532,0.0,8.0,3.0,2.4170454428152452
12-11,10.912096164971228,10.833665100485696,4.30870784858803,4.825648611676478,9.003032031194325,4.064502173585324,-17.47450884650735,-2.290743057756051,14.112353844388833,-5.695350540934897,10.133588325969912,0.0,8.0,3.0,3.561082637971794
12-12,3.891550816957635,10.842431971609322,3.34768043791191,3.214430570124613,7.780107451304186,4.4156682567711725,-16.419273732913194,-2.0736897372207825,15.35409998647613,-7.621415174081263,7.678418022156739,0.0,8.0,3.0,2.5341674057580392
12-13,4.822577416221264,9.18194207084238,7.780168288118413,5.00200229560685,5.999878232751331,6.002868732986908,-24.792986556149664,-3.955727189597661,15.641089379898391,-6.482346645969785,7.747774441426334,0.0,8.0,3.0,2.245603372177897
12-14,2.952544575929678,10.393036155930863,12.770339576279675,4.800384112766835,3.4978513434611203,7.5706762206659155,-16.401638696456136,-0.2983614572099283,15.894320618749235,-2.9206129470137747,2.42954896566524,0.0,8.0,3.0,3.3906740390640606
12-15,0.6385932912526283,11.888928605634877,11.581308304404347,3.4325820528400905,1.4558917467556953,8.236563077536962,-16.997129421529767,-0.019246046941996997,16.091949244420363,2.916245644951377,-1.6571037089967326,0.0,8.0,3.0,3.13071523252732
12-16,-0.9957767886384521,11.507622979605332,6.749403049951522,2.6006407462997743,4.473146557191258,2.985240974993338,-14.726810052786817,0.3735984212364224,15.157946798838678,1.9266049123813407,-1.1161590866827908,0.0,8.0,3.0,2.4112882093658006
12-17,-0.1515308914095775,11.215498141457324,8.211681546501397,4.703010166916303,3.0367447223493405,-3.450625389534289,-10.94294443821524,-0.5636558041340938,14.299191891507368,2.690405166597759,-4.884213732707196,0.0,6.0,5.0,2.013630114944091
12-18,-1.5735928077763788,10.796839780182951,9.248882432411298,1.8999378813149594,1.609470995881378,-4.937569295644082,-4.079853072729599,-2.252970827516408,13.249973734002085,5.470080421262267,-7.2531234928290385,0.0,6.0,5.0,1.8481729790466197
12-19,-4.722411367983727,14.0332741712831,9.95854508724925,3.063650060110473,-0.4130021012924144,-6.872109694402044,1.084196957845928,-1.8704484068024936,11.799999734629756,6.505775555403842,-8.131488767610103,0.0,6.0,5.0,2.0363317690359644
12-20,0.9000529386542108,14.825850787995392,7.488196591987695,1.5436961312168778,-1.4386319866386175,-6.772996587639077,-1.6789748496096175,-2.138617487237005,9.965216595193613,9.763699730957404,-9.021371662907146,0.0,6.0,5.0,1.9530100168311444
12-21,2.4116215266714933,14.537482887397218,7.289897176079435,1.1281834087350033,-1.4403228908884882,-2.74535344540321,-4.600947244489116,-1.5346564868889092,7.521740457286005,12.036285463034288,-14.36016056154685,0.0,6.0,5.0,1.6869808574989058
12-22,-0.5864194575311937,14.024618813059991,7.148252677762549,4.533444155326396,-3.635457786769987,1.297892255930664,0.5413945997932161,-2.108908171700945,8.075863631836786,16.176022367826043,-16.82779045067517,0.0,7.0,4.0,2.386576052904863
12-23,-2.7674923105590663,14.72398473523462,7.710374206456655,3.550949988177406,0.5694665461145709,-1.2816484813666282,-4.98646513500517,-2.3267472832476446,3.0311070756395324,16.62306007207927,-13.257259090891663,0.0,6.0,5.0,1.7991108602193233
12-24,-3.477371387791618,15.815039535300373,9.240071995638202,4.696483727038991,-0.45972236457016613,1.1976041185104065,-4.601788880454055,-1.5850985094337369,0.13690571360607326,15.749870975184027,-8.773516209071344,0.0,6.0,5.0,2.3282065594964294
12-26,-7.6136115101813715,14.651003056960258,10.906141830949009,6.262046141627982,-0.31643606299750604,2.4638763763684226,-5.114823188263338,-5.504679843327,-3.4316552511843663,7.475569160524666,-8.565864000923646,0.0,5.0,6.0,0.9342972257960925
12-27,-9.117709442204463,13.974798674221558,11.138032881581701,6.200355540263175,2.3607482469787158,1.5241664792968945,-3.010371985104229,-4.483392656657187,-2.439026149393038,7.683509426284288,-9.582175273341376,0.0,6.0,5.0,1.18741131182717
12-28,-5.701289758252138,13.439147668531826,13.44462033182319,8.599833008156638,5.184132519254604,1.688374329038676,-7.470653757375261,-3.576525532973149,-2.524104934540702,5.88235438903512,-10.813720350412403,0.0,6.0,5.0,1.5126806593572002
12-29,-12.499998919226705,12.275127351075595,11.999636812876886,9.371246982416444,3.9322565813602237,0.9762757551126341,-8.055928482457901,-3.1995103007710397,-6.799290067629327,5.718919908678209,-11.79104857698846,0.0,6.0,5.0,0.16064058703721326
12-30,-11.9786944137769,11.736409145174575,12.396616443153796,9.412026223970283,4.223653525140151,0.536480704261901,-7.326340823452751,-1.2924566146492795,-9.223546902250037,7.430209179519792,-10.161784170460196,0.0,6.0,5.0,0.4793810247192776
12-31,-10.26745853051318,12.308129762653671,9.281950024908271,9.925432201482458,4.151678514717093,1.2124434446553867,-7.599939094726372,-2.0701877204055754,-5.972468197171237,8.804766716276733,-11.117014046365629,0.0,6.0,5.0,0.7214444229593013
