,2009,2010,2011,2012,2013,2014,2015,2016,2017,2018,2019,2020,ups,downs,end_day_sum,avg
01-02,-2.6436882019043004,-4.147880554199219,5.780242919921875,5.708328247070305,4.652843475341797,4.76171875,1.0654525756835938,-3.700634002685561,-2.032196044921861,-2.272216796875,6.095298767089844,-8.255790710449219,6.0,6.0,02-16,0.41762320200602127
01-03,-2.885875701904297,-4.184051513671875,5.165702819824226,6.207798004150376,4.422554016113281,4.97467041015625,7.734275817871094,-1.6875572204589986,-2.487129211425753,-3.8253021240234517,6.709022521972656,-9.08050537109375,6.0,6.0,02-17,0.9219668706258132
01-04,-3.0564899444580114,-3.3515357971191406,5.00623703002929,6.1437416076660085,3.67645263671875,5.391510009765625,9.711883544921875,-1.508811950683608,-2.562843322753892,-3.8443527221679688,2.9212646484375,-12.135848999023438,6.0,6.0,02-18,0.5326005617777492
01-05,-6.414796829223633,-2.7777671813964844,4.919868469238267,5.887527465820305,3.4644088745117188,6.082099914550781,9.310745239257812,0.8252105712890483,-3.0927276611327983,-5.006782531738281,2.557312011718764,-12.875694274902344,7.0,5.0,02-19,0.23995033899942975
01-06,-6.445833206176758,-2.9268646240234375,4.697181701660149,5.759422302246087,1.5550804138183594,7.453941345214844,10.509559631347656,3.461505889892578,-4.067390441894517,-4.6338729858398295,5.719230651855469,-13.255355834960938,7.0,5.0,02-20,0.6522170702616386
01-07,-5.3480739593505895,-2.5067100524902344,4.0427284240722585,7.15226745605468,2.5743179321289062,5.652519226074219,11.002975463867188,5.206516265869141,-2.5447769165039062,-4.681602478027358,5.200248718261719,-11.402984619140625,7.0,5.0,02-21,1.1956187884012832
01-08,-5.769250869750973,-2.0629501342773438,4.289024353027337,5.653850555419922,1.5769424438476634,5.684928894042969,8.023841857910156,3.8709030151367188,-3.6252212524414062,-4.376258850097656,3.3379592895507812,-9.510978698730469,7.0,5.0,02-22,0.5910658836364749
01-09,-4.752849578857418,-1.5161247253417969,6.414844512939453,6.249549865722656,1.3512687683105398,5.583061218261719,6.075294494628906,5.841716766357422,-3.2082061767578125,-5.474960327148423,-0.1813201904296875,-10.393913269042969,6.0,6.0,02-23,0.49903011322021573
01-10,-3.7408561706542898,-2.660816192626953,6.1553955078125,4.721443176269538,0.6742324829101491,6.213325500488281,6.284393310546875,8.193431854248047,-5.4065017700195455,-5.760810852050753,-0.11418914794921875,-9.728599548339844,6.0,6.0,02-24,0.40253734588623225
01-11,-5.59511566162109,-3.6562156677246094,8.10953140258789,5.796623229980469,-0.6542816162109446,6.823341369628906,7.077293395996094,4.251922607421882,-6.84479522705081,-8.743080139160142,-1.2530822753906392,-10.733711242675781,5.0,7.0,02-25,-0.45179748535156455
01-12,-4.540029525756836,-1.1741104125976562,7.237808227539055,5.397953033447273,0.39200592041014914,7.935676574707031,6.778778076171875,6.366607666015625,-7.430503845214858,-8.055297851562514,-2.652732849121108,-14.919708251953125,6.0,6.0,02-26,-0.3886294364929241
01-13,-6.696401596069336,-2.2984695434570312,7.524589538574219,6.167789459228523,-1.2544631958007884,9.604179382324219,7.5913848876953125,5.032695770263665,-7.411560058593736,-4.351127624511733,-3.4023818969726705,-17.762290954589844,5.0,7.0,02-27,-0.6046713193257668
01-14,-5.100318908691406,-2.40704345703125,4.365447998046882,6.337329864501953,-0.45659637451173296,8.355461120605469,4.934669494628906,4.007339477539055,-8.700515747070312,-3.7213668823242045,-4.209686279296889,-22.23772430419922,5.0,7.0,02-28,-1.5694169998168956
01-15,-5.383176803588871,-1.651458740234375,4.0377044677734375,5.452949523925781,0.8393783569335866,7.452629089355469,6.063385009765625,5.202022552490234,-7.174606323242202,-6.1545562744140625,-3.2003555297851562,-22.635520935058594,6.0,6.0,02-29,-1.4293004671732605
01-16,-5.531333923339844,-1.4930992126464915,4.292613983154297,5.906593322753906,0.7148551940917898,7.573127746582031,-0.16790008544921875,6.133331298828125,-8.046546936035156,-11.42169189453125,-3.4886932373046875,-23.188461303710938,5.0,7.0,03-01,-2.393100420633953
01-17,-4.799505233764645,-1.2216339111328125,2.2988014221191406,4.646465301513672,0.41046905517577414,8.578826904296875,0.36382293701171875,3.5369987487792898,-5.146392822265639,-11.555259704589844,-3.8539047241210938,-24.63896560668946,6.0,6.0,03-02,-2.6150231361389187
01-18,-6.79742431640625,-1.14019775390625,2.6447715759277344,3.8903770446777344,-0.4980812072753835,9.357475280761719,-0.25185394287109375,3.800403594970703,-5.070579528808608,-12.232742309570327,-6.7755584716796875,-20.229068756103516,4.0,8.0,03-03,-2.7752065658569354
01-19,-5.697446823120117,-0.6922569274902273,3.300262451171875,4.0232696533203125,-1.6141815185546875,9.297248840332031,0.9701614379882812,5.662982940673835,-4.871528625488281,-12.585807800292969,-0.4228668212890909,-20.61846160888672,5.0,7.0,03-04,-1.937385400136313
01-20,-4.323591232299805,-0.2307434082031179,3.3366928100585938,6.300666809082031,-2.1722412109375,10.349311828613281,1.0821151733398438,6.3590965270996165,-6.6343841552734375,-14.665946960449219,-0.04804992675782671,-21.037059783935547,5.0,7.0,03-05,-1.8070111274719238
01-21,-6.384380340576172,-0.34840011596678977,4.26531982421875,3.8033027648925852,-0.8301467895507812,9.853401184082031,-0.04663848876953125,3.0572662353515696,-4.634574890136719,-14.322433471679688,-1.3070602416992472,-19.430805206298828,4.0,8.0,03-06,-2.193762461344402
01-22,-5.666021347045895,0.5203132629394602,3.4823570251464844,3.4825286865234304,-0.41507720947265625,8.699356079101562,0.12128448486328125,3.0384483337402344,-3.212921142578111,-15.085792541503906,-4.728485107421889,-18.505985260009766,6.0,6.0,03-07,-2.3558328946431475
01-23,-6.613346099853516,1.0904197692871094,3.1181793212890625,3.2625999450683594,0.3920097351074219,9.881202697753906,-1.1194229125976562,9.237602233886719,-3.7247314453125,-16.192634582519545,-4.44976806640625,-17.279399871826172,6.0,6.0,03-08,-1.866440773010255
01-24,-7.152116775512695,1.0859146118164062,2.0347900390625,3.936199188232422,0.28133392333984375,11.8323974609375,-3.507415771484375,13.05682373046875,-8.387756347656264,-16.793807983398438,-5.09368896484375,-17.5032958984375,6.0,6.0,03-09,-2.1842185656229667
01-25,-7.892915725708004,1.3935775756836009,2.699378967285149,2.900604248046875,1.056140899658196,12.89373779296875,-4.30035400390625,8.438003540039048,-8.596260070800781,-15.820518493652358,-7.448310852050781,-20.77422332763672,6.0,6.0,03-10,-2.954261620839439
01-26,-6.774982452392578,2.5789833068847727,1.602344512939446,3.8445587158203125,2.0661544799804688,12.490524291992188,-5.7275848388671875,5.860507965087891,-9.060661315917983,-16.38350677490233,-11.206100463867188,-38.004947662353516,6.0,6.0,03-11,-4.892892519632976
01-27,-5.683984756469723,2.918315887451172,1.1607780456542898,4.7151947021484375,2.0569381713867188,10.891555786132812,-6.016746520996094,5.822879791259766,-6.823944091796875,-13.14877319335936,-11.379112243652344,-34.111000061035156,6.0,6.0,03-12,-4.133158206939696
01-28,-7.1655826568603445,3.3164825439453196,0.13657379150390625,4.431095123291016,2.711833953857422,8.300735473632812,-1.4458770751953125,3.4146957397460938,-6.0751953125,-15.200302124023438,-10.6871337890625,-37.17748641967773,6.0,6.0,03-13,-4.62001339594523
01-29,-6.541505813598626,3.330066680908196,-0.3368644714355469,3.8582992553710938,1.3559188842773438,9.491874694824219,-2.20147705078125,1.1758270263672017,-5.923545837402344,-15.772811889648438,-9.899032592773438,-35.31811141967773,5.0,7.0,03-14,-4.7317802111307765
01-30,-4.022777557373047,0.918487548828125,0.06372833251953125,5.287986755371094,1.6418647766113281,8.805931091308594,-3.0970001220703125,5.7288360595703125,-6.264739990234375,-14.580070495605483,-10.456466674804702,-35.980091094970696,6.0,6.0,03-15,-4.329525947570803
01-31,-3.479528427124027,0.6062965393066406,-0.43244171142578125,3.913288116455078,2.2598495483398438,8.189544677734375,-6.651054382324219,5.352554321289048,-4.2839202880859375,-14.417861938476562,-10.216194152832017,-39.3386287689209,5.0,7.0,03-16,-4.874841372172038
02-01,-2.343635559082035,0.4207801818847656,-1.3155441284179688,4.023254394531257,1.4896583557128906,11.2298583984375,-4.309654235839844,4.2519378662109375,-3.7342071533203125,-15.868232727050781,-8.803428649902344,-35.60043334960937,5.0,7.0,03-17,-4.2133038838704415
02-02,-1.6342544555664098,-0.5519981384277344,-1.2518196105957031,3.7574806213378977,1.4435462951660156,11.813858032226562,-5.33575439453125,7.412662506103516,-2.5115890502929688,-13.530456542968736,-10.120094299316406,-39.202335357666016,4.0,8.0,03-18,-4.142562866210937
02-03,-2.6399612426757884,-0.62890625,-1.1653327941894531,2.9968109130859375,0.7563667297363352,12.708335876464844,-5.270439147949219,4.5623626708984375,-4.8430862426757955,-8.692710876464844,-7.169593811035156,-39.406768798828125,4.0,8.0,03-19,-4.066076914469402
02-04,-2.949741363525394,1.3166427612304688,0.8648986816406179,3.0793190002441264,-0.009227752685546875,8.782768249511719,-4.2257080078125,6.2085723876953125,-3.0991973876953267,-10.581993103027344,-6.2469635009765625,-42.69716262817383,5.0,7.0,03-20,-4.129816055297855
02-05,-3.1787090301513743,0.190032958984375,1.0651931762695312,3.358825683593736,-1.1898956298828196,9.287948608398438,-5.158538818359375,8.880146026611328,-3.2982254028320455,-7.853004455566406,-2.3642425537109375,-46.03622055053711,5.0,7.0,03-21,-3.8580574989318883
02-06,-2.3211936950683594,0.054298400878913355,2.644756317138672,2.1307830810546804,-1.5819053649902415,6.618370056152344,-5.839515686035156,6.772979736328125,-4.89996337890625,-3.3301467895507812,-0.2787017822265625,-44.88750076293945,5.0,7.0,03-22,-3.7431449890136723
02-07,-3.946462631225586,-0.036197662353515625,3.5369796752929688,1.2280731201171804,-1.628032684326179,6.409782409667969,-4.915992736816406,7.083396911621094,-2.4073410034179688,-0.954193115234375,2.787109375,-40.039535522460945,5.0,7.0,03-23,-2.740201155344647
02-08,-2.0922031402587855,1.1582870483398438,4.237995147705078,1.0951690673828054,-4.326011657714844,8.08294677734375,-6.4831695556640625,7.026947021484375,-3.3077239990234375,3.5686721801757812,4.199882507324219,-37.781047821044915,7.0,5.0,03-24,-2.0516880353291826
02-09,-2.99014854431152,-0.8913421630859375,4.606700897216797,0.6232070922851491,-3.855579376220703,7.137458801269531,-6.632408142089844,9.698528289794922,-4.8904876708984375,4.026695251464844,-0.5093765258789062,-38.121768951416016,5.0,7.0,03-25,-2.6498767534891767
02-10,-1.3289680480956996,1.9591484069824219,4.474697113037109,-0.6781768798828125,-4.344474792480469,8.050483703613281,-4.944000244140625,9.510383605957031,-6.283714294433594,2.5953903198242188,-1.3743438720703125,-33.001224517822266,5.0,7.0,03-26,-2.113733291625976
02-11,-0.4130687713622976,0.6832351684570312,5.576305389404304,-0.7560806274414134,-2.0477218627929688,8.059745788574219,-3.0223617553710938,9.726741790771484,-5.203254699707031,4.2270660400390625,0.5381927490234375,-34.16941452026367,6.0,6.0,03-27,-1.4000512758890782
02-12,-0.2963333129882777,-0.7058372497558594,5.75384521484375,-0.5590400695800852,-2.3982276916503906,7.883613586425781,-4.514884948730469,6.246196746826172,-6.605949401855469,3.0438613891601562,-0.9995193481445312,-34.7437629699707,4.0,8.0,03-28,-2.3246698379516606
02-13,-0.7767200469970632,-1.4614372253417969,6.163532257080078,-0.9622802734375,-2.1676292419433594,7.7167816162109375,-5.186546325683594,6.0298309326171875,-4.795707702636719,3.683166503906264,-2.0759124755859375,-35.03580856323242,4.0,8.0,03-29,-2.405727545420327
02-14,1.3783435821533203,0.06333541870117188,6.72343826293946,-1.8879013061523509,-2.0430984497070312,7.64727783203125,-5.5316619873046875,6.246192932128892,-4.009071350097656,-0.41030120849609375,-2.277740478515639,-34.451717376708984,5.0,7.0,03-30,-2.379408677419029
02-15,0.18857192993164062,0.23526763916015625,7.119476318359368,-2.387371063232422,-0.45659637451172586,7.990257263183594,-4.057807922363281,7.111625671386719,-3.554138183593764,-1.297721862792983,-4.814971923828125,-37.50846862792969,5.0,7.0,03-31,-2.619323094685876
02-16,-0.6644840240478516,0.23526763916015625,7.3743858337402415,-3.6612548828125,-1.5357894897460938,7.5314178466796875,-4.477546691894531,5.4277801513671875,-3.004425048828125,-3.64501953125,-4.353645324707031,-38.50142288208008,4.0,8.0,04-01,-3.2728947003682447
02-17,0.39958000183105824,0.2171783447265625,6.814491271972663,-2.442363739013672,-1.3328666687011719,8.36102294921875,-4.477546691894531,2.67156982421875,-1.7628631591796875,-2.5667724609375,-2.6621627807617188,-37.586345672607415,5.0,7.0,04-02,-2.8639232317606598
02-18,0.2289810180664098,-0.4524650573730469,4.379127502441406,-2.084941864013672,-1.0838279724121094,8.48152923583983,-3.3768234252929688,3.9509048461914062,-1.8197174072265625,-4.799591064453139,-3.51751708984375,-38.8713493347168,4.0,8.0,04-03,-3.2471408843994163
02-19,0.5881557464599609,-0.7691612243652344,4.583950042724609,-1.0539169311523438,-2.4443397521972585,8.972785949707017,-1.96826171875,2.6998062133789062,-2.37890625,-2.7576141357421733,-5.554985046386719,-41.54843521118164,4.0,8.0,04-04,-3.46924352645874
02-20,2.3436298370361293,1.5700111389160156,4.574836730957031,-0.9577064514160156,-0.5949211120605398,8.43051147460936,0.1305999755859375,-0.15990447998046875,-1.156280517578125,-3.6163711547851562,-4.661201477050781,-40.29264450073242,5.0,7.0,04-05,-2.86578671137492
02-21,5.459497451782227,2.5608901977539062,3.914794921875,-0.9577064514160156,0.9500732421875142,10.798912048339858,0.7276153564453125,-1.7873001098632955,-1.7912826538085938,-1.5648651123047017,-1.3647232055664062,-34.95793914794922,6.0,6.0,04-06,-1.5010027885437012
02-22,4.364007949829102,2.3844223022460938,2.954303741455078,-0.962291717529304,-1.1437721252441406,8.870826721191406,2.742523193359375,-1.5709304809570312,0.04740142822267046,-2.7862091064452983,-1.7876052856445312,-29.22409439086914,6.0,6.0,04-07,-1.3426181475321435
02-23,3.1383228302001953,6.257434844970696,0.19119644165039062,-1.3472061157226634,1.3743667602539062,7.165275573730469,2.1828231811523438,3.0102500915527273,0.00949096679686079,-4.246162414550753,3.7289581298828267,-29.671897888183587,9.0,3.0,04-08,-0.6839289665222156
02-24,2.083236694335941,5.00413513183593,2.112171173095696,-3.221363067626953,2.3613243103027344,7.888275146484375,2.26678466796875,1.5991973876953125,1.6586151123046733,-7.2136917114257955,4.545875549316406,-27.82227325439453,9.0,3.0,04-09,-0.7281427383422884
02-25,2.666900634765625,4.759803771972649,1.3246421813964915,-2.951007843017578,2.988544464111328,6.442237854003906,0.9421539306640625,2.5587081909179688,-0.5212631225585795,-5.830116271972685,3.671302795410142,-24.979690551757812,8.0,4.0,04-10,-0.7439819971720402
02-26,2.945261001586914,5.841190338134773,1.069732666015632,-3.748332977294922,2.361320495605483,5.311347961425781,3.647369384765625,3.7157135009765767,0.6255340576172017,-1.746177673339858,4.632377624511719,-21.29016876220703,9.0,3.0,04-11,0.28043063481649116
02-27,4.045242309570309,4.578845977783203,0.16387557983398438,-5.324638366699219,0.7840309143066548,4.834014892578125,5.587646484375,8.21224594116213,0.1299438476562642,2.3473129272460938,3.546356201171875,-18.17500686645507,10.0,2.0,04-12,0.8941558202107792
02-28,7.07579231262207,5.669261932373047,-1.40203857421875,-6.259422302246094,1.3420677185058594,3.1516036987304688,7.024215698242202,8.720218658447273,1.0018844604492188,7.614448547363281,4.545867919921875,-17.49356460571289,9.0,3.0,04-13,1.7491946220397967
02-29,0.0,0.0,0.0,-4.999294281005859,0.0,0.0,0.0,12.012645721435554,0.0,0.0,0.0,-17.56171417236328,1.0,2.0,04-14,-0.8790302276611323
03-01,7.354158401489254,5.7597503662109375,1.2938232421875,-6.396888732910156,2.425884246826172,3.6938323974609375,5.251838684082031,12.162151336669922,-1.8982696533202983,7.8434600830078125,2.2200698852539205,-19.051143646240227,9.0,3.0,04-15,1.7215555508931508
03-02,6.766870498657227,6.613994598388672,0.9478530883789062,-3.897674560546882,1.1632461547851634,5.0442657470703125,7.0628662109375,10.29957199096679,-0.4008026123046875,8.139274597167969,8.169113159179688,-20.08304214477539,9.0,3.0,04-16,2.4854613939921055
03-03,5.090860366821289,6.166053771972649,-0.1446533203125,-4.4444007873535085,-2.5040206909179688,6.1115875244140625,7.242584228515625,8.183013916015625,-0.8658294677734375,8.966606140136719,5.308753967285156,-21.59448623657226,7.0,5.0,04-17,1.4596724510192878
03-04,3.7170047760009766,6.446582794189453,0.6839065551757884,-4.701442718505845,-1.136871337890625,5.0595245361328125,7.1306304931640625,6.1794281005859375,-4.043869018554702,8.966606140136719,5.530250549316406,-23.200740814208977,8.0,4.0,04-18,0.8859175046285005
03-05,3.384763717651367,6.008476257324219,1.1939735412597656,-3.769672393798821,-4.478878021240234,5.5554351806640625,7.970207214355469,0.38047027587890625,-3.9489288330078267,9.090873718261719,6.789260864257827,-21.049331665039055,8.0,4.0,04-19,0.5938874880472831
03-06,2.9844894409179688,4.640064239501953,0.6605873107910156,-3.8389205932617188,-4.893947601318359,5.2912750244140625,8.959022521972656,2.0113906860351562,-4.812866210937514,11.479080200195298,10.210685729980469,-17.963565826416016,8.0,4.0,04-20,1.2272745768229143
03-07,4.4003295898437464,4.875682830810554,0.4782409667968821,-4.031368255615234,-5.797889709472656,5.726806640625,9.03243255615233,3.6046066284179688,-5.7631072998046875,11.612655639648438,10.7777099609375,4.492515563964837,9.0,3.0,04-21,3.284051259358723
03-08,2.550725936889645,6.470615386962891,1.5616302490234446,-4.613315582275391,-6.088115692138672,7.466529846191406,9.50899505615233,8.449691772460952,-1.3086013793945312,11.87984466552733,15.00540161132811,3.8344345092773366,9.0,3.0,04-22,4.559819698333738
03-09,2.9737586975097585,6.326087951660149,1.7437210083007955,-4.970912933349609,-6.942588806152337,8.468894958496108,8.434341430664062,6.850517272949219,-2.133148193359375,10.90847778320311,17.133476257324233,3.176353454589851,9.0,3.0,04-23,4.330748240152997
03-10,1.608306884765625,5.968666076660149,3.0956802368164134,-4.824981689453125,-5.575458526611328,7.364418029785156,10.898857116699219,6.841110229492173,-1.261199951171875,12.893089294433594,20.21533966064453,1.8852653503417969,9.0,3.0,04-24,4.9257577260335275
03-11,1.1189231872558558,6.448265075683594,2.8833084106445312,-4.5633392333984375,-5.2983245849609375,11.506423950195312,10.563034057617188,3.90570068359375,-1.1470184326171875,13.72463989257811,19.76270294189453,4.552619934082024,9.0,3.0,04-25,5.2880779902140285
03-12,-1.0406360626220703,7.055274963378906,2.5055274963378906,-4.173213958740234,-4.599937438964844,11.724273681640625,11.34661865234375,5.941223144531264,-0.9951171875,13.485687255859375,16.50891876220703,10.743997573852543,8.0,4.0,04-26,5.7085514068603525
03-13,0.5706424713134801,7.689182281494141,1.8080253601074219,-4.694099426269531,-4.5077056884765625,12.753158569335938,12.177757263183594,4.847640991210952,0.45745849609375,14.8323974609375,14.980812072753906,9.555938720703118,10.0,2.0,04-27,5.872600714365642
03-14,0.8073272705078125,7.127319335937507,2.4371337890625,-3.699729919433601,-5.40704345703125,9.850013732910156,8.387924194335938,7.694702148437514,-0.1127777099609375,14.985069274902344,13.904411315917969,12.313140869140621,9.0,3.0,04-28,5.690624237060548
03-15,0.4698047637939453,5.382854461669922,2.9515419006347656,-4.135044097900391,-3.8653335571289062,5.1451416015625,8.985977172851577,10.42626953125,-2.4537582397460938,16.168266296386705,12.920379638671875,13.472145080566403,9.0,3.0,04-29,5.455687046051025
03-16,0.9063282012939453,5.926311492919922,3.3839950561523438,-3.702735900878899,-4.44367980957032,4.2355804443359375,10.013893127441406,9.081062316894531,-1.2880172729492045,16.572608947753906,5.9249267578125,13.904315948486325,9.0,3.0,04-30,5.042882442474366
03-17,1.254510879516598,6.229454040527344,1.4766693115234446,-3.7527503967285085,-3.14581298828125,5.6834716796875,12.236160278320298,7.7076568603515625,-3.100349426269517,17.6685791015625,5.0774078369140625,16.800006866455067,9.0,3.0,05-01,5.344583670298259
03-18,1.7438850402832031,7.374168395996094,1.9183807373046875,-3.390155792236328,-3.5014724731445312,3.2854232788085938,8.635444641113267,6.056060791015625,-3.376037597656236,18.987586975097656,4.1624755859375,17.900047302246087,9.0,3.0,05-02,4.982983907063802
03-19,1.1916561126708949,8.92276763916015,0.8265914916992188,-2.738380432128899,-3.8120269775390625,4.040855407714844,9.689567565917955,6.433845520019531,-3.8222503662109233,18.404548645019545,-0.7665786743164062,14.531780242919922,8.0,4.0,05-03,4.408531347910564
03-20,0.7537670135498047,9.402950286865234,-0.1352996826171875,-2.405372619628899,-3.336994171142571,2.7431488037109375,7.878532409667969,6.584686279296875,-3.974128723144517,14.8057861328125,-3.6594085693359375,12.69979476928711,7.0,5.0,05-04,3.4464551607767766
03-21,0.06958389282226562,10.055423736572266,-1.4072036743164062,-1.9929733276367045,-2.2578086853027344,1.319244384765625,9.399009704589844,4.55780029296875,-2.4768218994140625,11.513832092285156,-4.601264953613281,10.152816772460938,7.0,5.0,05-05,2.860969861348471
03-22,2.751710891723622,8.551097869873047,-3.1519088745117188,-0.407489776611321,-2.367938995361328,2.2090530395507812,9.85691070556642,3.3981246948242188,-2.5905532836914062,11.981376647949219,-4.155029296875,12.284217834472656,7.0,5.0,05-06,3.196630954742433
03-23,2.28818321228027,5.059349060058601,-3.4751014709472656,-1.7604484558105469,0.11162185668944602,4.241630554199219,5.324623107910156,4.865592956542969,-2.7421951293945312,9.871574401855483,-1.6239166259765625,11.606491088867188,8.0,4.0,05-07,2.8139503796895355
03-24,6.120298385620114,5.769695281982429,-4.148811340332031,-3.0682411193847656,1.0630683898925781,8.306777954101562,5.9785003662109375,4.9032135009765625,-5.789642333984375,6.9495697021484375,-1.2964859008789062,6.279682159423828,8.0,4.0,05-08,2.5889687538146977
03-25,6.407651901245114,7.194938659667976,-5.934532165527344,-3.3069076538085938,5.5201568603515625,8.470359802246094,4.933723449707031,6.496917724609389,-2.22235107421875,6.2136077880859375,-0.7764205932617188,6.386768341064453,8.0,4.0,05-09,3.281992753346762
03-26,7.058652877807614,5.849327087402344,-4.9355621337890625,-3.664928436279297,4.244129180908196,8.2154541015625,3.627777099609375,4.0646438598632955,-1.4533462524414062,7.551734924316392,-0.522010803222642,6.542522430419922,8.0,4.0,05-10,3.048199494679769
03-27,6.457307815551758,3.6313018798828054,-3.1667633056640625,-2.7521934509277415,4.56695556640625,7.594367980957031,2.8975372314453125,4.026931762695327,-1.500823974609375,11.124443054199219,-0.34902191162107954,12.40499496459961,8.0,4.0,05-11,3.7445864677429213
03-28,9.154655456542962,6.191368103027351,-3.381031036376953,-1.9961166381835866,4.626911163330071,3.0395355224609375,1.4236831665039062,5.0545120239257955,-0.5578536987304688,13.519470214843764,-0.9737091064452983,16.48208236694336,8.0,4.0,05-12,4.38195896148682
03-29,7.741588592529297,5.398418426513672,-5.837383270263679,-1.7165908813476562,3.5833892822265625,4.0088119506835795,-0.3425140380859375,4.74530029296875,-2.1785430908203125,12.135879516601562,-0.71380615234375,14.900726318359382,7.0,5.0,05-13,3.477106412251789
03-30,7.52556228637696,6.875804901123047,-5.6188812255859375,-2.0225486755371094,2.4287109375,5.271087646484389,1.3395767211914062,6.429145812988281,-2.33966064453125,15.477416992187528,-1.67333984375,14.7828598022461,8.0,4.0,05-14,4.039644559224452
03-31,7.060050964355469,7.056785583496094,-5.309337615966797,-4.100063323974609,2.4656524658203125,6.691078186035142,0.06787872314453125,7.445068359375,-2.9466476440429688,14.005493164062528,-3.1179580688476562,12.374824523925774,8.0,4.0,05-15,3.474402109781902
04-01,5.995986938476559,5.8623046875,-5.7880706787109375,-5.564239501953118,3.855884552001953,4.682777404785156,0.5063247680664062,8.12274169921875,-1.9887161254882812,15.219345092773438,-2.3089752197265625,13.659828186035156,8.0,4.0,05-16,3.521265983581543
04-02,4.559272766113281,4.735492706298828,-5.815422058105469,-6.404182434082031,2.6923294067382812,4.562271118164077,-0.8835906982421875,8.006088256835952,-1.960235595703125,16.7008514404297,-1.434364318847642,10.057926177978516,7.0,5.0,05-17,2.901369730631515
04-03,3.7656803131103587,3.8338050842285156,-6.152790069580078,-6.619739532470696,4.05284118652343,3.134742736816392,-3.71148681640625,9.929283142089858,-2.8146820068359375,15.872741699218736,0.6031036376953267,7.881465911865234,8.0,4.0,05-18,2.4812471071879076
04-04,3.4616069793701136,2.537914276123047,-5.737941741943359,-5.226722717285149,5.547126770019531,2.8738632202148438,-3.9544601440429688,10.75888061523439,-4.8727569580078125,16.73149871826172,0.852989196777358,8.447135925292962,8.0,4.0,05-19,2.618261178334556
04-05,4.721681594848629,2.3611984252929688,-4.617450714111328,-4.612697601318352,3.996509552001953,4.356658935546861,-2.7115936279296875,9.448944091796875,-4.237754821777344,16.531135559082017,-3.1241912841797017,13.12244796752929,7.0,5.0,05-20,2.936240673065182
04-06,5.15818977355957,2.261272430419922,-3.6569595336914062,-4.554347991943359,3.947162628173828,4.171051025390625,-4.150688171386719,8.809272766113281,-4.6832199096679545,23.31336975097655,-6.0213775634765625,11.374114990234368,7.0,5.0,05-21,2.9973200162251783
04-07,6.57288932800293,-0.6163406372070241,-3.588665008544929,-5.027099609375,4.113426208496094,3.79052734375,-3.4040985107421875,8.592933654785142,-5.225486755371094,21.585716247558608,-5.3857421875,11.479087829589844,6.0,6.0,05-22,2.7405956586201987
04-08,6.088003158569336,-2.073253631591797,-3.8758697509765696,-3.2416305541992188,3.4991493225097656,5.174354553222656,-3.189544677734375,6.381622314453111,-4.359580993652344,23.17234039306642,-3.507720947265625,7.624076843261719,6.0,6.0,05-23,2.6409955024719234
04-09,5.05537223815918,-3.7738418579101562,-2.5779571533203125,-2.7229957580566406,1.3246383666992188,4.9518890380859375,-4.74737548828125,6.665557861328125,-5.0241546630859375,19.645439147949247,-5.252731323242173,8.081619262695312,6.0,6.0,05-24,1.8021216392517125
04-10,4.777006149291996,-2.9158782958984304,-3.76324462890625,-0.9768524169921804,1.1539955139160085,5.730522155761719,-5.568267822265639,6.9954986572265625,-5.574806213378906,14.815963745117173,-5.406501770019531,9.571048736572259,6.0,6.0,05-25,1.5698736508687317
04-11,3.5664424896240305,-4.379417419433594,-2.938121795654297,-0.4957122802734304,1.3200263977050781,5.2485198974609375,-2.8333663940429688,8.145637512207031,-4.9463043212890625,13.15566253662108,-5.406501770019531,9.24692153930664,6.0,6.0,05-26,1.6403155326843262
04-12,3.314435958862312,-3.7677345275878906,-0.8524894714355469,-1.6156578063964773,3.140724182128899,3.4525909423828267,-3.9827804565429688,5.409446716308594,-4.5760650634765625,12.602226257324205,-11.730361938476562,9.207633972167962,6.0,6.0,05-27,0.883497397104899
04-13,3.35044097900391,-3.3915367126464844,-1.5545387268066406,-0.748157501220696,7.025093078613281,3.721740722656264,-5.0200653076171875,4.9965362548828125,-2.8196792602539062,11.431381225585923,-12.780136108398438,8.382572174072259,6.0,6.0,05-28,1.049470901489258
04-14,3.487691879272461,-4.327217102050781,-1.6046829223632884,-0.9087905883789134,6.7618255615234375,4.4271087646484375,-6.971282958984375,4.968238830566406,-2.9146194458007812,8.563980102539062,-14.407745361328125,10.681526184082031,6.0,6.0,05-29,0.6463360786437976
04-15,4.063724517822266,-4.875461578369141,-1.7505722045898438,-0.4681549072265696,6.895751953125,3.7867279052734375,-8.373016357421875,6.947975158691406,-4.4810943603515625,6.442108154296889,-14.455902099609375,12.611568450927727,6.0,6.0,05-30,0.5286378860473633
04-16,4.360740661621094,-3.502544403076172,-1.2035140991210938,0.959297180175767,6.318412780761719,3.879547119140625,-8.410392761230469,4.581703186035156,-4.291221618652344,4.9606094360351705,-15.332298278808594,15.921615600585938,7.0,5.0,05-31,0.6868295669555664
04-17,5.638816833496094,-0.67059326171875,-0.7841110229492188,-1.7487716674804688,8.31832504272461,2.5430374145507812,-7.550674438476548,3.8935089111328125,-5.81024169921875,8.22943115234375,-14.841133117675767,9.625648498535163,6.0,6.0,06-01,0.5702702204386423
04-18,7.749437332153327,-1.427276611328132,-0.3327827453613281,-1.4595947265625,8.092010498046875,2.914276123046861,-8.457107543945298,3.6955337524414062,-4.291221618652344,6.604583740234389,-16.796195983886733,9.625652313232429,6.0,6.0,06-02,0.49310954411824603
04-19,9.33799934387207,-3.244243621826179,-0.5835189819336009,-1.3631973266601562,8.89103698730468,2.106819152832017,-8.391677856445298,1.527252197265625,-2.8291702270507812,5.467170715332031,-22.256866455078125,10.4507064819336,6.0,6.0,06-03,-0.07397413253784298
04-20,9.108499526977532,-1.70367431640625,-1.6548194885253906,-1.7120132446289062,5.8657989501953125,1.7170028686523295,-7.4478683471679545,1.3009872436523438,-2.838653564453125,3.6702804565429545,-24.260093688964844,13.397335052490241,6.0,6.0,06-04,-0.37976821263631305
04-21,7.0473747253418,-1.8668098449707031,-1.6776313781738281,-5.475742340087891,7.089748382568359,2.9049911499023295,-7.083412170410156,1.4989700317382812,-3.01904296875,3.3548660278320455,-23.229591369628906,14.605449676513665,6.0,6.0,06-05,-0.48756917317708365
04-22,7.294893264770508,-2.3833465576171875,0.2598457336425781,-6.058654785156243,7.279117584228516,3.7403335571289062,-8.120697021484375,-0.40538787841796875,-3.8545074462890625,3.660728454589858,-21.948692321777344,12.00259017944336,6.0,6.0,06-06,-0.7111481030782046
04-23,5.60280609130859,-1.8079071044921875,0.10028839111328125,-5.383953094482422,5.3207550048828125,1.197296142578125,-8.653343200683594,-0.04715728759765625,-4.310218811035156,1.6630935668945455,-23.663002014160156,10.951629638671875,6.0,6.0,06-07,-1.585809389750162
04-24,4.518260955810547,-4.300010681152351,-0.5835266113281321,-4.37416076660157,3.9674720764160156,2.6822509765625,-8.728126525878906,1.42352294921875,-2.7627105712890625,1.4815063476562642,-21.1011962890625,11.580245971679688,6.0,6.0,06-08,-1.3497060139973964
04-25,4.990777969360352,-5.13825988769532,-1.0439529418945312,-5.282962799072273,3.076061248779297,8.223136901855469,-7.176864624023452,5.33587646484375,-6.759635925292969,0.7073059082031392,-19.309852600097656,14.507232666015625,6.0,6.0,06-09,-0.6559281349182141
04-26,5.076284408569329,-3.2261238098144602,-1.2673301696777273,-6.2422447204589915,5.320777893066406,10.450637817382812,-7.709526062011733,2.4322509765625,-5.84820556640625,-1.4145736694335795,-13.107574462890625,17.25741958618164,5.0,7.0,06-10,0.14348268508911013
04-27,5.5038089752197195,-2.1839828491210938,-1.2855682373046804,-6.22845458984375,4.965110778808587,10.626960754394531,-7.728225708007827,0.801300048828125,-4.604530334472656,1.0896148681640625,-11.942245483398438,14.664386749267578,6.0,6.0,06-11,0.3065145810445132
04-28,5.337285995483391,-2.5419235229492188,-1.3858680725097585,-7.311664581298821,4.475543975830078,9.865898132324219,-7.5225982666015625,3.2712936401367188,-4.167793273925781,-0.4779052734375,-11.364395141601562,10.460533142089844,5.0,7.0,06-12,-0.11346610387166282
04-29,4.279722213745114,-3.3756484985351562,-1.0348320007324219,-8.206695556640618,3.3162345886230398,10.283523559570312,-8.718765258789048,1.8477630615234375,-1.8512954711914062,-0.15293121337892046,-10.112396240234375,7.76927566528321,5.0,7.0,06-13,-0.4963370958964027
04-30,5.296783447265618,-1.5179176330566335,-1.4907188415527344,-7.1785621643066335,3.9120597839355398,11.787094116210938,-7.980506896972656,-1.1501312255859375,-2.0411758422851562,0.28675079345703125,-10.613174438476562,7.975540161132805,5.0,7.0,06-14,-0.22616322835286518
05-01,4.954767227172848,-1.6764984130859375,-2.840118408203125,-8.50503921508789,4.988208770751953,12.603836059570312,-7.709526062011719,-1.3104019165039062,-1.3955841064453125,0.6595001220702983,-6.60675048828125,6.462940216064453,5.0,7.0,06-15,-0.031222184499106298
05-02,2.5111656188964915,-2.088836669921875,-2.694232940673828,-7.610004425048835,4.6002349853515625,13.522666931152358,-9.214065551757827,0.18853759765625,-2.7912063598632812,1.5292739868164062,-3.9871597290039062,5.726276397705078,6.0,6.0,06-16,-0.025612513224283855
05-03,1.894622802734382,-1.4499473571777344,-2.4070167541503906,-6.889400482177734,4.318485260009773,13.708290100097656,-9.503738403320327,1.70635986328125,-2.6867752075195312,2.140998840332017,-4.247215270996094,5.3726806640625,6.0,6.0,06-17,0.1631120045979806
05-04,0.8190536499023509,0.06796646118164062,-1.554534912109375,-4.970851898193359,2.6326904296875,13.717590332031236,-8.700080871582045,2.9224853515625,0.31329345703125,2.743141174316392,-5.845909118652344,7.720157623291016,8.0,4.0,06-18,0.8220834732055634
05-05,1.0080642700195384,2.3652305603027273,-0.6746902465820312,-3.7315826416015625,3.3670387268066406,12.195465087890625,-5.158355712890625,1.1124191284179688,-3.6456451416015625,0.2771759033203125,-5.5569915771484375,6.315601348876953,7.0,5.0,06-19,0.6561441421508789
05-06,-1.926105499267571,3.6339263916015625,-2.6577529907226562,-4.608238220214844,4.147621154785163,9.197647094726577,-5.662994384765625,1.414093017578125,-3.0095672607421875,2.6093292236328125,-2.8314590454101562,6.5218658447265625,6.0,6.0,06-20,0.5690304438273136
05-07,-0.12151718139647727,4.177650451660163,-4.134788513183594,-4.048286437988281,-0.046215057373046875,8.121040344238295,-4.186500549316406,2.12115478515625,-3.4367904663085938,3.0489959716797017,-3.0144424438476562,4.095806121826172,5.0,7.0,06-21,0.21467558542887724
05-08,-2.1466178894042898,1.6900749206542898,-4.7502288818359375,-5.071819305419922,-1.0669403076171804,10.961051940917983,-4.38275146484375,4.289451599121094,-3.645660400390625,3.9570083618164205,-5.181388854980483,1.4536705017089773,5.0,7.0,06-22,-0.32451248168945196
05-09,-1.7146015167236364,1.8668022155761648,-4.162143707275391,-5.5813140869140625,-0.22634124755859375,12.54816436767581,-3.1211776733398438,5.910942077636719,-4.291221618652344,1.5675048828125,-5.383636474609375,2.4162330627441335,5.0,7.0,06-23,-0.014232476552326586
05-10,-2.812662124633789,-0.01813888549805398,-4.335376739501953,-6.228477478027344,-1.1962471008300781,13.309196472167955,-3.2987289428710938,3.6483840942382812,-7.04443359375,0.4587860107421733,-3.4189529418945312,2.5340995788574148,4.0,8.0,06-24,-0.7002126375834182
05-11,-2.89816856384277,0.9515151977539062,-2.4389305114746094,-8.14703369140625,-1.5057106018066406,12.78017425537108,-2.6352462768554688,3.0921630859375,-6.797607421875,-0.7742004394531392,-1.088287353515625,2.5733871459960866,4.0,8.0,06-25,-0.5739954312642442
05-12,-2.668632507324226,-0.6978034973144531,-1.9055709838867188,-6.15962219238282,-2.886707305908203,8.705734252929673,-4.73785400390625,2.9224853515625,-6.6551971435546875,-0.16246795654295454,-2.8314743041992188,-0.7563018798828196,2.0,10.0,06-26,-1.4861176808675147
05-13,-1.3500652313232422,-0.5618705749511719,-2.4070472717285156,-7.4080772399902415,-1.6211891174316406,10.070091247558608,-3.046417236328125,5.5150146484375,-6.588752746582031,-1.7682189941406108,-3.332275390625,0.7366561889648438,3.0,9.0,06-27,-0.9801793098449689
05-14,-1.8180809020996165,-0.6796607971191406,-2.9312820434570312,-7.83952713012696,-2.2262344360351634,11.248786926269531,-2.233428955078125,0.348785400390625,-6.968498229980469,0.9558181762695455,-1.2038726806640625,1.3652687072753906,4.0,8.0,06-28,-0.9984938303629564
05-15,0.1710033416748118,2.9678573608398366,-1.992156982421875,-6.187156677246101,-1.311717987060554,12.325416564941406,-2.6352615356445312,-1.9797744750976562,-6.389366149902344,3.5364608764648438,-1.2231292724609517,2.9957351684570384,5.0,7.0,06-29,0.023159186045327
05-16,-1.5706062316894496,0.9922866821289062,-1.0439529418945312,-6.067810058593764,-0.6327705383300852,11.991287231445327,-3.494964599609375,0.999267578125,-4.566558837890625,2.3225936889648438,-2.0128631591796875,-3.6145286560058594,4.0,8.0,06-30,-0.558218320210775
05-17,-1.840610504150387,-1.35479736328125,-1.144245147705071,-5.328834533691413,-1.9583587646484375,12.566703796386719,-5.186393737792969,1.7629165649414062,-3.731109619140625,-2.1218719482421733,-0.87640380859375,-2.7403602600097585,2.0,10.0,07-01,-0.9961137771606424
05-18,-1.408584594726559,-2.0253868103027344,-1.604694366455071,-5.117725372314453,-1.8151512145996094,13.513397216796875,-3.9715499877929688,2.8564834594726562,-2.5348739624023438,-2.1887969970703125,-0.50079345703125,-1.7483329772949219,2.0,10.0,07-02,-0.5455007553100577
05-19,-1.8450927734375,-1.748992919921875,-1.3174896240234304,-4.631183624267578,-0.13855361938476562,13.22568511962892,-2.5324554443359375,3.1675949096679688,-3.6171722412109375,-2.8865203857421733,-0.5682296752929688,0.0,2.0,10.0,07-03,-0.2410341898600231
05-20,-2.034107208251953,0.942474365234375,-1.7095451354980398,-4.631183624267578,-0.13855361938476562,13.606208801269545,-2.7193450927734375,2.3756866455078125,-2.9525985717773438,-2.8865203857421733,-0.5682296752929688,-1.9545974731445312,3.0,9.0,07-04,-0.22252591451008819
05-21,-0.8235435485839879,-1.0059051513671946,0.13676071166991477,-5.168209075927734,1.6627349853515625,11.499382019042983,-3.6818695068359375,2.026885986328125,-2.4589309692382812,-4.826789855957017,-7.7720947265625,-1.6304702758789134,4.0,8.0,07-05,-1.003504117329915
05-22,-0.9675712585449254,0.7793426513671875,-0.533355712890625,-2.9558677673339773,3.2100257873535156,11.944877624511719,-4.195854187011719,3.3089981079101562,-0.7025604248046875,-1.2712249755859517,-5.1525115966796875,-2.3769493103027344,4.0,8.0,07-06,0.09061241149902255
05-23,-2.2681407928466797,0.4440269470214844,-0.46042633056640625,-3.1257057189941406,2.9929237365722656,11.378715515136705,-3.2520294189453125,1.4046783447265625,-2.11712646484375,-0.5256881713867045,-1.2423782348632812,-0.9036293029785227,4.0,8.0,07-07,0.19376834233601828
05-24,-2.9881725311279297,1.1282234191894531,-1.7277603149414062,-2.7080307006835866,3.3947334289550852,11.15597534179686,-3.7940139770507812,0.25453948974609375,-2.2500381469726562,2.3417129516601562,0.03852081298828125,-1.0116691589355469,6.0,6.0,07-08,0.31950171788533527
05-25,-3.9107284545898438,2.3063278198242188,-2.247478485107422,-4.4751434326171875,4.286174774169922,10.20928955078125,-2.2707901000976562,-0.30169677734375,-0.683563232421875,5.218673706054673,1.4061050415039062,-3.270751953125,5.0,7.0,07-09,0.5222015380859363
05-26,-3.3752040863037074,1.8396415710449219,-2.261150360107422,-6.526817321777337,3.9905967712402486,10.44134521484375,-4.354736328125,0.43365478515625,-2.45892333984375,7.780220031738267,2.9277801513671875,-3.9288330078125,6.0,6.0,07-10,0.3756311734517424
05-27,-2.925167083740231,-1.2279281616211009,-2.0970306396484375,-6.136676788330071,5.126781463623033,10.979637145996108,-4.214546203613281,0.03771209716796875,-1.1202774047851562,9.481544494628892,1.964691162109375,-5.195888519287109,5.0,7.0,07-11,0.3894042968749991
05-28,-4.8782844543457,0.6252708435058594,-3.2914276123046875,-7.118915557861321,5.149875640869141,10.552696228027358,-4.354736328125,1.1124420166015625,0.0,10.284416198730455,3.4189529418945312,-4.125278472900391,6.0,6.0,07-12,0.6145842870076507
05-29,-4.7567749023437536,2.1477279663085938,-4.618030548095696,-5.9576759338378835,4.360065460205078,9.179092407226577,-3.1679153442382812,1.4517974853515625,0.9588775634765625,8.076522827148438,4.0738525390625,-6.512046813964844,7.0,5.0,07-13,0.43629105885823777
05-30,-6.399341583251957,2.1341400146484375,-4.672725677490234,-4.181377410888672,4.4247283935546875,8.501556396484375,-3.94354248046875,3.5635452270507812,0.9019012451171875,4.683433532714858,6.452659606933594,-6.29595947265625,7.0,5.0,07-14,0.4307514826456715
05-31,-5.800802230834961,2.7095718383789062,-4.576854705810547,-3.4056968688964844,6.674015045166016,7.6755523681640625,-4.251922607421875,2.4942550659179688,0.24681854248046875,6.547241210937528,8.629241943359375,-6.737957000732422,7.0,5.0,07-15,0.8502885500590031
06-01,-5.422786712646484,2.7027816772460938,-4.143772125244141,-0.2845611572265625,5.985862731933608,9.568916320800781,-3.2987442016601562,3.0693206787109375,0.161376953125,5.534088134765639,7.656532287597656,-4.449409484863281,7.0,5.0,07-16,1.4233004252115908
06-02,-4.311511993408196,-0.4327201843261719,-5.383747100830078,1.2410354614257812,5.531730651855469,7.594512939453125,-5.939216613769531,3.3144378662109375,2.184173583984375,6.967781066894531,5.5858917236328125,-7.219242095947266,7.0,5.0,07-17,0.7610937754313157
06-03,-2.673419952392578,-1.3298759460449219,-6.242435455322266,1.3835868835449219,6.0034332275390625,9.807090759277344,-5.2290191650390625,4.7960205078125,2.69696044921875,5.852638244628906,4.17327880859375,-7.769275665283203,7.0,5.0,07-18,0.9557485580444336
06-04,-2.9614524841308594,1.5198822021484375,-3.5129737854003764,2.303291320800774,6.401397705078125,10.076225280761719,-3.7058029174804688,2.824676513671875,2.7254867553710938,5.575042724609389,1.1435165405273438,-7.553192138671875,8.0,4.0,07-19,1.2363414764404315
06-05,-1.847061157226559,0.5838890075683594,-3.362312316894517,2.299945831298828,8.082626342773438,8.656211853027344,-6.650978088378906,2.0217819213867188,2.5352554321289062,6.864349365234375,3.3104629516601562,-10.911506652832024,8.0,4.0,07-20,0.9652220408121766
06-06,-1.7792396545410085,0.46138763427734375,-2.216194152832017,0.9000282287597727,7.103435516357422,5.898155212402344,-7.897361755371094,0.8788299560546875,3.470245361328125,7.284889221191392,1.15313720703125,-14.315116882324219,8.0,4.0,07-21,0.07851632436116655
06-07,-0.5569152832031108,1.4324455261230469,-1.8562278747558594,0.6567459106445312,6.702342987060547,6.177101135253906,-10.303733825683594,-2.9674148559570312,6.014595031738281,5.574012756347656,1.0672225952148438,-13.780498504638672,7.0,5.0,07-22,-0.15336036682128787
06-08,-0.4261131286621094,-1.2646980285644531,-2.2619590759277415,2.0901412963867188,7.964225769042962,6.279304504394531,-10.86553955078125,-2.9108505249023438,6.052574157714844,4.683448791503906,2.04498291015625,-11.08761215209961,6.0,6.0,07-23,0.02482541402180871
06-09,-1.390369415283196,-0.5623741149902344,-3.10076904296875,3.435810089111328,8.343460083007791,6.65093994140625,-12.007881164550781,-2.1755218505859375,3.564056396484375,4.320175170898452,2.2092437744140625,-8.722286224365241,6.0,6.0,07-24,0.04704030354817649
06-10,-1.660369873046868,-2.8097915649414134,-0.8839111328125,2.5023231506347656,7.95036315917968,6.854530334472656,-13.241424560546875,0.08588409423828125,3.0405654907226562,4.808364868164091,2.5764007568359375,-4.950603485107429,7.0,5.0,07-25,0.35602760314941523
06-11,-2.4884300231933594,-2.9497528076171875,0.9266624450683594,1.7205810546875,6.996185302734375,4.989013671875,-13.465705871582031,-0.23558807373046875,3.4210205078125,7.450248718261733,1.4113693237304688,-0.550304412841804,7.0,5.0,07-26,0.6021083196004238
06-12,-1.6399726867675781,-2.932178497314453,0.7622871398925781,0.7798194885253906,6.756019592285156,4.125862121582017,-12.203720092773438,-2.3420486450195312,4.904815673828125,9.652458190917969,2.8270797729492188,-3.271686553955078,7.0,5.0,07-27,0.618227958679198
06-13,-0.6265068054199219,-2.30145263671875,0.9266624450683594,1.4545211791992188,5.0471038818359375,2.1399688720702983,-13.000205993652344,-0.7362213134765625,4.1450958251953125,9.862747192382812,1.420989990234375,-2.72998046875,7.0,5.0,07-28,0.46689351399739465
06-14,-0.8024215698242188,-3.7353630065917898,-0.36075592041015625,0.6467247009277344,7.307575225830078,0.8484649658203267,-14.844764709472656,-2.8680419921875,5.692596435546875,10.55093383789064,0.5569076538085938,-3.2051963806152344,6.0,6.0,07-29,-0.017778396606442353
06-15,-1.1903076171875,-4.37425231933593,0.623931884765625,0.4416618347167969,5.819419860839844,-0.48017120361328125,-11.417778015136719,-2.358978271484375,7.4869384765625,14.212326049804688,-0.8721542358398438,-4.482337951660156,5.0,7.0,07-30,0.28402487436930396
06-16,-1.2603607177734375,-4.387840270996087,1.1983375549316406,2.969146728515632,5.343070983886719,0.30956268310548296,-11.388114929199219,-0.2283782958984375,7.2517623901367045,12.157752990722642,-1.2296524047851562,-5.6120758056640625,6.0,6.0,07-31,0.42693424224853516
06-17,-0.9858436584472727,-4.238311767578118,0.6143379211425781,2.302387237548828,5.060981750488281,1.2649307250976562,-10.397552490234375,-0.7843780517578125,7.146339416503906,12.875679016113281,0.8380661010742188,-3.5297927856445312,7.0,5.0,08-01,0.8472369511922201
06-18,-0.4683189392089844,-4.301723480224609,0.5768089294433594,1.5896224975585938,4.9232215881347585,0.1976013183593608,-10.201301574707031,-1.2524032592773438,6.880020141601548,11.956741333007798,-2.0903778076171875,-3.971790313720696,6.0,6.0,08-02,0.31984170277913054
06-19,1.4147930145263707,-5.876056671142578,0.40331268310546875,2.151695251464851,4.659969329833984,-1.8999481201172017,-8.947601318359375,-4.086219787597656,6.2332305908203125,8.291297912597642,-2.427459716796875,-5.253856658935547,6.0,6.0,08-03,-0.4447369575500503
06-20,3.022531509399421,-3.6026840209960866,-0.6971397399902273,3.5332489013671946,6.784553527832031,-7.8162689208984375,-10.034103393554688,-2.9621124267578125,4.406646728515625,6.045158386230469,-5.124092102050781,-5.104419708251946,5.0,7.0,08-04,-0.9623901049296032
06-21,4.204233169555671,-3.9702224731445312,-1.8468551635742188,6.498294830322273,10.100135803222656,-8.588027954101562,-10.736343383789062,-2.2410049438476562,5.0996856689453125,8.750068664550781,-10.628669738769531,-5.579631805419915,5.0,7.0,08-05,-0.744861443837482
06-22,4.565069198608398,-1.4953804016113281,-1.4593544006347656,3.983917236328125,11.92510986328125,-5.085205078125,-10.455451965332031,-1.0060272216796875,4.55853271484375,7.269081115722656,-7.542442321777344,-3.510467529296875,5.0,7.0,08-06,0.1456151008605957
06-23,4.907674789428707,-1.6720848083496094,-0.9214134216308594,10.12054443359375,12.456939697265625,-8.039848327636719,-11.727546691894531,-1.8545074462890625,1.2106704711914062,5.5054473876953125,-10.88555908203125,-1.2825813293457031,5.0,7.0,08-07,-0.1818553606669111
06-24,4.8941650390625,-0.6526069641113281,-2.73101806640625,9.656097412109382,12.012992858886719,-5.8143463134765625,-11.307029724121094,3.1549224853515625,3.0646820068359375,6.931686401367173,-11.581245422363281,2.1649742126464844,7.0,5.0,08-08,0.8161061604817702
06-25,4.304643630981442,-3.2583427429199148,-1.9395675659179688,11.03564453125,12.134864807128906,-8.59869384765625,-10.662223815917969,11.075523376464844,2.3227920532226562,7.439018249511719,-11.785781860351562,0.4166412353515554,7.0,5.0,08-09,1.0403765042622881
06-26,4.876380920410156,-2.7257537841796875,-5.281986236572266,11.080818176269531,11.349678039550788,-8.04180908203125,-9.556617736816406,11.547828674316406,3.7305145263671875,3.126007080078125,-14.723167419433594,2.4901962280273366,7.0,5.0,08-10,0.656007448832194
06-27,3.5722618103027415,-2.4172019958496094,-4.250034332275391,10.268390655517585,11.737655639648438,-8.970520019531236,-11.535621643066406,11.283317565917969,2.3904495239257812,-0.9361419677734375,-13.77935791015625,-0.4432334899902415,5.0,7.0,08-11,-0.25666968027750475
06-28,4.235290527343743,-2.0723495483398438,-6.965339660644531,10.530033111572266,12.519645690917969,-8.319107055664062,-9.1854248046875,7.3974761962890625,1.422088623046875,-0.5251388549804688,-12.075523376464844,1.1903152465820241,6.0,6.0,08-12,-0.15400282541910926
06-29,3.134754180908203,-1.3361282348632812,-7.27989578247071,8.952400207519524,10.963272094726562,-7.835975646972656,-8.220993041992188,5.804229736328125,0.4916839599609375,-1.8543395996093892,-12.964637756347656,0.16068267822264914,6.0,6.0,08-13,-0.8320789337158233
06-30,2.896686553955078,-0.48882293701171875,-7.940914154052727,9.756118774414062,10.926300048828125,-9.331848144531236,-6.973274230957031,5.823089599609375,-1.1718902587890625,0.5262298583984233,-14.365669250488281,-1.1580543518066406,5.0,7.0,08-14,-0.9585040410359694
07-01,3.2927207946777344,-0.8105316162109375,-4.462623596191406,9.438846588134766,10.685821533203125,-9.360038757324247,-5.30987548828125,5.353340148925781,-3.48944091796875,-0.689414978027358,-13.785934448242188,-0.3722877502441406,4.0,8.0,08-15,-0.7924515406290725
07-02,4.557285308837891,-1.2874641418457031,-4.074367523193359,9.921680450439453,8.647819519042969,-9.06302642822267,-5.2164154052734375,8.126693725585938,-4.003059387207031,0.8134002685546733,-11.84185791015625,-1.0205459594726491,5.0,7.0,08-16,-0.36998812357584815
07-03,5.8997344970703125,-2.5116310119628906,-3.097209930419922,6.946975708007805,8.509277343749993,-9.545654296875,-4.9085235595703125,7.512702941894531,-4.925682067871094,-6.5187454223632955,-11.495147705078125,-2.5658607482910156,4.0,8.0,08-17,-1.391647020975751
07-05,4.217380523681641,-2.0624008178710938,-4.142852783203125,8.273452758789062,7.571784973144531,-8.840560913085938,-4.599540710449219,7.200981140136719,-4.90081787109375,-7.273834228515639,-12.891860961914062,-3.4370880126953125,4.0,8.0,08-19,-1.7404464085896822
07-06,4.438381195068359,-2.88372802734375,-3.700641632080078,9.435691833496094,7.358650207519517,-9.453773498535142,-4.224998474121094,7.200981140136719,-3.3153305053710938,-7.9040069580078125,-13.466644287109375,-3.625194549560547,4.0,8.0,08-20,-1.6783844629923503
07-07,6.032995223999023,-4.673515319824219,-4.2841644287109375,9.137516021728516,6.063751220703111,-7.9671783447265625,-8.875587463378906,8.285118103027344,-4.6567840576171875,-10.696548461914062,-11.6405029296875,-2.0987319946289062,4.0,8.0,08-21,-2.114469369252524
07-08,5.497470855712887,-5.770030975341797,-6.449729919433594,8.392581939697273,6.9562911987304545,-7.9669418334960795,-6.7916412353515625,8.834709167480469,-5.1017608642578125,-10.696548461914062,-12.722663879394531,-1.4406509399414062,4.0,8.0,08-22,-2.2715762456258135
07-09,5.114944458007809,-6.305915832519531,-5.15052795410157,8.024700164794922,4.534439086914077,-8.505233764648438,-7.548591613769531,8.523689270019531,-5.482200622558594,-10.00735473632814,-11.247474670410156,1.6041946411132812,5.0,7.0,08-23,-2.2037776311238617
07-10,5.05167388916016,-6.337715148925781,-5.707599639892585,9.07132339477539,4.511344909667969,-7.020240783691392,-7.1567230224609375,7.966377258300781,-4.9590911865234375,-9.058540344238281,-12.701736450195312,-0.9319000244140625,4.0,8.0,08-24,-2.272735595703124
07-11,5.458951950073249,-6.19703292846679,-4.51128005981446,7.910083770751953,3.920166015625,-5.8880538940429545,-8.59930419921875,8.004158020019531,-5.0904541015625,-6.850646972656264,-12.875091552734375,-1.1928215026855469,4.0,8.0,08-25,-2.1592771212259922
07-12,5.47699165344239,-7.6127777099609375,-4.0227928161621165,8.291034698486328,4.5682907104492045,-8.636215209960938,-13.8427734375,5.439002990722656,-5.033477783203125,-6.353630065917983,-14.585121154785156,-0.2621917724609375,4.0,8.0,08-26,-3.047804991404218
07-13,4.836515426635749,-8.710060119628906,-4.118663787841804,6.474639892578118,6.04913330078125,-7.0845794677734375,-14.685470581054673,6.508293151855469,-6.372711181640625,-8.973808288574219,-16.14746856689453,-0.21268844604492898,4.0,8.0,08-27,-3.5364057223002114
07-14,4.264549255371094,-8.703269958496094,-3.1004180908203196,7.205799102783196,6.275733947753906,-5.728057861328111,-13.176109313964844,5.762062072753906,-6.8958587646484375,-6.844024658203125,-15.66436767578125,-3.610076904296875,4.0,8.0,08-28,-3.3511699040730796
07-15,3.3827743530273438,-8.499061584472656,-5.904037475585945,7.325366973876946,5.896522521972656,-4.4876556396484375,-11.479446411132812,5.8093109130859375,-7.0290069580078125,-5.7049560546875,-16.23442840576172,-3.7868728637695312,4.0,8.0,08-29,-3.3926242192586273
07-16,2.133388519287106,-7.105976104736335,-5.32868957519532,7.164405822753899,6.890861511230469,-7.888221740722656,-10.683586120605469,6.546089172363281,-8.084785461425781,-6.3558502197265625,-13.981216430664062,-4.514549255371101,4.0,8.0,08-30,-3.434010823567711
07-17,1.5200080871582031,-5.721992492675774,-4.552433013916023,5.890624999999993,6.30352783203125,-6.4481048583984375,-4.410102844238281,7.452873229980469,-8.32257080078125,-5.302917480468764,-12.232353210449219,-2.187969207763672,4.0,8.0,08-31,-2.3342841466267923
07-18,0.4284706115722514,-6.5569305419921875,-4.255634307861335,5.219268798828118,5.762420654296875,-6.903373718261719,-0.5805130004882812,6.442176818847656,-7.637748718261719,-4.5945892333984375,-12.464248657226562,-1.4751472473144531,4.0,8.0,09-01,-2.217987378438316
07-19,-0.13532638549805398,-6.870025634765625,-5.223670959472663,4.506488800048821,4.990104675292969,-7.209991455078125,0.355804443359375,6.0926666259765625,-10.120246887207031,-3.4555130004882812,-14.019859313964844,-2.336475372314453,4.0,8.0,09-02,-2.7855037053426126
07-20,-0.7577457427978587,-6.448017120361328,-5.123210906982422,4.0558509826660085,3.5148162841797017,-5.8255996704101705,-1.7884063720703125,6.026557922363281,-9.50201416015625,-3.4172134399414062,-12.299972534179688,-2.465179443359368,3.0,9.0,09-03,-2.835844516754151
07-21,-1.2042655944824148,-5.6630096435546875,-5.922290802001953,3.9960708618164062,3.4962844848632955,-7.841789245605469,0.3558197021484375,6.612205505371094,-8.788642883300781,-3.780967712402358,-12.580177307128906,-6.65301513671875,4.0,8.0,09-04,-3.1644814809163404
07-22,-0.6675338745117188,-6.016941070556641,-6.383464813232422,5.10429382324218,4.134521484375014,-8.185546875,1.5168609619140625,7.0939483642578125,-7.913581848144531,-4.431877136230483,-12.638160705566406,-6.425308227539055,4.0,8.0,09-05,-2.9010658264160156
07-23,-1.7545166015625,-5.6221771240234375,-6.753337860107422,5.573345184326172,5.498802185058594,-7.628074645996094,1.301513671875,9.257080078125,-7.2858123779296875,-4.958335876464844,-11.613960266113281,-5.098663330078125,4.0,8.0,09-06,-2.4236780802408853
07-24,-2.151439666748047,-6.457096099853516,-8.1551513671875,5.996406555175781,7.6122894287109375,-7.860382080078111,2.3876724243164062,9.597145080566406,-7.076545715332031,-7.399200439453125,-11.700927734375,-5.286773681640625,4.0,8.0,09-07,-2.5411669413248688
07-25,-2.047687530517578,-6.0759429931640625,-8.789840698242188,5.909034729003906,6.0861663818359375,-9.486328125,3.9887847900390625,15.189178466796875,-6.6770782470703125,-10.041091918945312,-9.565582275390625,-5.375873565673821,4.0,8.0,09-08,-2.2405217488606763
07-26,-1.727468490600586,-6.811054229736335,-7.2601776123046875,5.113494873046875,7.256187438964844,-7.628112792968736,3.464447021484375,13.101593017578125,-6.562950134277344,-10.500556945800781,-8.396446228027344,-5.365974426269531,4.0,8.0,09-09,-2.1097515424092603
07-27,-0.2976722717285156,-4.66925048828125,-6.118644714355469,5.242263793945305,7.866676330566406,-11.130874633789034,4.1854095458984375,13.734474182128906,-7.732856750488267,-13.065864562988281,-7.227325439453125,-7.652946472167962,4.0,8.0,09-10,-2.238884290059404
07-28,0.45104217529296875,-4.66925048828125,-5.826408386230469,6.125156402587891,8.759239196777344,-11.22378540039061,0.07488250732421875,13.621124267578125,-6.4868316650390625,-14.769721984863281,-3.7875900268554688,-5.356071472167969,5.0,7.0,09-11,-1.9240179061889637
07-29,1.5966644287109375,-4.67832946777343,-5.8218231201171875,5.9044342041015625,8.689857482910156,-11.363143920898438,-0.7584381103515625,12.969375610351577,-7.951614379882798,-14.913284301757812,-3.6909637451171875,-6.573810577392578,4.0,8.0,09-12,-2.2159229914347303
07-30,0.6946029663085938,-3.6891250610351562,-7.442817687988281,5.918224334716804,10.660003662109375,-10.79638671875,-1.5075149536132812,13.177192687988281,-6.857788085937486,-13.0946044921875,-4.8600921630859375,-4.672950744628906,4.0,8.0,09-13,-1.8726046880086245
07-31,1.258380889892564,-4.678321838378913,-7.082111358642578,6.883899688720703,10.017181396484375,-6.903373718261719,0.8146133422851562,13.488914489746094,-6.344177246093736,-11.486488342285156,-4.6571807861328125,-8.761779785156264,5.0,7.0,09-14,-1.4542036056518572
08-01,-0.3157196044921946,-4.637493133544929,-6.7898712158203125,5.7618751525878835,6.97412109375,-4.627021789550781,0.6648025512695312,11.051826477050781,-3.19586181640625,-8.26071166992189,-0.0386505126953125,-7.2470359802246165,4.0,8.0,09-15,-0.8883117039998408
08-02,0.1984710693359233,-4.678321838378913,-5.232799530029304,7.753017425537109,6.9186248779296875,-9.74652099609375,-0.00936126708984375,8.085762023925781,-1.1604080200195312,-8.605308532714858,-2.6860885620117188,-7.1282310485839915,4.0,8.0,09-16,-1.357597033182784
08-03,1.4478416442871023,-4.592132568359375,-4.671169281005859,3.8765182495117188,5.669929504394531,-9.198326110839844,0.7584304809570312,5.7431640625,2.092529296875,-5.5422134399414205,0.37682342529296875,-7.7024497985839915,7.0,5.0,09-17,-0.9784212112426781
08-04,2.60699462890625,-5.182033538818359,-1.9999618530273438,5.462982177734368,5.373970031738281,-6.1229248046875,2.9962615966796875,3.9767684936523438,1.265045166015625,-5.8198165893554545,6.415702819824219,-7.524238586425781,7.0,5.0,09-18,0.1207291285196946
08-05,2.349895477294922,-4.927925109863281,-2.5205116271972585,4.90196228027343,6.2850494384765625,-3.1961669921875,3.6048736572265625,0.7462158203125,3.3765869140625,-6.087837219238281,2.1450119018554688,-9.791412353515625,7.0,5.0,09-19,-0.259521484375
08-06,2.259693145751953,-3.74810791015625,0.712322235107429,4.66285324096679,8.588127136230469,-1.34722900390625,2.1161041259765625,0.29282379150390625,3.2149124145507812,-4.259567260742173,2.9373092651367188,-9.930015563964837,8.0,4.0,09-20,0.4582688013712583
08-07,3.536132812499993,-4.914287567138665,-0.38355255126953125,2.2210693359375,7.200736999511719,-0.8083267211914205,5.5243682861328125,-0.5762100219726562,3.290985107421875,-4.077705383300781,3.6426467895507812,-7.544048309326172,6.0,6.0,09-21,0.5926507314046212
08-08,2.5528640747070312,-5.540493011474609,-0.6757888793945312,2.6073455810546875,6.109275817871094,-2.601531982421875,-0.0093536376953125,-0.2456207275390625,2.8819732666015625,-2.4887313842773438,0.9275665283203125,-9.652809143066406,5.0,7.0,09-22,-0.5112752914428711
08-09,2.2912635803222727,-4.6828765869140625,-3.392650604248047,1.9129676818847727,5.4988250732421875,-3.6514434814452983,0.23409271240234375,2.9660491943359375,3.6429061889648438,-2.048431396484375,2.1643295288085938,-11.533870697021484,7.0,5.0,09-23,-0.5499032338460262
08-10,3.5316009521484446,-4.691944122314453,-1.62554931640625,1.6370658874511719,4.675590515136719,-6.095039367675781,-0.9831619262695312,3.8728485107421875,4.812812805175781,-3.4076461791992188,2.9759597778320312,-11.890281677246094,6.0,6.0,09-24,-0.5989786783854161
08-11,3.811260223388672,-3.0810813903808594,-4.433723449707031,2.1382827758789062,4.67095947265625,-6.931221008300781,-3.9887771606445312,3.06048583984375,5.0981597900390625,-1.9527053833007812,2.135345458984375,-12.910015106201172,6.0,6.0,09-25,-1.0319191614786785
08-12,3.6173019409179688,-2.2688331604003906,-7.945091247558594,1.7979850769042969,6.164764404296875,-4.227508544921889,-6.4513397216796875,1.3318634033203125,6.239540100097656,2.3834381103515625,0.6183853149414062,-12.583305358886719,7.0,5.0,09-26,-0.9435666402181001
08-13,2.994884490966797,-2.0419540405273438,-10.30581283569336,1.4347076416015696,6.076881408691406,-3.9116058349609233,-6.217247009277344,-0.7556915283203125,7.8945465087890625,3.96282958984375,-1.690887451171875,-10.929950714111328,5.0,7.0,09-27,-1.1241083145141584
08-14,2.4175491333007812,-0.8984527587890625,-8.954208374023438,0.1149597167968821,6.9278717041015625,-1.6631317138671875,-6.245338439941406,-1.2185287475585938,8.446220397949219,2.144134521484361,1.6908798217773438,-11.207160949707024,6.0,6.0,09-28,-0.7037671407063802
08-15,3.2023468017578125,-1.2887039184570312,-8.072956085205078,0.3586883544921946,6.839996337890625,-5.323844909667969,-6.7602996826171875,-1.8797607421875,9.796844482421875,9.447616577148438,1.7681655883789062,-8.9993896484375,6.0,6.0,09-29,-0.0759414037068679
08-16,3.7390975952148438,-1.0481986999511719,-9.264724731445312,-0.17932891845702414,7.677070617675781,-3.2983856201172017,-9.906410217285156,3.4950332641601562,11.737197875976562,8.997741699218736,-0.801971435546875,-9.009292602539062,5.0,7.0,09-30,0.17815240224202297
08-17,4.420158386230469,-0.6080474853515625,-8.999897003173828,0.9243011474609375,8.343002319335938,-3.3076629638672017,-9.250961303710938,3.5327987670898438,13.259025573730469,11.706642150878906,-2.7343978881835938,-10.246829986572266,6.0,6.0,10-01,0.5865109761555978
08-18,5.042579650878906,0.21327972412109375,-6.0912628173828125,1.1404190063476491,7.672401428222656,-5.9556655883789205,-7.12548828125,2.1064529418945312,12.108169555664062,12.25225830078125,-3.468719482421875,-10.306232452392578,7.0,5.0,10-02,0.6323493321736636
08-19,4.370521545410156,1.0436744689941406,-6.296737670898445,2.124488830566399,8.999710083007812,-9.458450317382812,-3.9981231689453125,3.10772705078125,12.412498474121094,14.090095520019531,-6.019538879394531,-9.573612213134766,7.0,5.0,10-03,0.9001878102620431
08-20,4.487796783447266,0.7033576965332031,-7.004486083984375,2.5613441467285085,8.204292297363281,-9.690742492675795,-3.6797943115234375,5.2330780029296875,12.83102416992189,14.57826995849608,-6.657249450683594,-8.078659057617188,7.0,5.0,10-04,1.1240193049112939
08-21,2.372436523437493,2.0147247314453054,-8.191673278808594,1.0622444152832031,9.489959716796875,-9.607109069824233,-1.1891555786132812,4.666313171386719,12.184234619140625,14.252815246582045,-7.169349670410156,-8.44497299194336,7.0,5.0,10-05,0.9533723195393868
08-22,2.223590850830078,1.8105430603027273,-5.794460296630852,0.9978599548339844,8.306037902832031,-8.557212829589844,7.3034210205078125,3.7500534057617188,11.499420166015625,12.501129150390625,-5.517112731933594,-9.425102233886719,8.0,4.0,10-06,1.591513951619466
08-23,3.012897491455078,2.541084289550774,-5.557003021240227,1.8715705871582031,7.020317077636719,-10.564102172851562,10.664840698242188,5.8281707763671875,10.671905517578125,13.381752014160156,-0.8792648315429688,-7.791553497314446,8.0,4.0,10-07,2.516717910766602
08-24,3.9465560913085866,4.496822357177734,-5.990795135498033,1.1542243957519531,8.084022521972656,-11.939201354980469,12.715415954589844,6.281578063964844,11.137977600097656,12.223518371582045,-1.2850646972656108,-8.256866455078125,8.0,4.0,10-08,2.7140156428019235
08-25,4.6456642150878835,5.018672943115234,-5.2328224182128835,0.34027099609375,7.27008056640625,-13.314300537109375,14.428901672363267,6.734992980957031,11.451850891113267,11.869354248046875,-2.4058761596679688,-7.593547821044915,8.0,4.0,10-09,2.767770131429035
08-26,4.8396148681640625,5.39982986450196,-5.1643218994140625,0.29888153076171875,6.636505126953125,-13.788169860839858,11.966361999511719,6.574409484863281,12.165229797363281,10.701576232910156,-3.4010848999023295,-6.484706878662109,8.0,4.0,10-10,2.478677113850912
08-27,5.2996673583984375,4.156494140625,-7.602653503417969,0.8645095825195312,7.04345703125,-13.054168701171875,7.471923828125,5.006416320800781,12.4600830078125,13.113731384277344,-2.9663009643554688,-8.15786361694336,8.0,4.0,10-11,1.969607988993327
08-28,7.415031433105476,5.3998374938964915,-5.543315887451172,0.3126945495605469,5.577415466308594,-12.849754333496094,9.110519409179688,5.809326171875,12.726402282714844,8.136253356933594,-3.8069000244140625,-8.454875946044915,8.0,4.0,10-12,1.986052831013999
08-29,7.938243865966797,5.445201873779297,-5.209987640380859,0.6667709350586009,6.673469543457031,-16.649848937988267,8.417648315429688,4.638023376464844,13.106864929199233,7.3609161376953125,-5.691047668457031,-7.702445983886719,8.0,4.0,10-13,1.5828173955281606
08-30,8.380252838134766,5.150260925292969,-5.136928558349609,1.6600379943847656,8.236640930175781,-16.612686157226562,7.2285003662109375,5.884864807128906,12.61227416992189,7.236480712890625,-5.101646423339844,-7.058929443359375,8.0,4.0,10-14,1.8732601801554374
08-31,7.951778411865234,5.461071014404297,-5.315010070800781,0.7035713195800852,9.508460998535156,-22.252464294433594,6.526252746582031,7.377326965332031,11.356758117675795,3.2449417114257812,-4.71514892578125,-6.633213043212891,8.0,4.0,10-15,1.1011937459309913
09-01,9.45738410949707,4.068004608154297,-4.78076171875,-0.2483215332031179,10.465766906738281,-22.178123474121094,9.297149658203125,7.320655822753906,10.462661743164062,4.307411193847642,-5.739341735839844,-7.51434326171875,7.0,5.0,10-16,1.243178526560465
09-02,9.773101806640625,4.272197723388672,-3.639739990234382,0.5069999694824219,10.048179626464844,-17.990554809570312,7.714729309082031,6.382560729980469,10.224868774414048,4.680747985839844,-4.71514892578125,-6.01939392089843,8.0,4.0,10-17,1.7698790232340482
09-03,9.845264434814453,4.00921630859375,-1.2847747802734446,2.114391326904304,11.122207641601562,-18.0184326171875,7.9581756591796875,-0.17465972900390625,10.947090148925767,4.594444274902315,-5.4738922119140625,-5.455078125,7.0,5.0,10-18,1.6819960276285773
09-04,10.293066024780273,5.212436676025405,-2.4605941772460938,2.8052330017089844,10.151023864746094,-15.110282897949219,9.758460998535156,-0.8370285034179688,11.175750732421875,2.5615081787109233,-6.8652496337890625,-4.629974365234375,7.0,5.0,10-19,1.837862491607666
09-05,8.714187622070312,5.798717498779304,-0.3514366149902344,3.1639137268066406,9.734809875488281,-12.753822326660156,9.375251770019531,-1.45208740234375,10.423042297363295,2.3604888916015625,-6.8942413330078125,-3.0030059814453196,7.0,5.0,10-20,2.0929848353068046
09-06,9.409904479980476,4.95793533325196,0.4949836730957031,1.3843154907226562,9.184028625488281,-9.297592163085952,6.8515167236328125,0.37416839599609375,8.539779663085952,4.648216247558608,-9.073921203613281,-4.233005523681655,9.0,3.0,10-21,1.9366941452026378
09-07,9.43701171875,5.248805999755874,-1.1990547180175781,0.9425048828125,9.402542114257812,-7.8638687133789205,6.907806396484375,0.855926513671875,7.826400756835952,4.109466552734361,-14.774345397949219,-4.14300537109375,8.0,4.0,10-22,1.3958492279052734
09-08,8.772918701171875,4.540912628173828,-0.5506706237792969,0.3894767761230469,9.647926330566406,-4.819541931152358,5.8852081298828125,-0.1925964355468892,8.699989318847656,3.4091415405273295,-11.650123596191406,-5.303005218505859,7.0,5.0,10-23,1.5691363016764288
09-09,8.412090301513672,4.949314117431648,1.0013313293457031,-0.05266952514647727,10.032157897949219,-8.413337707519531,6.568748474121094,2.2914810180664062,8.635200500488295,2.0474777221679688,-9.796943664550795,-6.32273864746093,8.0,4.0,10-24,1.6126759847005225
09-10,7.338634490966804,3.065216064453125,2.1412887573242188,-0.9507675170898438,6.995140075683594,-9.063713073730469,5.510673522949219,1.0051040649414062,8.759040832519531,-2.8718032836914062,-7.5940628051757955,-2.5012130737304545,7.0,5.0,10-25,0.9861281712849941
09-11,7.057903289794922,2.3472061157226562,2.3517494201660156,-0.7158584594726634,5.3070831298828125,-10.039283752441406,8.257843017578125,0.7590789794921875,8.292182922363295,-9.465965270996094,-8.49265289306642,-1.730743408203125,7.0,5.0,10-26,0.32737859090169213
09-12,5.509174346923835,2.415386199951172,0.7229728698730469,-0.9687690734863281,4.918601989746094,-7.184410095214844,8.584884643554688,-0.1398468017578125,7.464134216308594,-10.155143737792955,-7.188255310058608,-1.2695503234863281,6.0,6.0,10-27,0.22576491038004617
09-13,4.470085144042976,1.6382217407226562,0.3849945068359375,-1.9804420471191406,7.019683837890625,-8.942886352539062,6.6709747314453125,1.79571533203125,4.962608337402344,-9.848854064941392,-6.878952026367173,-3.84954833984375,7.0,5.0,10-28,-0.37986660003661815
09-14,4.429435729980476,1.6835975646972656,-0.071624755859375,-3.102458953857422,8.2462158203125,-12.359573364257812,6.023643493652344,3.6376724243164062,4.315826416015625,-10.057731628417969,-12.422996520996094,-4.199546813964837,6.0,6.0,10-29,-1.156461715698241
09-15,2.050647735595703,1.9649467468261719,-1.2816505432128977,-2.5414390563964844,7.773994445800781,-9.50146484375,7.216651916503906,1.27618408203125,3.6798324584960938,-10.326721191406236,-13.81045532226564,-5.695331573486335,6.0,6.0,10-30,-1.5995670954386405
09-16,0.5306587219238281,2.2281112670898438,1.3076896667480398,-1.7492752075195312,9.005447387695312,-11.059364318847656,4.697929382324219,0.8787918090820312,5.318367004394531,-14.66106414794919,-13.073066711425781,-7.942707061767585,7.0,5.0,10-31,-2.0432068506876617
09-17,0.8283424377441406,2.7130699157714773,3.4741554260253906,-0.9801216125488352,5.89532470703125,-11.031478881835938,4.9600982666015625,0.8583450317382812,6.328338623046875,-11.33358764648436,-10.927230834960938,-8.269412994384773,7.0,5.0,11-01,-1.457013130187989
09-18,1.8578681945800852,3.6937713623046946,0.8434295654296875,0.364349365234375,4.03619384765625,-10.836380004882812,8.828514099121094,0.49875640869140625,6.6522979736328125,-13.324882507324219,-11.023841857910156,-6.334197998046875,8.0,4.0,11-02,-1.2286767959594715
09-19,0.23107147216796875,3.8528213500976634,-0.7807769775390625,1.4265861511230469,4.526420593261719,-11.11679077148439,8.894645690917969,1.199005126953125,8.882019042968764,-14.014076232910156,-11.304054260253906,-4.183135986328118,7.0,5.0,11-03,-1.0321887334187814
09-20,0.371124267578125,4.611804962158203,4.159854888916016,1.4357948303222656,4.493125915527344,-6.038505554199219,9.101036071777344,0.6602249145507812,7.8833084106445455,-13.095161437988281,-11.01544189453125,-3.2731361389160156,8.0,4.0,11-04,-0.05883089701334517
09-21,0.8364448547363281,-0.3815498352050781,5.844764709472656,1.4314651489257812,4.766265869140625,-7.6491241455078125,11.33392333984375,-2.2869338989257812,8.159141540527358,-11.848106384277344,-8.389541625976562,-3.40313720703125,6.0,6.0,11-05,-0.1321989695231108
09-22,0.6351737976074219,-0.7173347473144531,8.894947052001953,0.9980201721191406,6.840309143066406,-10.479286193847656,10.693580627441406,-1.4273452758789062,8.160240173339844,-20.537796020507812,-5.9250946044921875,-2.0267257690429688,6.0,6.0,11-06,-0.4076093037923177
09-23,1.4560508728027344,-0.40424346923828125,12.104022979736321,1.7395401000976634,5.1134796142578125,-4.224784851074219,12.734764099121094,2.352935791015625,7.982078552246094,-16.70208740234375,-5.614616394042969,0.022640228271484375,8.0,4.0,11-07,1.3799816767374675
09-24,2.430286407470703,-1.6705207824707031,11.507328033447266,4.120658874511719,2.1891632080078125,-5.432624816894531,12.528762817382812,2.5508270263671875,10.325988769531236,-15.7623291015625,-6.610626220703125,-0.24467086791992898,7.0,5.0,11-08,1.327686945597329
09-25,4.164264678955078,-1.1348228454589844,11.273975372314453,3.5720138549804616,2.5175247192382812,-3.7787933349609375,12.968833923339844,4.0932159423828125,9.497039794921875,-15.596473693847656,-4.8810882568359375,-1.4766960144042969,7.0,5.0,11-09,1.7682495117187493
09-26,4.6756134033203125,-0.7485160827636719,11.612548828125,4.408927917480462,2.1891632080078125,-2.519104003906236,14.989120483398438,4.026969909667969,7.2684173583984375,-15.280593872070298,-3.257843017578125,-2.4867897033691335,7.0,5.0,11-10,2.073159535725914
09-27,5.6017303466796875,0.40130615234375,9.047630310058594,3.2133331298828125,0.4755859375,-1.9698486328125,15.082939147949219,4.754447937011719,6.840415954589844,-16.898277282714844,0.0697021484375,3.2432098388671875,10.0,2.0,11-11,2.4885145823160806
09-28,5.050575256347656,1.019775390625,11.020214080810547,1.7939529418945312,0.8591537475585938,-2.9474105834960795,16.21813201904297,-0.3463897705078125,7.315971374511719,-21.56728363037108,0.7652053833007812,5.123207092285149,9.0,3.0,11-12,2.0254252751668314
09-29,3.949371337890625,0.094085693359375,11.253089904785163,0.2341613769531179,1.08599853515625,-2.714660644531236,12.504226684570312,-1.3759994506835938,7.820838928222656,-22.77222442626953,-0.088623046875,6.080745697021484,8.0,4.0,11-13,1.3392508824666354
09-30,3.1059494018554688,0.47978973388671875,13.34600830078125,0.34471893310546875,-0.9278488159179688,-1.1745223999023438,10.00421142578125,-3.7010650634765625,7.211761474609361,-26.857254028320312,-0.6028594970703125,6.328254699707031,7.0,5.0,11-14,0.629762013753254
10-01,4.215492248535156,-0.86773681640625,16.34954833984375,0.5842056274414062,-1.1626052856445312,0.8416671752929688,9.264533996582031,-4.2887115478515625,7.0974349975585795,-29.475143432617188,1.2882003784179688,7.397487640380859,8.0,4.0,11-15,0.9370311101277657
10-02,3.718341827392571,-1.5997848510742188,16.23974609375,-0.7369270324707031,-1.2597274780273438,0.6465682983398438,4.486167907714844,-3.0869674682617188,5.201354980468736,-30.394821166992173,3.0080718994140625,6.026988983154297,7.0,5.0,11-16,0.18741766611734967
10-03,2.7664031982421804,-1.4270858764648366,15.594661712646484,1.1300544738769531,-1.0007171630859375,-0.49017333984375,1.650146484375,-1.298553466796875,4.7905349731445455,-30.758560180664062,2.0032119750976562,6.57343673706054,7.0,5.0,11-17,-0.038886706034341856
10-04,3.683490753173828,-2.0542526245117188,12.433372497558587,0.9736900329589844,-2.1937942504882812,3.0355377197265483,4.0331268310546875,0.2327728271484375,4.952239990234389,-30.61496734619142,1.6736373901367045,9.253437042236321,9.0,3.0,11-18,0.4506909052530889
10-05,3.435016632080071,-3.1847457885742188,10.999595642089837,2.957653045654304,-0.5882034301757812,1.3504409790039062,2.3350143432617188,-1.8831253051757812,4.74298858642581,-28.024459838867173,3.8908462524414062,9.253437042236321,8.0,4.0,11-19,0.4403715133667016
10-06,1.9411811828613281,-3.7247390747070312,10.205085754394531,3.2339324951171804,-1.9122314453125,2.5793304443359517,2.3202896118164062,-1.6564254760742188,5.152061462402344,-23.39495086669922,1.73687744140625,9.71875,8.0,4.0,11-20,0.5165967941284185
10-07,1.8825492858886719,-3.7428855895996165,10.188064575195312,4.127426147460945,-2.2039031982421875,4.568885803222656,1.4495010375976562,-3.7204513549804688,5.057289123535156,-22.9058837890625,0.9024505615234375,9.005928039550781,8.0,4.0,11-21,0.3840808868408203
10-08,-0.3636016845703125,-3.269592285156257,8.503887176513672,4.127426147460945,-2.0194091796875,3.6862335205078125,-1.6123123168945312,-3.7568893432617188,4.8667449951171875,-22.9058837890625,3.508277893066392,8.055500030517571,6.0,6.0,11-22,-0.09830156962077001
10-09,-1.1452445983886648,-2.9286537170410156,7.6666412353515625,3.0045089721679688,-2.047149658203125,6.101936340332031,-4.201194763183594,-1.3723297119140625,4.8667449951171875,-28.53044891357422,3.6435546875,8.164398193359375,6.0,6.0,11-23,-0.5647697448730463
10-10,-1.7905540466308594,-3.1377182006835938,7.6666412353515625,3.71728515625,-3.5917892456054688,9.114356994628906,-3.03082275390625,-1.3723297119140625,4.8100433349609375,-22.902076721191406,3.3343582153320312,7.520881652832031,6.0,6.0,11-24,0.028189659118652344
10-11,-1.0180320739746094,-3.1377182006835938,6.862068176269531,3.5655288696289062,-4.395378112792969,16.895408630371094,-3.0871124267578125,-0.5795364379882812,4.667366027832017,-18.259628295898438,4.228363037109375,7.520881652832031,6.0,6.0,11-25,1.1051842371622709
10-12,-1.0180320739746094,-4.569797515869141,6.492210388183594,4.389194488525391,-4.963783264160156,14.865859985351562,-3.0871124267578125,-0.8156814575195312,4.933692932128906,-15.30514526367189,4.932373046875,7.520881652832031,6.0,6.0,11-26,1.1145550409952787
10-13,-0.4224052429199219,-4.567512512207031,6.753002166748054,4.025360107421882,-5.408226013183594,14.865859985351562,0.02626800537109375,-0.2176513671875,4.8955154418945455,-20.760803222656264,5.4466094970703125,7.095165252685547,7.0,5.0,11-27,0.9775985081990571
10-14,-1.3055915832519531,-4.6856842041015625,3.490879058837905,2.9476356506347656,-5.408226013183594,12.166114807128906,-0.6004180908203125,2.3845672607421875,4.2399978637695455,-18.99637603759767,5.4466094970703125,8.104999542236321,7.0,5.0,11-28,0.6487089792887376
10-15,-2.0736122131347656,-4.653861999511726,4.328136444091797,2.2245407104492188,-4.986030578613281,7.978546142578125,-1.8763656616210938,2.0817718505859517,2.486831665039091,-19.56213378906253,2.860321044921875,7.269996643066406,7.0,5.0,11-29,-0.3268216451009109
10-16,-1.4004783630371094,-5.6400909423828125,6.4876251220703125,1.2020606994628835,-6.06005859375,5.092506408691406,-3.7245864868164062,-0.29334259033203125,2.505874633789091,-17.73059082031247,3.6190643310546875,7.930000305175781,6.0,6.0,11-30,-0.6676680246988891
10-17,-3.2165679931640696,-5.503746032714844,7.695484161376953,0.5112190246582031,-5.6434173583984375,2.6533279418945312,-2.617523193359375,-1.2679595947265625,2.9060745239257812,-15.69765472412108,4.98712158203125,9.159999847412116,6.0,6.0,12-01,-0.5028034845987944
10-18,-3.550872802734382,-5.626445770263672,8.107242584228516,0.7368965148925781,-8.036865234375,-5.623130798339844,-1.294677734375,8.885292053222642,3.658782958984361,-14.172973632812472,7.674713134765625,9.159999847412116,6.0,6.0,12-02,-0.0068365732828776045
10-19,-2.7377052307128977,-3.5676612854003906,7.260822296142578,2.104778289794922,-8.944282531738281,-5.1390380859375,-0.7129974365234375,7.059036254882798,4.51629638671875,-11.698898315429673,3.1436309814453125,9.159999847412116,6.0,6.0,12-03,0.03699843088785807
10-20,-3.3069419860839844,-3.858531951904304,7.5033111572265625,2.5377235412597585,-8.944282531738281,-2.2902374267578125,-3.7620925903320312,7.200958251953111,5.221382141113267,-12.40853118896483,3.036888122558608,9.069999694824212,6.0,6.0,12-04,-2.9563903810370107e-05
10-21,-2.6428489685058594,-3.2586097717285156,5.449058532714844,2.3627128601074148,-8.722053527832031,-3.9380874633789062,-2.7394943237304688,10.285751342773438,5.659698486328125,-12.40853118896483,1.0866775512695312,10.229999542236321,6.0,6.0,12-05,0.11368942260742188
10-22,-1.9697189331054688,-1.5679512023925781,5.2523193359375,2.3350677490234304,-8.3424072265625,-0.25138092041015625,-4.634613037109375,9.576057434082045,3.8874740600585938,-7.805679321289077,2.40625,8.419998168945312,6.0,6.0,12-06,0.608784675598144
10-23,-1.0390892028808594,-1.6906661987304688,5.046436309814453,3.94244384765625,-5.2360076904296875,-1.4895782470703125,-4.165534973144531,10.257369995117188,3.7445449829101562,-6.760459899902344,0.10674285888671875,7.840000152587891,6.0,6.0,12-07,0.8796834945678711
10-24,0.09488296508789062,-1.3997955322265625,6.3183441162109375,3.693744659423828,-6.6202239990234375,0.8379135131835938,-2.720703125,9.793693542480469,2.267669677734361,-1.9849777221679688,0.07764434814450283,10.419998168945312,8.0,4.0,12-08,1.7315158843994105
10-25,0.18524169921875,-2.158763885498047,7.09613037109375,2.901580810546875,-8.360969543457031,2.1598739624023438,-6.754913330078125,10.276298522949219,2.5821075439453125,-2.9247360229492188,-1.8337783813476562,10.419998168945312,7.0,5.0,12-09,1.1323391596476238
10-26,-0.7273330688476562,-1.6133956909179688,7.141868591308594,1.966625213623054,-10.360923767089844,-0.22345733642578125,-5.891754150390625,10.777824401855469,1.84844970703125,-4.248054504394517,2.8234329223632955,10.419998168945312,6.0,6.0,12-10,0.9927733739217152
10-27,-0.4879035949707031,-1.6179428100585938,4.662113189697266,0.3960914611816406,-11.240547180175781,0.6702880859375,-4.052940368652344,11.156303405761719,1.1910018920898438,1.5055084228515483,3.357086181640639,10.7699966430664,8.0,4.0,12-11,1.359087944030761
10-28,0.6415138244628906,-1.2452735900878906,2.4934730529785156,0.57110595703125,-10.698890686035156,-4.384956359863281,-6.013740539550781,13.370521545410156,0.8194122314452983,-0.3164520263672017,3.6772613525390767,12.840000152587898,7.0,5.0,12-12,0.9794979095458979
10-29,-0.06777191162109375,-1.5861358642578196,6.551662445068359,1.0316848754882812,-13.34234619140625,-5.902458190917969,-6.698631286621094,15.168411254882812,1.6007308959960938,0.02874755859373579,2.7749404907226562,11.379997253417969,7.0,5.0,12-13,0.9115692774454734
10-30,2.2633628845214844,-2.4178009033203196,5.3163604736328125,1.9574012756347656,-11.143302917480469,-5.055267333984375,-7.1958465576171875,14.58172607421875,0.714599609375,-1.515113830566392,4.8997955322265625,11.10999679565429,7.0,5.0,12-14,1.1263259251912434
10-31,1.8432159423828125,-2.4405403137207102,4.149684906005859,1.9574012756347656,-10.249801635742188,-7.624778747558594,-10.488868713378906,16.644584655761733,0.066680908203125,-1.352088928222642,5.200584411621094,10.199996948242188,7.0,5.0,12-15,0.6588392257690447
11-01,3.803874969482422,-2.008781433105476,3.3353233337402344,1.7777862548828125,-9.546112060546875,-6.470344543457031,-8.640617370605469,12.348548889160156,-2.2391128540039205,-2.838439941406236,5.3946075439453125,10.199996948242188,6.0,6.0,12-16,0.4263941446940098
11-02,4.440860748291016,-3.463134765625,-1.3130722045898438,1.5244789123535227,-11.314598083496094,-7.4292449951171875,-8.227836608886719,12.556739807128906,-2.8679733276367188,0.4602966308593608,1.7464523315429688,10.199996948242188,6.0,6.0,12-17,-0.3072528839111334
11-03,4.657711029052734,0.6726036071777344,-3.1385841369628835,1.0040283203125,-10.981246948242188,-7.3082122802734375,-11.86798095703125,11.478004455566406,-4.630645751953139,-6.012458801269531,4.094482421875,10.329998016357422,6.0,6.0,12-18,-0.975191752115886
11-04,3.6186447143554688,0.8316879272460938,-3.3124542236328125,1.9159507751464773,-11.02294921875,0.8006134033203125,-10.010383605957031,11.468536376953125,-8.013107299804673,-9.723533630371094,4.967704772949219,9.30999755859375,7.0,5.0,12-19,-0.7641077041625971
11-05,2.3853225708007812,0.8635063171386719,-1.5967369079589844,3.2746086120605398,-8.208183288574219,-4.617706298828125,-10.010383605957031,10.001853942871094,-6.717300415039034,-11.833145141601562,6.384269714355469,9.75,6.0,6.0,12-20,-0.8603245417277
11-06,0.9848594665527344,1.0043869018554688,-2.5620956420898438,0.216461181640625,-6.777671813964844,-7.289642333984389,-11.230018615722656,9.509803771972656,-5.2690353393554545,-13.7606201171875,8.897239685058594,10.7699966430664,6.0,6.0,12-21,-1.2921946843465175
11-07,0.24847030639649148,0.9089431762695312,-1.4640541076660156,1.1283836364746094,-4.435127258300781,-6.610008239746094,-13.078239440917969,9.207008361816392,-2.429656982421875,-15.505867004394531,5.6759796142578125,5.039997100830078,6.0,6.0,12-22,-1.7761809031168625
11-08,1.0345611572265625,0.9953041076660156,-1.7065505981445312,3.076580047607422,-2.6064453125,-3.239837646484389,-14.185287475585938,8.696044921875,-0.7527084350585938,-11.38247680664064,6.355171203613281,5.039997100830078,6.0,6.0,12-23,-0.7229706446329777
11-09,2.425994873046882,-0.15451812744140625,-0.022884368896484375,4.536586761474624,-1.3564453125,-3.2025833129882955,-14.598091125488281,8.629798889160156,-1.1814651489257812,-15.122291564941406,8.577064514160156,5.039997100830078,5.0,7.0,12-24,-0.5357364018758132
11-10,2.9771499633789134,-1.0134925842285156,-0.850982666015625,4.426029205322273,-1.3564453125,-3.2025833129882955,-15.733283996582031,9.386825561523438,-0.9909133911132812,-11.037261962890625,8.577064514160156,3.1599998474121165,5.0,7.0,12-25,-0.4714911778767898
11-11,3.3972930908203196,-1.1180152893066406,-2.6673355102539062,4.057582855224609,-1.7731170654296875,-2.178489685058608,-12.674827575683594,10.541236877441406,1.8008041381835938,-13.4154052734375,9.275642395019531,3.4399986267089844,6.0,6.0,12-26,-0.10955270131429096
11-12,4.025249481201179,0.06817626953125,-2.4889068603515625,3.6891212463378906,0.5370254516601562,-1.0706253051757812,-11.14556884765625,9.888313293457045,2.524932861328139,-17.634689331054688,10.207084655761719,4.859996795654297,8.0,4.0,12-27,0.2883424758911162
11-13,5.145622253417969,-0.4453735351562642,-2.5163612365722656,2.887744903564453,-0.5555267333984375,0.5213699340820312,-8.03082275390625,8.847442626953125,4.716392517089844,-9.138565063476562,10.866844177246094,2.6800003051757812,7.0,5.0,12-28,1.2482306162516263
11-14,4.540248870849602,-1.0498542785644602,-2.1777992248535156,3.772022247314453,-0.6527557373046875,-3.826385498046861,-10.667121887207045,9.330039978027344,5.612022399902344,-8.707061767578125,11.119117736816406,0.0,5.0,7.0,12-29,0.6077060699462878
11-15,4.246597290039055,-1.113464355468757,-2.7085380554199148,2.4824447631835866,-1.5555343627929688,-2.35540771484375,-13.416000366210938,6.6994476318359375,6.669631958007798,-12.082473754882827,9.86749267578125,0.0,5.0,7.0,12-30,-0.2721503575642939
11-16,3.9484367370605398,0.06362152099609375,-1.9444618225097585,2.284404754638679,0.2962799072265625,-1.880584716796875,-12.853080749511719,6.084381103515625,6.602958679199219,-15.736000061035156,11.526626586914062,0.0,7.0,5.0,12-31,-0.13395150502522726
11-17,4.196910858154297,0.4635734558105469,-0.2653656005859304,1.3909111022949148,0.2962799072265625,-1.880584716796875,-11.15496826171875,8.809616088867188,6.4028778076171875,-16.225067138671875,11.526626586914062,0.0,7.0,5.0,01-01,0.29673417409261066
11-18,4.757087707519531,-0.4181251525878906,-0.6405258178710866,0.0,-0.5416717529296875,-4.626998901367202,-13.190818786621094,8.043144226074219,6.679168701171875,-17.442909240722656,10.798934936523438,0.0,4.0,8.0,01-02,-0.5485595067342128
11-19,5.579315185546868,-0.5499229431152344,0.9333229064941406,1.0040321350097585,-0.0231475830078125,-5.241455078125,-10.845382690429688,5.308464050292969,6.1646575927734375,-17.74017333984375,12.962608337402344,0.0,6.0,5.0,01-03,-0.20397345225016394
11-20,5.574802398681641,-0.4953804016113281,1.1437873840332031,2.892364501953125,0.425933837890625,-6.274848937988281,-11.276954650878906,5.138130187988281,7.4890594482421875,-11.26739501953125,11.35198974609375,0.0,7.0,4.0,01-04,0.3917907079060872
11-21,4.1201171875,-0.06818008422851562,2.4888954162597727,2.5515403747558523,-0.6805343627929688,-9.002647399902344,-11.051773071289048,7.446990966796861,8.832527160644545,-14.757888793945298,10.129470825195312,0.0,6.0,5.0,01-05,0.0007098515828474206
11-22,5.511558532714844,-0.16362380981445312,3.0241966247558594,2.160053253173821,-2.3749771118164062,-6.8148193359375,-12.093154907226548,7.901214599609375,8.899230957031264,-9.675567626953125,10.818351745605469,0.0,6.0,5.0,01-06,0.5993719100952166
11-23,4.955879211425781,1.6497650146484446,4.5660438537597585,2.3903427124023366,-2.1434860229492188,-11.991119384765625,-11.670967102050767,6.264183044433594,8.832527160644545,-10.289291381835938,11.128829956054688,0.0,7.0,4.0,01-07,0.3077255884806333
11-24,4.937824249267578,1.1498336791992259,4.904605865478516,4.214168548583984,-2.39349365234375,-14.290657043457031,-16.718395233154297,7.229347229003892,8.851577758789062,-8.265960693359375,14.476219177246094,0.0,7.0,4.0,01-08,0.34125582377115826
11-25,4.4137725830078125,1.5497817993164134,5.160820007324219,4.3016815185546875,-1.0833282470703125,-12.158668518066406,-15.207927703857422,7.759231567382798,11.76717376708983,-7.7001800537109375,15.300933837890625,0.0,7.0,4.0,01-09,1.1752742131551088
11-26,5.534145355224609,1.7724685668945312,3.129436492919922,3.4496383666992116,-1.1203460693359375,-9.672958374023438,-13.791255950927734,11.1090087890625,12.281684875488267,-6.7316741943359375,14.971023559570312,0.0,7.0,4.0,01-10,1.7442642847696923
11-27,5.113990783691406,2.290576934814453,3.0104751586914062,4.398406982421882,0.16202545166015625,-2.8302230834960938,-15.536266326904297,9.03668212890625,11.32888031005858,-2.646636962890611,14.544120788574219,0.0,8.0,3.0,01-11,2.4060026804606127
11-28,5.6741790771484375,2.604175567626953,4.5431671142578125,3.8134956359863352,0.8240585327148438,0.1489105224609375,-16.802833557128906,9.396293640136719,11.595687866210909,-4.391876220703139,15.950981140136719,0.0,9.0,2.0,01-12,2.7796866099039685
11-29,5.263069152832031,3.41314697265625,2.2601280212402415,3.2193641662597727,0.9259262084960938,0.204803466796875,-18.538471221923828,11.809204101562514,10.96682739257811,-6.022064208984375,16.83391571044922,0.0,9.0,2.0,01-13,2.5279874801635756
11-30,4.034263610839844,4.407569885253913,-0.2607879638671804,3.905601501464851,0.8379364013671875,-2.5416030883789062,-19.242103576660156,2.271011352539091,9.232704162597642,-4.017898559570327,15.01955413818358,0.0,7.0,4.0,01-14,1.1371873219807949
12-01,4.345455169677734,3.189567565917976,0.2928009033203196,3.8641319274902344,-0.71295166015625,-2.0295791625976562,-18.48987197875976,0.1608734130859517,8.670547485351548,-10.778335571289034,14.291862487792955,0.0,7.0,4.0,01-15,0.233708381652835
12-02,4.887584686279297,2.1760902404785227,0.2790794372558665,3.4174041748046946,1.666656494140625,-2.2216644287109375,-15.497066497802727,1.1165924072265625,13.425041198730469,-9.205688476562472,15.077774047851548,0.0,8.0,3.0,01-16,1.260150273640954
12-03,4.991493225097656,2.2306251525878977,0.8836326599121094,3.698719024658203,2.347259521484375,-3.6181411743164062,-15.619022369384759,1.0209884643554688,13.958602905273438,-9.12899780273436,17.42578125,0.0,8.0,3.0,01-17,1.5159117380778018
12-04,4.896610260009766,1.6529731750488281,0.49871063232421875,3.8508872985839844,1.5833816528320312,-4.7353515625,-15.149944305419915,1.0399551391601562,11.914749145507812,-4.9665985107421875,14.25302886962892,0.0,8.0,3.0,01-18,1.2365334828694678
12-05,4.914825439453125,2.8911399841308594,0.8103103637695312,3.1416091918945312,2.3935546875,-2.640625,-10.09037780761718,1.1252517700195312,12.191246032714844,-3.1062698364257955,15.66961669921875,0.0,8.0,3.0,01-19,2.275023460388183
12-06,4.403572082519531,3.9381179809570312,0.2944908142089844,3.3074111938476562,4.865730285644531,-1.3860092163085938,-12.244571685791016,1.5131149291992188,14.134979248046875,-3.1062698364257955,12.399864196777344,0.0,8.0,3.0,01-20,2.343369166056314
12-07,4.620738983154297,4.041595458984375,1.1454811096191406,3.7725830078125,5.624855041503906,2.1400604248046875,-14.116546630859375,1.9294357299804688,13.315567016601562,-4.525489807128906,12.419151306152344,0.0,9.0,2.0,01-21,2.5306193033854165
12-08,5.071800231933594,4.2733917236328125,2.2435302734375,3.9019546508789062,5.096488952636719,1.22589111328125,-15.675819396972656,0.6046981811523438,13.354667663574247,-2.33831787109375,10.754493713378906,0.0,9.0,2.0,01-22,2.3760649363199895
12-09,4.873020172119141,4.259757995605469,0.6831741333007812,4.252468109130859,5.22161865234375,1.4608993530273438,-16.86730194091797,-1.0326538085937642,12.697402954101562,-0.41617584228515625,9.518165588378906,0.0,8.0,3.0,01-23,2.0541979471842438
12-10,4.4302825927734375,4.895942687988281,1.0386734008789062,4.118721008300781,5.834007263183594,3.6580352783203125,-16.679664611816406,-0.18058013916015625,15.035163879394531,-4.443069458007798,8.273170471191406,0.0,8.0,3.0,01-24,2.165056864420574
12-11,4.828033447265625,5.082561492919922,2.156768798828125,2.851055145263672,7.246009826660156,3.5928573608398438,-10.291202545166016,-2.085601806640625,16.00843048095703,-5.066986083984375,8.438102722167969,0.0,8.0,3.0,01-25,2.7300024032592773
12-12,1.7181320190429616,5.087108612060547,1.6756172180175781,1.9253387451171875,6.273811340332031,3.8811187744140625,-10.004077911376953,-1.877082824707017,17.495735168457017,-6.850601196289077,6.458793640136719,0.0,8.0,3.0,01-26,2.148657798767088
12-13,2.1343765258789062,4.240428924560547,3.877887725830078,2.9523887634277273,4.786407470703125,5.24114990234375,-14.171348571777344,-3.731437683105483,17.819694519042955,-5.795791625976548,6.415916442871094,0.0,8.0,3.0,01-27,1.9808060328165673
12-14,1.3063926696777344,4.905704498291016,6.316455841064453,2.8419952392578054,2.766021728515625,6.677703857421875,-9.994678497314453,-0.135650634765625,18.10552215576172,-2.5148239135742188,2.1403732299804688,0.0,8.0,3.0,01-28,2.7012513478597
12-15,0.3300743103027415,5.60107421875,5.735416412353516,2.0592079162597727,1.17633056640625,7.3026885986328125,-10.369831085205078,0.138763427734375,18.17078399658203,2.9838485717773438,-0.9845123291015625,0.0,9.0,2.0,01-29,2.678653717041017
12-16,-0.3520965576171804,5.423809051513672,3.3090972900390625,1.56573486328125,3.5493011474609375,2.6107864379882812,-8.962574005126953,0.527458190917983,17.17077636718747,2.0227813720703125,-0.5853805541992188,0.0,8.0,3.0,01-30,2.189974466959635
12-17,0.00026702880860085543,5.338188171386719,3.985767364501953,2.829418182373047,2.3998641967773438,-2.667877197265625,-6.617115020751953,-0.39266204833984375,16.04482269287108,2.762786865234375,-3.3179779052734375,0.0,7.0,4.0,01-31,1.6971235275268548
12-18,-0.587627410888679,5.105876922607422,4.53106689453125,1.184814453125,1.3119277954101562,-3.8874893188476562,-2.45452880859375,-2.003875732421875,14.699409484863281,5.429832458496108,-5.045021057128906,0.0,6.0,5.0,02-01,1.523698806762696
12-19,-1.866901397705071,6.862987518310547,4.911396026611335,1.8618431091308594,-0.2297210693359375,-5.524497985839844,0.9007949829101562,-1.6437149047851562,13.088935852050781,6.4175491333007955,-5.685394287109375,0.0,6.0,5.0,02-02,1.5911064147949243
12-20,0.4542045593261719,7.313636779785156,3.703388214111328,0.977558135986321,-1.0206222534179688,-5.4498138427734375,-0.9147872924804688,-1.890632629394517,11.078506469726562,9.524467468261733,-6.3914794921875,0.0,6.0,5.0,02-03,1.4487021764119483
12-21,1.12384033203125,7.163551330566406,3.607311248779297,0.7280197143554688,-1.016448974609375,-2.1942520141601562,-2.730304718017578,-1.3134231567382812,8.401115417480469,11.662338256835923,-9.922897338867188,0.0,6.0,5.0,02-04,1.2924041748046864
12-22,-0.19068527221680398,6.9135894775390625,3.538684844970703,2.766010284423828,-2.6385726928710938,1.3411483764648438,0.5327987670898438,-1.8622436523437642,9.127357482910142,15.545257568359375,-11.422073364257812,0.0,7.0,4.0,02-05,1.970939318339027
12-23,-1.1484260559082031,7.254440307617195,3.8319129943847656,2.161823272705078,0.5315628051757812,-0.9604263305664062,-3.1073455810546875,-2.0439910888671875,3.4149246215820312,16.054611206054688,-9.231719970703125,0.0,6.0,5.0,02-06,1.3964471817016608
12-24,-1.4601402282714844,7.772434234619141,4.689334869384766,2.8674583435058594,-0.2699127197265625,1.2367172241210938,-2.8540267944335795,-1.3608322143554688,0.29471588134765625,15.064720153808594,-6.309867858886719,0.0,6.0,5.0,02-07,1.639216740926108
12-26,-3.1301422119140625,7.107822418212891,5.624111175537109,3.8213577270507812,-0.158782958984375,2.3836669921875,-3.0495262145996094,-4.914955139160156,-3.3121414184570312,7.100944519042969,-6.154640197753906,0.0,5.0,6.0,02-09,0.4431428909301758
12-27,-3.7092819213867188,6.729999542236328,5.757015228271484,3.7845077514648438,1.9830093383789062,1.5356979370117188,-1.7607574462890625,-4.0145721435546875,-2.3116912841796875,7.2927398681640625,-6.808525085449219,0.0,6.0,5.0,02-10,0.7065118153889974
12-28,-2.3699989318847656,6.424903869628906,6.932838439941399,5.221546173095696,4.3272552490234375,1.6849517822265625,-4.432338714599609,-3.172393798828125,-2.3974380493164062,5.444770812988281,-7.5605316162109375,0.0,6.0,5.0,02-11,0.8419637680053699
12-29,-4.922328948974609,5.8749847412109375,6.196235656738281,5.836307525634766,3.2612533569335938,1.04132080078125,-4.8071136474609375,-2.8222732543945312,-6.405792236328125,5.2711181640625,-8.19329833984375,0.0,6.0,5.0,02-12,0.02753448486328125
12-30,-4.714515686035156,5.620479583740234,6.457733154296875,5.863979339599609,3.50689697265625,0.63720703125,-4.3567657470703125,-1.0691757202148438,-8.65576171875,6.91455078125,-7.132194519042969,0.0,6.0,5.0,02-13,0.25603612263997394
12-31,-4.032352447509766,5.907005310058594,4.8285255432128835,6.214485168457031,3.4561767578125,1.2237319946289062,-4.525657653808608,-1.833168029785142,-5.72637939453125,8.279273986816406,-7.887092590332031,0.0,6.0,5.0,02-14,0.4920457204182937
