,2009,2010,2011,2012,2013,2014,2015,2016,2017,2018,2019,2020,ups,downs,end_day_sum,avg
01-02,-2.407441139221188,-0.15061378479004262,1.5966529846191406,2.3295364379882812,0.24694442749024148,-1.4241714477539062,-0.5355072021484375,-7.990791320800781,5.903022766113281,-1.5940399169921875,5.98308563232419,-9.068901062011719,5.0,7.0,02-16,-0.5926853020985939
01-03,-2.4735574722290075,-0.09769630432129262,1.5378303527832031,2.3251953125,0.5997276306152415,-1.6346664428710938,4.334228515625,-5.682769775390625,6.2124557495117045,-1.7743301391601562,9.572944641113267,-7.194267272949219,6.0,6.0,02-17,0.4770912329355852
01-04,-2.7496967315673864,0.3338146209716797,2.447772979736328,2.24755859375,-0.15874481201171164,-0.12989044189453125,6.031608581542969,-3.9907989501953125,4.325721740722642,-1.0911712646484375,7.700805664062472,-8.470161437988267,6.0,6.0,02-18,0.5414015452067037
01-05,-3.4614324569702166,0.6994705200195312,2.2503089904785156,2.575408935546882,0.32633209228515625,0.6180267333984375,5.6140594482421875,-2.7064590454101562,5.8668746948242045,-2.4669952392577983,6.774383544921861,-8.774429321289048,8.0,4.0,02-19,0.6096290747324632
01-06,-4.047238349914551,0.31275177001953125,2.3763465881347656,2.4805068969726634,0.4983024597167969,-0.41651153564453125,6.346122741699219,-1.0145263671875,5.894882202148423,-1.9724197387695312,8.559669494628906,-9.579231262207017,7.0,5.0,02-20,0.7865545749664312
01-07,-3.3121805191040075,0.19876098632812145,2.914173126220696,3.2998428344726562,-1.1244773864746094,-0.2716064453125,5.8968353271484375,0.10732269287109375,5.438232421875,-2.0009918212890625,8.19296264648439,-8.401473999023438,7.0,5.0,02-21,0.9114499886830648
01-08,-3.720545768737793,0.37081718444824574,3.1220436096191406,3.612415313720703,-3.5920982360839844,-0.8045196533203125,3.191886901855483,0.5200042724609375,6.000862121582017,-2.7249069213867188,8.36666870117189,-8.725372314453125,7.0,5.0,02-22,0.46810460090637357
01-09,-3.6390018463134783,0.5512638092041016,3.4137802124023438,3.5472984313964844,-4.108013153076172,-1.1001052856445312,4.175788879394517,1.42449951171875,6.591629028320298,-2.040924072265625,7.951713562011719,-8.970741271972656,7.0,5.0,02-23,0.6497656504313127
01-10,-3.6552934646606463,0.38288116455078125,2.1115379333496094,2.6926498413085938,-4.271175384521484,-0.5423126220703125,5.021385192871108,2.4306793212890625,6.376106262207017,-0.5132904052734375,6.8419570922851705,-8.0662841796875,7.0,5.0,02-24,0.7340700626373303
01-11,-4.283368110656738,0.12825012207031605,2.126991271972649,2.494220733642578,-5.0500335693359375,1.2238616943359375,4.953117370605483,0.7229843139648438,6.151931762695298,-1.424186706542983,8.44757080078125,-9.618919372558608,8.0,4.0,02-25,0.4893683592478408
01-12,-3.7303457260131854,0.7412261962890625,1.7152137756347656,1.8902587890625,-3.586090087890632,0.6172866821289062,5.080581665039077,0.85455322265625,5.927764892578111,-1.7648849487304688,9.62076568603517,-13.206832885742188,8.0,4.0,02-26,0.3466247717539475
01-13,-3.5856056213378906,0.4806938171386683,1.9127006530761719,2.2709846496582102,-4.4807395935058665,1.6282501220703125,4.2440643310546875,2.75799560546875,6.244529724121094,1.210899353027358,10.473709106445327,-18.76610565185547,9.0,3.0,02-27,0.36594804128011277
01-14,-3.0294418334960938,-0.05665969848633168,1.4069099426269673,1.8165740966796875,-3.4266319274902415,1.2869186401367188,4.253158569335923,2.27984619140625,7.23724365234375,1.277580261230483,9.649841308593764,-19.995223999023423,8.0,4.0,02-28,0.22500960032145448
01-15,-3.47281455993652,-0.1825389862060547,2.01165771484375,2.3679122924804688,-2.1572303771972585,1.3719940185546875,4.602615356445327,5.043159484863281,6.430824279785156,-0.8370208740234233,11.254753112792969,-20.790229797363295,7.0,5.0,02-29,0.47025680541992393
01-16,-3.693896293640135,-0.8728485107421875,2.4133338928222656,2.363574981689453,-1.7118492126464844,2.728973388671875,2.7829208374023438,6.380592346191406,6.412055969238281,-3.5707855224609233,9.768623352050781,-17.521903991699205,7.0,5.0,03-01,0.4565659364064558
01-17,-3.13226890563965,-0.5278739929199183,2.1427268981933594,1.6342353820800781,-2.968658447265632,2.16998291015625,3.5810775756835795,4.875946044921875,7.218505859375,-1.5402755737304688,5.117256164550781,-24.003173828125,7.0,5.0,03-02,-0.45270999272664564
01-18,-3.535184860229492,-0.4375171661376953,2.2568931579589844,0.8318405151367188,-3.2993621826171875,3.7927780151367188,4.6370086669921875,7.691375732421875,6.546012878417969,-5.250251770019531,6.7859039306640625,-20.603622436523423,7.0,5.0,03-03,-0.04867712656656783
01-19,-3.6299905776977557,-0.297882080078125,2.4249649047851562,1.7550277709960938,-3.2505645751953125,3.4512863159179688,3.1987762451171875,7.460609436035156,5.7894515991210795,-6.545578002929702,8.593811035156236,-19.7559356689453,7.0,5.0,03-04,-0.06716863314310946
01-20,-3.1875743865966797,0.14991188049316406,3.0258140563964844,1.866729736328125,-2.9051055908203054,4.857666015625,3.5628814697265625,5.69512939453125,3.5350799560546733,-5.7896728515625,7.236846923828111,-20.662765502929673,8.0,4.0,03-05,-0.21792157491048236
01-21,-3.52205181121826,1.7904548645019531,3.4253311157226634,2.0517845153808594,-2.626079559326179,4.565589904785156,3.6218948364257812,7.166374206542969,2.07684326171875,-3.3988418579101562,6.645606994628892,-17.143859863281236,8.0,4.0,03-06,0.3877538839975993
01-22,-3.0670108795166,1.4443397521972692,2.443256378173828,1.6697540283203125,-2.967121124267578,5.837471008300781,2.1150970458984375,6.921531677246094,1.2703781127929688,-1.198493957519517,6.451759338378892,-17.408874511718764,8.0,4.0,03-07,0.2926739056905105
01-23,-3.9997272491455096,1.1281776428222692,1.9993019104003906,1.1444587707519531,-3.2493553161621094,5.958396911621094,3.7718048095703125,10.828140258789062,0.8765487670898438,-1.6920852661132812,8.671302795410156,-17.50701141357422,8.0,4.0,03-08,0.6608293851216634
01-24,-3.4883995056152344,1.2349567413330078,2.5531692504882812,1.1319122314453125,-3.5006942749023438,8.597145080566406,2.1834030151367188,11.640464782714844,5.0926437377929545,-3.2956314086914062,8.507240295410156,-22.299339294433594,8.0,4.0,03-09,0.6964058876037585
01-25,-3.456799507141115,0.9803218841552734,2.1099281311035085,0.7350234985351562,-3.5932769775390696,7.853614807128906,2.3290328979492188,9.923515319824219,5.765151977539034,-4.5006484985351705,6.583854675292969,-20.684944152832045,8.0,4.0,03-10,0.33706450462340715
01-26,-2.1967058181762695,1.7484245300293004,1.6015090942382812,0.9895477294921804,-0.9085617065429616,7.956962585449219,0.22629547119142046,9.282569885253906,5.045944213867173,-5.334220886230469,6.18731689453125,-24.6671142578125,8.0,4.0,03-11,-0.005669355392455759
01-27,-2.2187013626098633,1.9356842041015625,1.9670600891113281,1.9278907775878906,-0.7136764526367259,6.7033538818359375,-0.06286621093748579,9.080268859863281,1.2300872802734375,-1.3882446289062358,7.80596923828125,-20.16252899169922,7.0,5.0,03-12,0.5086913903554299
01-28,-2.9109926223754883,2.139230728149414,1.5805091857910085,1.6772041320800781,-0.11132431030273438,6.908912658691406,1.8523635864257955,9.733139038085938,0.4330291748047017,-2.5217514038085938,7.660591125488281,-26.151008605957045,8.0,4.0,03-13,0.024158557256063418
01-29,-2.3159351348876953,2.1051826477050817,1.5832595825195312,1.8161277770996094,0.4753456115722656,6.564064025878906,0.05060577392579546,7.5284881591796875,0.9863128662109375,-2.8932342529296733,7.082321166992202,-25.552307128906264,9.0,3.0,03-14,-0.21414740880330138
01-30,-1.0510034561157227,2.1205253601074148,1.7270088195800781,2.345783233642578,0.8413314819335938,5.9057159423828125,3.392204284667983,9.034790039062486,0.095458984375,-2.7167434692382812,6.532264709472685,-25.248054504394545,9.0,3.0,03-15,0.24827345212300678
01-31,-1.5453176498413086,2.2560558319091726,1.2873039245605469,2.024822235107422,1.8820419311523438,5.9068145751953125,2.1917190551758097,8.785560607910156,4.1483154296875,-3.0773162841796733,6.155906677246108,-29.00741577148439,9.0,3.0,03-16,0.08404088020325003
02-01,-1.5690183639526385,2.317661285400387,0.01919937133788352,1.4726333618164062,1.0103034973144602,8.217231750488281,3.1793899536132812,8.80401611328125,3.634613037109375,-2.0240936279296733,4.2382049560546875,-26.25102996826172,9.0,3.0,03-17,0.2540926138559983
02-02,-1.162154197692871,2.6641597747802734,0.3805580139160085,1.9299163818359304,1.312774658203125,8.837318420410156,1.8959121704101705,12.8565673828125,3.6159439086914062,-0.8408203125,4.104560852050781,-37.852569580078125,9.0,3.0,03-18,-0.18815271059672037
02-03,-0.5686578750610369,2.961330413818356,0.19147491455077414,1.2999687194824219,1.2242012023925781,9.735954284667969,1.5404434204101705,10.953132629394531,2.885841369628892,3.2226028442382812,4.9962615966796875,-37.655426025390625,10.0,2.0,03-19,0.0655939579009998
02-04,-0.3625345230102539,3.5638179779052734,0.7798347473144602,1.4249420166015625,1.1223220825195312,8.312141418457031,1.2908172607421875,10.410591125488281,4.65435791015625,1.5937805175781108,4.947807312011719,-48.384552001953125,10.0,2.0,03-20,-0.887222846349081
02-05,-0.8253488540649396,2.839097976684574,0.8058509826660156,1.8026351928710938,1.4356765747070312,8.321090698242188,-0.034423828125,15.588302612304688,5.667106628417969,2.193862915039034,4.1465301513671875,-50.671417236328125,9.0,3.0,03-21,-0.7275863488515236
02-06,-1.3497419357299805,3.1858024597168004,1.2709121704101562,1.5725364685058594,1.4533157348632812,7.55975341796875,-1.8361129760742472,18.087669372558594,4.644989013671889,0.41043853759765625,5.024696350097656,-50.18067169189453,9.0,3.0,03-22,-0.8463677565256766
02-07,-1.5582323074340803,3.4116821289062536,1.0722160339355469,1.4954643249511719,1.6120834350585866,5.74981689453125,1.312774658203125,18.078445434570312,4.345237731933594,0.2491302490234375,6.2309646606445455,-44.87517547607423,10.0,2.0,03-23,-0.23963268597920737
02-08,-0.653653144836424,3.645782470703125,0.8836174011230469,1.3487815856933594,-0.4368133544921875,5.298065185546875,0.11576080322267046,18.955360412597656,4.2611846923828125,3.8831863403320312,7.9853286743164205,-40.07225036621094,9.0,3.0,03-24,0.4345292250315372
02-09,-0.8156080245971662,2.7886638641357493,0.9844551086425781,1.1675987243652344,-1.228668212890625,4.43988037109375,-0.31207275390625,17.723190307617188,4.233177185058594,-0.595611572265625,2.3533935546875,-47.18891143798828,7.0,5.0,03-25,-1.3708760738372796
02-10,0.026227951049806464,2.5484886169433594,0.5516738891601562,1.1729965209961009,-2.1498985290527344,4.287109375,-2.335594177246108,17.401336669921875,4.197166442871094,-3.8663558959960938,2.712013244628892,-37.775604248046875,8.0,4.0,03-26,-1.1025366783142108
02-11,0.03789329528808594,2.3530845642089915,0.3594551086425781,1.364715576171868,-2.083465576171875,2.6309432983398438,-2.3265457153320455,19.304779052734375,3.1666641235351562,-1.532676696777358,3.9720458984375,-35.20836639404297,8.0,4.0,03-27,-0.6634561220804874
02-12,0.20902252197265625,1.9962558746337926,0.6345710754394531,2.1287841796875,-0.8046493530273438,2.3622283935546875,-4.509513854980483,16.350608825683594,3.194793701171875,-1.5517120361328125,2.8502655029296733,-35.61076354980469,8.0,4.0,03-28,-1.0625090599060079
02-13,1.2080335617065447,2.131498336791992,0.6092109680175781,2.27203369140625,-1.9776458740234446,1.703887939453125,-6.734840393066406,14.48324584960936,4.273170471191392,-2.1020431518554545,2.580070495605483,-33.74596405029297,8.0,4.0,03-29,-1.274945179621379
02-14,1.165298461914059,2.004179000854492,1.1208076477050781,2.0968437194824148,-1.9291419982910156,0.560546875,-5.561759948730469,14.898643493652344,4.3134918212890625,-3.7720108032226562,3.1880340576172017,-29.449668884277344,8.0,4.0,03-30,-0.9470613797505694
02-15,1.192947387695309,2.1232891082763636,3.4374046325683594,2.101184844970696,-2.375713348388672,2.1702194213867188,-4.86541748046875,15.978645324707031,4.004058837890639,-4.076812744140625,2.9923171997070312,-33.33673095703125,8.0,4.0,03-31,-0.8878839810689291
02-16,1.2047967910766602,2.1232891082763636,3.0568885803222656,1.4673500061035156,-0.522613525390625,3.3609161376953125,-4.3875274658203125,17.20635223388672,3.7508544921875,-5.896156311035156,4.473670959472642,-32.429908752441406,8.0,4.0,04-01,-0.5493406454722102
02-17,2.21998882293701,1.7413444519042933,2.739776611328125,1.5498466491699219,-0.42517852783203125,4.789756774902344,-4.3875274658203125,15.600189208984375,2.681877136230483,-3.6196212768554545,5.78215789794919,-34.716697692871094,8.0,4.0,04-02,-0.503673950831096
02-18,2.125180244445801,1.6181392669677699,2.143627166748047,1.6627235412597656,-0.6333465576171875,5.068305969238281,-4.869987487792969,15.886337280273438,1.950462341308608,-6.801055908203125,5.801544189453111,-38.37359619140625,8.0,4.0,04-03,-1.2018055121103925
02-19,2.3858890533447283,1.1992301940917933,3.399364471435547,2.4788856506347727,-1.062957763671875,4.583015441894531,-4.533180236816406,14.640182495117188,1.950462341308608,-4.972206115722656,6.1310958862304545,-38.56006622314453,8.0,4.0,04-04,-1.0300237337748204
02-20,3.7052297592163104,1.8193702697753942,3.987071990966797,1.6106147766113281,0.5359115600585938,3.8236846923828125,-5.543548583984389,15.129402160644517,1.6597442626953267,-4.391166687011719,5.156433105468736,-38.905067443847656,9.0,3.0,04-05,-0.9510266780853289
02-21,5.32479190826416,1.9918575286865234,3.9278526306152344,1.6106147766113281,1.1692657470703125,3.3698806762695312,-5.875816345214844,14.280181884765625,1.8754348754882812,-4.6007232666015625,4.3131866455078125,-37.63352203369139,9.0,3.0,04-06,-0.8539162476857491
02-22,5.210234642028809,2.2711315155029297,3.9532432556152344,1.6844253540039062,0.6997871398925781,4.151695251464844,-5.584541320800781,13.578605651855483,2.0536041259765625,-4.829322814941406,3.4505386352539062,-34.34132385253906,9.0,3.0,04-07,-0.6418268680572498
02-23,4.629565238952637,2.4641704559326136,4.16888427734375,1.5107650756835866,0.6333427429199219,2.044403076171875,-5.2750244140625,15.886337280273438,2.2505340576171733,-5.515144348144531,2.5588302612304688,-28.230072021484375,9.0,3.0,04-08,-0.23945069313049525
02-24,4.076542854309084,2.1972217559814453,4.422565460205071,0.9767990112304688,0.5093231201171875,1.788299560546875,-4.8426666259765625,15.138656616210938,1.8379364013671875,-7.753578186035156,2.01605224609375,-23.833900451660156,9.0,3.0,04-09,-0.2888956864674892
02-25,4.274051666259766,2.624338150024414,3.6530609130859375,1.4543495178222656,1.0408210754394531,2.2106704711914062,-4.3419952392578125,13.910964965820312,3.3757705688476562,-7.544029235839844,1.8997421264648438,-18.274627685546875,9.0,3.0,04-10,0.35692644119262695
02-26,4.487359046936033,2.62432861328125,2.942729949951172,0.5687179565429688,0.8769378662109375,1.1502532958984375,-4.41937255859375,11.492439270019531,3.1319580078125,-6.829635620117202,3.3245468139648438,-17.7423553466797,9.0,3.0,04-11,0.13399227460225185
02-27,4.665111541748047,2.5873699188232386,2.7736167907714844,-0.3689994812011719,0.0,0.898651123046875,-3.204170227050753,14.123237609863281,3.3851318359375,-5.7437591552734375,2.6460647583007812,-12.321083068847656,7.0,5.0,04-12,0.7867643038431824
02-28,5.897552490234373,2.6736145019531214,2.274700164794922,0.6989479064941406,0.0,-3.5316390991210938,-3.732147216796875,13.98477172851561,3.403900146484375,-3.0099945068359375,2.8399124145507812,-10.94112396240233,7.0,5.0,04-13,0.8798745473225905
02-29,0.0,0.0,0.0,1.4282875061035156,0.0,0.0,0.0,15.147872924804702,0.0,0.0,0.0,-8.023490905761719,2.0,1.0,04-14,0.7127224604288749
03-01,5.960760116577147,2.8543281555175746,1.9153213500976562,0.816162109375,1.2400894165039062,-4.151702880859375,-3.691162109375,13.523239135742173,2.5974502563476562,-1.7431335449218608,1.7058715820312358,-11.463531494140625,8.0,4.0,04-15,0.7969743410746238
03-02,5.5657424926757795,2.837890625,1.8011550903320312,1.8797874450683594,0.2923011779785085,-3.8191909790039062,-4.433036804199219,13.754005432128892,3.4507827758789062,-0.200042724609375,4.109626770019531,-12.34079742431642,8.0,4.0,04-16,1.0748519897460909
03-03,5.783001899719238,2.6982555389404297,1.0697021484375,1.779937744140625,-1.8380393981933594,-3.8326873779296875,-3.308845520019517,12.858619689941392,2.8131484985351562,-2.62896728515625,4.9528961181640625,-15.682273864746094,7.0,5.0,04-17,0.3887290159861247
03-04,5.340585708618162,2.7105674743652344,1.6573944091796875,2.292217254638672,-0.460613250732429,-5.239067077636719,-3.672950744628892,11.095504760742188,3.0194625854492188,-0.9430084228515625,6.823539733886719,-19.20117950439453,7.0,5.0,04-18,0.2852044105529791
03-05,6.304421424865724,2.644866943359368,2.1690101623535156,2.9173736572265696,-1.691883087158196,-4.946990966796875,-3.7230148315429545,11.05859375,3.929046630859375,0.30481719970703125,7.4147796630859375,-13.967185974121094,8.0,4.0,04-19,1.0344862143198668
03-06,6.592782974243164,2.303995132446289,1.6362571716308594,3.4990921020507812,-1.3508415222167969,-5.216590881347656,-2.375846862792983,11.427825927734375,3.3195419311523438,-1.7907485961914205,7.6086273193359375,-12.370361328124986,7.0,5.0,04-20,1.1069777806599923
03-07,6.23727321624756,2.731100082397461,2.3761672973632812,3.4383087158203125,-1.359710693359368,-3.7922592163085938,-2.5851669311523438,12.166297912597656,3.9571762084960795,-1.7431182861328125,8.296798706054688,-4.041320800781264,7.0,5.0,04-21,2.140128850936888
03-08,5.407734870910646,2.817361831665039,1.8222999572753906,2.400745391845703,1.4660148620605398,-0.37744903564453125,-2.0981903076172017,13.440170288085938,-1.7160110473632812,-2.1050872802734375,7.5214080810546875,-6.219688415527344,7.0,5.0,04-22,1.8632757663726789
03-09,5.5854978561401385,3.1048393249511683,2.1520919799804688,3.5728988647460938,1.6874427795410227,-1.689453125,-2.3849334716796875,12.729393005371094,1.941078186035142,-7.629760742187514,8.296806335449219,-9.265457153320312,8.0,4.0,04-23,1.5083703200022363
03-10,4.49920558929443,2.788599014282223,2.828571319580078,3.5598678588867188,2.555511474609382,-1.7703399658203125,-0.578025817871108,12.147842407226562,4.0134506225585795,-7.229690551757798,5.7573699951171875,-11.739524841308594,8.0,4.0,04-24,1.4027364253997792
03-11,4.412300109863278,2.9569835662841726,2.9765663146972656,3.438323974609382,3.1091499328613352,-0.5436782836914062,0.555274963378892,4.846214294433608,3.0569305419921875,-7.220169067382798,6.125694274902344,-6.8012313842773295,9.0,3.0,04-25,1.4093632698059109
03-12,3.8474283218383754,2.501129150390625,2.875091552734375,3.8681182861328125,2.586524963378892,-0.40887451171875,-1.5019378662109517,7.800094604492173,4.998023986816406,-10.182525634765625,5.321197509765611,0.167572021484375,9.0,3.0,04-26,1.8226535320281931
03-13,4.127899169921875,2.784511566162113,2.3635025024414062,4.280513763427734,1.532428741455064,0.6245651245117188,-0.9238967895508097,7.255462646484375,7.633003234863281,-7.801216125488281,5.146743774414034,-3.6174774169921875,9.0,3.0,04-27,1.9505033493041937
03-14,4.945571899414064,2.5586280822753977,2.591808319091797,4.554023742675781,1.2179679870605327,-0.0314483642578125,-3.081275939941392,8.132392883300781,8.205024719238281,-6.820106506347642,6.746002197265611,10.172294616699233,9.0,3.0,04-28,3.265906969706219
03-15,4.380702972412111,1.8357982635498082,2.8750686645507812,4.571384429931641,2.484672546386733,-1.3389816284179688,-4.200904846191392,7.597007751464844,6.038887023925781,-6.09619140625,5.3308944702148295,13.385627746582031,9.0,3.0,04-29,3.0719971656799334
03-16,4.068645477294924,2.1684532165527344,3.416271209716804,5.048942565917969,1.6963081359863281,-2.0174331665039062,-4.241867065429673,5.8892822265625,6.432731628417969,-6.8867874145507955,6.6491012573242045,8.940177917480469,9.0,3.0,04-30,2.596985499064127
03-17,4.009397506713867,1.650979995727539,2.7228622436523438,4.862262725830078,2.6219749450683594,-1.3299942016601562,-2.3166656494140625,3.313873291015625,6.37646484375,-5.000785827636719,5.9706192016601705,13.070198059082031,9.0,3.0,05-01,2.9959322611490897
03-18,3.6064767837524414,2.127376556396481,2.8243446350097727,4.679935455322266,2.6751060485839986,-1.9500503540039062,-3.3998641967773438,3.5723342895507812,4.004035949707031,-6.9915618896484375,6.348617553710923,22.631370544433594,9.0,3.0,05-02,3.3440101146698
03-19,3.563030242919922,2.591472625732422,2.5833587646484375,5.461360931396484,1.9177474975585938,-0.6919479370117188,-1.8205490112304545,1.3846130371093608,3.647705078125,-6.0009307861328125,4.429496765136719,19.04346466064453,9.0,3.0,05-03,3.009068489074707
03-20,3.6894264221191406,2.0082950592041016,2.3550376892089773,5.756572723388672,1.8557319641113281,-0.5032272338867188,-3.4135284423828125,2.1692428588867188,3.6570892333984375,-7.753585815429673,4.507026672363281,10.950973510742188,9.0,3.0,05-04,2.106587886810303
03-21,2.7730045318603516,2.3820228576660156,1.4967498779296875,5.665397644042969,3.503326416015625,-1.1143112182617188,-0.8556442260742472,0.5630798339843608,4.426010131835923,-7.848846435546875,2.7429962158202983,15.278144836425781,9.0,3.0,05-05,2.4176608721415143
03-22,3.752641677856449,1.227962493896488,0.9724502563476562,6.177669525146477,5.5406646728515625,0.8851394653320312,-0.63720703125,-1.1538467407226562,4.6416778564453125,-5.33416748046875,9.760383605957031,14.124893188476562,9.0,3.0,05-06,3.32985512415568
03-23,3.464273452758789,0.5831851959228551,0.8921356201171875,5.8824615478515625,8.144916534423828,1.20416259765625,-2.2074127197265625,-0.5076980590820312,4.29473876953125,-4.3054351806640625,10.245002746582045,15.544281005859375,9.0,3.0,05-07,3.6028842926025404
03-24,3.6894302368164027,0.8378181457519496,0.7229995727539062,4.45417404174804,7.914608001708984,1.0154647827148438,-1.5656585693359233,-0.3323059082031108,5.720062255859375,-5.267471313476548,8.946220397949247,6.653388977050781,9.0,3.0,05-08,2.732394218444829
03-25,3.5748758316040004,1.1417293548583984,0.33826446533203125,4.988155364990227,8.561229705810561,2.63751220703125,-0.18659210205075283,-0.756950378417983,6.320198059082031,-5.4484481811523295,7.1724624633789205,3.0457763671875,9.0,3.0,05-09,2.615684429804488
03-26,2.8520040512084908,-0.32756996154785156,0.6699676513671875,5.075466156005845,9.619804382324205,3.7428359985351562,0.3413543701172017,-0.6364898681640625,4.692077636718764,-5.0007553100585795,5.485969543457031,-0.9462509155273438,8.0,4.0,05-10,2.130701144536337
03-27,2.9390974044799822,-0.5976963043212926,1.0486679077148438,4.683376312255859,9.89440536499022,4.1382598876953125,1.2205123901367188,-1.4425582885742188,4.146217346191406,-4.197357177734375,3.81884765625,5.2832794189453125,9.0,3.0,05-11,2.5779209931691476
03-28,3.3070783615112322,0.7685222625732422,1.2613906860351562,5.100143432617195,9.66408538818358,2.7561187744140625,2.414573669433608,-0.2473602294921733,3.067840576171889,-2.3494415283203125,2.229278564453125,6.487884521484375,10.0,2.0,05-12,2.8716762065887482
03-29,2.8355207443237322,0.4952812194824219,-0.011821746826171875,4.7050743103027415,9.024208068847656,1.71868896484375,1.6291961669921875,-2.5410919189453125,2.31768798828125,-3.902061462402358,0.47222137451171875,4.9414825439453125,9.0,3.0,05-13,1.807032187779744
03-30,2.8954572677612322,0.8771152496337962,-2.2695960998535156,4.565650939941406,9.117546081542983,2.9765243530273438,0.3323822021484375,-3.768798828125,2.82403564453125,-1.6197891235351562,-1.459205627441392,2.1758041381835938,8.0,4.0,05-14,1.3872605164845815
03-31,2.1642894744873065,1.1440658569336009,-1.9651832580566406,3.5137672424316264,8.708457946777344,2.2191238403320312,0.27001190185546875,-3.3903274536132812,2.5976409912109375,-7.053070068359375,-2.422821044921861,1.1021499633789062,8.0,4.0,05-15,0.5740087827046719
04-01,1.1490974426269567,0.6923084259033203,-2.0378379821777344,2.6101188659667898,10.309272766113281,0.262786865234375,0.7615356445312642,-4.820861816406236,2.2776641845703125,-4.623405456542969,-2.1210861206054545,4.7590484619140625,8.0,4.0,05-16,0.7682201067606641
04-02,0.1299667358398473,0.16377830505371094,-3.1531448364257812,2.199756622314446,10.366256713867188,-0.0157623291015625,1.1620712280273438,-4.703567504882827,3.0870285034179545,-4.566001892089858,-1.7705917358398295,3.931060791015625,7.0,5.0,05-17,0.5692375500996881
04-03,-0.6537151336669922,-0.5358867645263707,-3.0893096923828125,2.880321502685547,10.795867919921875,-0.06519317626953125,2.4233245849609375,-3.3508834838867188,2.5505828857422017,-5.945259094238281,-2.1001434326171733,5.941703796386719,5.0,7.0,05-18,0.7376174926757834
04-04,-0.6230812072753906,-0.109466552734375,-3.5999107360839844,3.644378662109375,10.273246765136719,-1.1105270385742188,3.7474899291992188,-4.416358947753906,1.0249404907226562,-6.526298522949219,-2.5072174072265483,0.7721633911132812,5.0,7.0,05-19,0.04744656880696733
04-05,0.12821578979492188,-0.3123264312744105,-2.8343734741210938,2.615489959716797,10.825237274169922,1.32586669921875,3.3958969116210938,-4.289215087890639,0.8092498779297017,-7.3645172119140625,-1.5145721435546875,5.6591796875,7.0,5.0,05-20,0.7036776542663578
04-06,0.3600006103515625,-1.117391586303711,-2.8597640991210938,2.235157012939453,12.412216186523438,1.6324234008789062,2.966667175292983,-4.889251708984375,0.5560684204101562,-4.322303771972642,-2.091156005859375,7.017242431640639,7.0,5.0,05-21,0.9916590054829951
04-07,1.2763557434082067,-1.0557994842529297,-2.7160110473632812,1.6720237731933594,11.620697021484375,1.4746475219726562,2.1731338500976562,-3.5323104858398438,-0.2600555419921733,-4.015304565429673,-6.0137481689453125,5.3669204711914205,6.0,6.0,05-22,0.4992124239603717
04-08,1.2487049102783239,-1.252920150756836,-2.4711875915527344,2.5363731384277344,12.456687927246094,2.3979949951171875,1.613311767578125,-5.353340148925781,1.244873046875,-3.93878173828125,-4.7873382568359375,3.1392669677734375,7.0,5.0,05-23,0.5694704055786136
04-09,0.4191799163818395,-2.72015380859375,-2.6765098571777344,2.4141502380371094,11.30710220336914,0.96466064453125,0.6074829101562358,-4.6867599487304545,0.9531097412109375,-6.033668518066392,-5.1771621704101705,-0.6260528564452983,6.0,6.0,05-24,-0.43788512547810726
04-10,0.35597229003906605,-2.338565826416012,-3.2679443359375,4.024135589599609,10.416877746582031,3.5392608642578125,0.07952880859375,-4.482948303222642,1.2166213989257812,-6.872398376464844,-5.778099060058608,2.813987731933608,7.0,5.0,05-25,-0.024464289347328954
04-11,-0.23148155212402344,-2.818819046020508,-3.5785484313964844,2.9605255126953125,9.1103515625,4.500816345214844,0.17552947998048296,-3.2506866455077983,1.1893310546875,-5.843673706054702,-5.4097747802734375,1.9218292236328125,6.0,6.0,05-26,-0.10621674855550012
04-12,0.00830078125,-2.5331497192382812,-2.4839324951171946,1.96636962890625,9.71268081665039,3.7986068725585938,0.15727996826171875,-3.894950866699247,2.1270217895507812,-6.567596435546889,-6.456565856933608,3.0023269653320312,7.0,5.0,05-27,-0.09696737925212122
04-13,0.16414451599121094,-2.862903594970703,-1.8539466857910227,2.4482498168945312,11.536197662353509,4.930206298828125,-0.9705810546875,-5.085746765136719,2.7271728515625,-6.529502868652358,-8.915596008300781,6.789024353027344,6.0,6.0,05-28,0.19805987675984463
04-14,0.07562446594238281,-2.9368228912353516,-1.9469680786132884,3.4201927185058665,11.52286148071287,4.596588134765625,0.8763351440429688,-5.3441848754882955,1.8175888061523438,-8.416351318359375,-8.010391235351562,9.995796203613295,7.0,5.0,05-29,0.4708557128906232
04-15,-0.0468292236328125,-3.0271816253662074,-2.014629364013679,2.9749412536621023,11.745204925537102,5.5703659057617045,1.190376281738267,-6.119598388671889,1.7893524169921875,-7.5554351806640625,-8.243988037109375,14.244102478027344,6.0,6.0,05-30,0.8755567868550568
04-16,-0.7065067291259766,-2.793088912963867,-1.5797500610351562,3.8130874633789062,10.265506744384766,4.177474975585923,1.4270706176757955,-7.063262939453125,2.099914550781264,-9.812919616699219,-10.435829162597656,13.830108642578125,6.0,6.0,05-31,0.2684837977091483
04-17,-0.2707023620605469,-1.8829536437988317,-1.281890869140625,1.948150634765618,11.217750549316406,0.6593170166015483,1.8012390136718608,-6.2294158935546875,1.384674072265625,-10.687690734863281,-9.456886291503906,9.770713806152358,6.0,6.0,06-01,-0.2523078918457052
04-18,0.7106971740722656,-2.305242538452152,-0.8989601135253906,1.8917274475097656,7.563819885253906,2.3094482421875,0.8896255493164205,-7.0817718505859375,1.8812484741210938,-10.792472839355469,-11.850936889648438,10.987541198730469,7.0,5.0,06-02,-0.5579396883646638
04-19,1.338104248046875,-2.9386768341064453,-2.4643287658691406,0.7933807373046875,6.7961883544921875,2.5844650268554545,0.9535446166992472,-7.542312622070298,1.637443542480483,-7.410980224609375,-9.253097534179688,12.672721862792969,7.0,5.0,06-03,-0.23612896601358693
04-20,1.1742610931396484,-2.118257522583008,-3.0562667846679688,1.1826133728027344,4.727519989013672,2.9090576171875,0.597373962402358,-7.0992355346679545,0.3527679443359375,-7.165397644042983,-11.774085998535156,16.786537170410156,7.0,5.0,06-04,-0.2902593612670887
04-21,0.5848865509033203,-2.1511001586914027,-3.098541259765625,-0.6515350341796946,5.407848358154283,2.634063720703125,1.6786270141601705,-1.736091613769517,3.391143798828139,-6.132255554199247,-8.727493286132827,23.956039428710938,6.0,6.0,06-05,1.2629659970601386
04-22,0.41108512878418324,-2.052545547485348,-2.8379936218261648,-1.1710243225097727,4.705295562744141,3.67974853515625,1.9744567871093892,-4.236915588378892,2.6358566284179688,-5.730514526367202,-4.902229309082017,21.925521850585938,6.0,6.0,06-06,1.200061798095706
04-23,0.6599369049072266,-2.7902507781982457,-3.3655967712402344,-0.6384429931640696,2.5641860961914062,3.706695556640625,2.211112976074247,-4.1833343505859375,0.6971511840820312,-5.6635513305664205,-4.647613525390625,21.481971740722656,6.0,6.0,06-07,0.8360220591227217
04-24,0.025806427001953125,-3.462753295898441,-3.718761444091797,0.162811279296875,2.484458923339858,4.510993957519531,2.8237686157226562,-3.7663955688476562,0.7159805297851562,-1.3332977294921733,-3.6977386474609233,18.738624572753892,7.0,5.0,06-08,1.1236248016357442
04-25,0.6066684722900391,-3.988542556762699,-3.0464630126953125,-0.7792396545410156,1.6296615600585795,4.878334045410156,3.8794708251953125,-4.0906906127929545,-2.4178009033203125,-3.3431243896484375,-2.621864318847642,18.3306121826172,5.0,7.0,06-09,0.7530851364135763
04-26,0.30694389343262074,-3.3219966888427805,-3.7981529235839844,-1.2350883483886719,3.0757675170898438,6.3592987060546875,3.6374435424804688,-2.0213470458984517,-2.098968505859375,-3.171669006347642,-4.208831787109361,17.785408020019517,5.0,7.0,06-10,0.9424006144205727
04-27,0.7984848022460938,-2.6902408599853516,-3.6417083740234375,-1.0899772644042898,3.7731704711914205,6.440444946289077,4.162567138671875,-1.504417419433608,-2.8585052490234375,-4.23236083984375,-2.5569839477539205,15.822669982910156,5.0,7.0,06-11,1.0352619489034023
04-28,1.0026359558105469,-3.084501266479492,-3.870037078857429,-0.4274444580078196,3.4841156005859233,6.75152587890625,5.4044342041015625,-1.3013305664062642,-1.4329452514648295,-1.227630615234375,-2.1676483154297017,17.908874511718764,5.0,7.0,06-12,1.7533373832702612
04-29,0.6550197601318359,-3.6266231536865234,-3.74945068359375,-1.1782913208007812,2.4302597045898438,5.973915100097656,4.7627105712890625,0.4138488769531392,0.8150405883789205,-1.4380722045898295,0.2267913818359233,13.581710815429702,8.0,4.0,06-13,1.5722382863362665
04-30,0.68267822265625,-2.6855850219726562,-4.01044845581054,-0.22228622436522727,1.954666137695284,5.695335388183594,5.040336608886719,-1.47332763671875,1.0126800537109375,-1.8206939697265625,-0.01493072509764204,18.55942535400392,6.0,6.0,06-14,1.8931541442871105
05-01,0.774444580078125,-2.4548511505126953,-4.125343322753899,-1.9815483093261648,2.813903808593736,6.1356658935546875,4.6429290771484375,-2.909393310546875,2.3584671020507812,-3.0313339233398438,1.9526443481445312,11.951560974121094,7.0,5.0,06-15,1.3439288139343262
05-02,-0.3330650329589879,-2.74880409240723,-3.419013977050774,-2.046661376953118,1.361183166503892,4.0836944580078125,4.08660125732419,-3.4745635986328125,2.283210754394517,-1.8787612915039062,0.7023086547851562,15.156761169433608,6.0,6.0,06-16,1.1477408409118623
05-03,-0.7926368713378942,-2.123655319213867,-3.21173095703125,-2.0510101318359304,1.5991592407226562,4.0757598876953125,2.9952774047851562,-2.294586181640611,2.536407470703111,-1.1643753051757812,-0.21880340576171875,16.71307373046875,5.0,7.0,06-17,1.3385732968648278
05-04,-1.1562938690185618,-0.5721473693847656,-2.4887351989746094,-1.4522819519042898,1.1891326904296875,3.5121994018554688,3.515815734863267,-1.4545745849609375,1.8893737792968608,-1.9047012329101705,0.7295837402343608,18.259475708007812,6.0,6.0,06-18,1.6722372372945102
05-05,-0.7999897003173864,-0.16147041320800426,-2.4253273010253906,-0.9473075866699219,2.202972412109375,3.2822723388671875,5.6978988647460795,-1.4453277587890483,1.0916976928710938,-0.3654022216796875,-0.8472518920898438,16.949134826660156,5.0,7.0,06-19,1.8526582717895508
05-06,-0.8631916046142578,0.7410755157470739,-2.672100067138672,-0.66790771484375,2.4075469970702983,3.9578781127929545,5.483978271484361,-1.25079345703125,2.569244384765611,-0.7288970947265625,-1.090599060058608,16.426719665527344,6.0,6.0,06-20,2.0260794957478785
05-07,-0.19581413269043324,0.9811954498291087,-2.778491973876953,-0.056735992431640625,0.693702697753892,2.4886016845702983,3.8492889404296875,0.6856231689453267,2.522201538085909,-1.5611114501953125,1.637054443359375,14.889053344726562,8.0,4.0,06-21,1.929547309875485
05-08,-0.7113361358642543,-0.17801094055175426,-2.489147186279297,-0.20517730712889914,-0.4313049316406108,3.2956085205077983,2.999969482421861,0.9079742431640625,2.2116317749023295,-1.0426559448242188,2.0635147094726562,12.33154296875,6.0,6.0,06-22,1.5627174377441395
05-09,-0.28772544860839844,-0.11591339111328125,-1.5105094909667969,0.043663024902336645,0.11113739013671875,2.9755630493164062,3.3196029663085938,0.574432373046875,2.6633682250976562,-1.8270187377929688,2.7059249877929688,13.184051513671875,8.0,4.0,06-23,1.819714705149332
05-10,-0.7512931823730469,-0.6417007446289062,-1.718994140625,0.13532638549804688,-1.8008956909179972,2.3263397216796875,4.1141204833984375,-0.8523864746093892,2.6633682250976562,-0.9278564453125,2.871398925781236,13.134483337402358,6.0,6.0,06-24,1.545992533365882
05-11,-0.8112373352050746,-0.5506305694580043,-0.9573783874511719,-1.2092361450195241,-1.9165115356445312,2.23614501953125,4.22369384765625,0.3613433837890625,3.0304107666015625,3.701896667480483,4.6915435791015625,13.154312133789062,7.0,5.0,06-25,2.162862618764244
05-12,-0.2877178192138672,-1.05157470703125,-0.8382186889648438,0.4670982360839844,-2.9037017822265625,1.6320419311523438,5.2282867431640625,0.296478271484375,3.2468795776367188,2.3435821533203125,5.4994354248046875,14.125770568847656,8.0,4.0,06-26,2.3131966590881348
05-13,0.4316005706787074,-0.6955318450927699,-0.6212158203124929,-0.7814064025878906,-2.3923263549804688,3.0386505126953125,4.812767028808594,4.187774658203139,2.5410232543945455,2.04705810546875,4.886215209960952,17.48621368408203,8.0,4.0,06-27,2.9117352167765342
05-14,0.22379493713378906,-0.8197326660156179,-0.6212272644042969,-0.12224197387695312,-3.4728775024414062,3.5661468505859375,3.2602386474609375,-5.030906677246108,2.672782897949247,2.73577880859375,3.864196777343736,15.771286010742188,7.0,5.0,06-28,1.8356032371521003
05-15,0.6553897857666016,-1.3123970031738281,-0.7063407897949219,0.5675239562988281,-3.3216934204101562,4.436241149902344,1.7260131835937642,-8.77396392822267,2.362213134765639,1.9896545410156392,3.4943161010741903,15.711807250976562,8.0,4.0,06-29,1.4023969968159993
05-16,-0.2038040161132848,-1.3372364044189453,-0.068084716796875,0.7552299499511719,-2.9125900268554688,3.2550506591796875,2.324188232421889,-7.041404724121108,3.4444961547851562,1.5400619506835938,2.540435791015611,10.20029449462892,7.0,5.0,06-30,1.0413864453633623
05-17,-0.08791542053223012,-2.119710922241211,0.7318572998046875,2.0211944580078125,-4.3621978759765625,3.6112442016601562,-0.4429168701171875,-4.187789916992202,5.260856628417983,0.6696014404296733,4.010223388671875,11.984596252441392,7.0,5.0,07-01,1.4240868886311822
05-18,-0.07192802429199219,-2.161113739013679,0.025539398193359375,2.593048095703132,-4.735710144042969,6.361358642578111,-0.6803665161132812,-3.6133575439453267,5.3455657958984375,0.7365570068359233,8.73095703125,14.086112976074219,7.0,5.0,07-02,2.2180552482604945
05-19,-0.3037128448486328,-1.6353225708007848,0.0893707275390625,2.8724403381347656,-3.8330307006835795,5.779754638671875,-0.25113677978517046,-2.918479919433608,2.7480697631835938,-1.2435379028320312,10.599777221679673,12.72805023193358,6.0,6.0,07-03,2.0526868502298954
05-20,-0.6393985748291051,-0.47610473632812855,0.46380615234375,2.8724403381347656,-3.8330307006835795,5.937530517578125,0.232879638671875,-3.446594238281264,3.0398330688476562,-1.2435379028320312,10.599777221679673,9.98220062255858,7.0,5.0,07-04,1.957483450571693
05-21,-0.051944732666015625,-0.9439373016357493,1.757293701171875,2.252552032470703,-4.384437561035156,5.270286560058594,0.09589385986326704,-2.1124114990234375,3.331573486328125,-2.2479248046875,8.847770690917969,10.874359130859375,7.0,5.0,07-05,1.890756130218504
05-22,-0.339685440063473,-0.19872093200683238,2.20831298828125,2.453350067138672,-3.7663497924804688,5.639984130859375,1.7397079467773438,-1.7696075439453125,3.9433212280273438,-0.8035049438476705,9.353904724121108,10.081336975097656,7.0,5.0,07-06,2.378504117329916
05-23,-1.1469173431396484,-0.3974380493164098,2.0551490783691335,1.7810821533203125,-3.4595260620117188,4.260429382324219,2.3287582397460938,-3.502166748046875,3.7456741333007812,-0.6791687011718608,10.96966552734375,8.990921020507827,7.0,5.0,07-07,2.078871885935467
05-24,-0.7992439270019531,-0.40158271789550426,2.7997474670410227,0.2968597412109304,-3.2194366455077983,5.428108215332017,1.5890502929687358,-4.437957763671875,3.5197906494140625,-0.47827911376953125,11.028083801269531,9.793861389160156,7.0,5.0,07-08,2.093250115712483
05-25,-1.3587169647216797,0.35191154479980113,2.2040481567382955,1.0084114074707102,-2.1833648681640625,4.6256256103515625,1.5525054931640625,-4.956794738769517,3.5480270385742188,-0.5643768310547017,10.171516418457031,8.346588134765625,8.0,4.0,07-09,1.8954483668009454
05-26,-1.2787971496582031,0.5009517669677699,2.301921844482429,0.20517730712890625,-1.823150634765625,3.913299560546875,-0.23743438720701704,-4.382362365722656,2.644569396972642,1.8748626708984375,8.633628845214844,6.4135894775390625,8.0,4.0,07-10,1.5638546943664553
05-27,-0.7952594757080078,-0.8362884521484375,2.370006561279297,-0.7552032470703125,-0.35575103759765625,4.373146057128906,-1.342475891113267,-5.1606063842773295,4.253868103027344,2.7548828125,8.205360412597656,4.084083557128906,6.0,6.0,07-11,1.3996469179789248
05-28,-0.9071540832519531,0.07452011108399148,1.4551963806152344,-1.2921562194824219,-0.573638916015625,3.412864685058608,-1.6529541015624716,-1.2600631713867188,4.235038757324219,3.5966796875,7.689476013183594,3.7966079711914062,7.0,5.0,07-12,1.5478680928548219
05-29,-0.9431247711181641,0.8611373901367188,0.6680374145507812,-1.842193603515625,-0.47136688232421875,3.074737548828125,-1.648406982421875,-0.9913711547851705,4.225639343261719,2.59228515625,8.010673522949219,3.3802719116210938,7.0,5.0,07-13,1.4096932411193837
05-30,-1.6384696960449219,0.5133743286132848,0.48932647705078125,-0.6024131774902344,-0.12004852294921875,2.6058502197265625,0.35158538818357954,0.94500732421875,5.044395446777344,2.2192306518554688,7.9522705078125,3.63800048828125,9.0,3.0,07-14,1.783175786336262
05-31,-0.9870719909668004,1.155080795288086,0.52337646484375,-1.1175384521484375,1.9654541015625,2.5698089599609375,1.8401641845702983,1.658424377441392,5.157325744628906,2.7070846557617188,11.047538757324219,5.9575958251953125,10.0,2.0,07-15,2.706436951955157
06-01,-0.7632904052734375,0.8197345733642543,1.3488349914550781,0.7421188354492188,1.1517257690429972,2.551765441894517,2.826446533203111,1.3804931640624716,2.522186279296861,1.7505187988281392,9.013229370117202,8.27719879150392,11.0,1.0,07-16,2.6350801785786944
06-02,0.18781661987304688,-0.08694648742676137,1.5998764038085866,2.431529998779297,0.822654724121108,1.456207275390625,2.6072921752929688,1.1766662597656108,1.863441467285142,1.4922561645507812,9.66537475585939,8.029388427734375,11.0,1.0,07-17,2.6037964820861808
06-03,0.5994281768798828,0.23184585571289062,1.4977340698242188,1.9033126831054688,-0.13339996337889204,1.8349075317382812,1.812782287597642,0.8894424438476562,4.178558349609361,-0.057373046875,9.801635742187528,3.9056549072265625,10.0,2.0,07-18,2.205377419789633
06-04,0.4395866394042969,1.1633548736572266,2.3700027465820312,2.7763938903808594,1.4674072265625,0.8701095581054688,2.3698348999023438,1.0654678344726562,4.329139709472642,2.8505706787109375,4.769416809082017,4.4607696533203125,12.0,0.0,07-19,2.411004543304441
06-05,1.690399169921875,0.8031673431396484,1.9615325927734375,2.270008087158203,3.0548782348632812,1.190216064453125,-2.278533935546875,1.0932693481445312,4.319740295410156,4.065399169921875,4.146476745605469,1.298583984375,11.0,1.0,07-20,1.9679280916849773
06-06,2.1060256958007777,0.6748352050781286,2.187030792236328,1.0389595031738281,2.4857101440429688,1.248809814453125,-2.0547637939453125,0.24088287353515625,4.912643432617202,2.6975021362304545,3.5235366821289062,-1.506752014160142,10.0,2.0,07-21,1.462868372599285
06-07,2.461694717407223,1.7057075500488281,1.5615425109863281,0.7028350830078054,2.2589035034179545,2.001724243164034,-2.9223556518554688,2.0938873291015483,5.4114456176757955,3.5010147094726562,2.929779052734375,-3.975036621093736,10.0,2.0,07-22,1.4775951703389454
06-08,2.4537029266357386,1.1053962707519567,2.0849266052246094,3.6145477294921946,2.1744461059570455,1.6410369873046733,-5.333290100097656,-0.8523864746093608,5.3455657958984375,2.142692565917983,3.036865234375,-3.2117462158202983,9.0,3.0,07-23,1.1834797859191937
06-09,2.0900344848632812,1.1964702606201172,1.740264892578125,5.190456390380859,2.4279327392578267,2.2541961669921733,-5.9680023193359375,-0.3706207275390625,-3.0210037231445455,1.0235137939452983,2.4917678833007812,0.2577362060546875,9.0,3.0,07-24,0.776062170664467
06-10,2.1979408264160156,0.6127300262451172,2.497661590576172,3.8371772766113352,2.161102294921889,2.0332717895507812,-7.168907165527344,-0.6022109985351705,-3.5480422973632812,0.45914459228515625,4.4482192993164205,2.616981506347642,9.0,3.0,07-25,0.7954223950703945
06-11,2.1180171966552734,0.5050849914550781,2.170032501220703,2.881156921386726,2.3033905029296875,2.123443603515625,-8.132369995117173,-0.03706359863279829,-4.470344543457017,2.0279083251952983,1.2166824340820312,12.014335632324219,9.0,3.0,07-26,1.2266894976298044
06-12,2.933246612548828,1.4821453094482422,2.0040740966796875,1.458057403564446,2.725852966308608,3.034149169921875,-10.041023254394517,-1.0191421508789062,-2.851623535156264,5.500236511230469,1.0804061889648438,9.119796752929673,9.0,3.0,07-27,1.2855146725972488
06-13,3.4287853240966797,1.7098503112793004,1.17010498046875,2.4358940124511648,0.8048553466796875,2.5923233032226562,-11.123214721679702,-0.8616409301757812,-4.536201477050781,5.720245361328125,1.1582794189453125,7.29583740234375,9.0,3.0,07-28,0.8162598609924302
06-14,3.5286941528320312,1.9582595825195348,-0.21274185180664062,2.5013847351074148,2.1788787841796875,2.637390136718764,-11.908630371093764,-0.917236328125,-4.4703292846679545,5.088928222656264,1.5476150512695312,6.968719482421875,8.0,4.0,07-29,0.7417443593343119
06-15,3.424795150756836,1.3496608734130824,0.438262939453125,1.78546142578125,0.4446868896484233,2.5472335815429688,-7.771636962890639,-0.49105072021484375,-4.3009185791015625,5.050666809082017,2.9297943115234233,5.333099365234375,9.0,3.0,07-30,0.8950045903523712
06-16,3.520696640014652,0.9522132873535085,0.378692626953125,2.4620819091796875,2.2500228881835938,0.8881607055664062,-6.7853240966796875,-0.8060455322265625,-4.715003967285156,4.2471466064453125,3.4067230224609233,5.600746154785156,9.0,3.0,07-31,0.9500091870625799
06-17,3.4527606964111364,1.1095390319824148,-0.0850982666015625,2.7109222412109375,2.1966705322265625,0.8656158447265625,-7.3972015380859375,-2.5015411376953267,-4.780914306640611,4.534111022949219,3.922607421875,5.49169921875,8.0,4.0,08-01,0.7932642300923662
06-18,3.5726528167724574,0.894250869750973,-0.5233726501464844,2.043018341064453,1.7208633422851705,0.3787078857422017,-8.438285827636719,-3.4373245239257812,-5.5149765014648295,5.414161682128892,2.6378021240234375,5.937782287597656,8.0,4.0,08-02,0.39043998718261896
06-19,4.631654739379883,1.1012592315673864,-0.6510009765625,0.8206863403320312,2.7880859375,0.5454864501953125,-8.018226623535156,-3.4743728637695455,-5.646736145019517,5.356773376464844,1.6839065551757812,4.440940856933594,8.0,4.0,08-03,0.29820473988850943
06-20,5.33099365234375,1.7843742370605469,-1.5785865783691406,0.8818168640136719,4.606781005859389,-2.7997055053710938,-8.940582275390625,-4.38232421875,-4.300926208496094,4.390625,2.1413726806640767,3.9453048706054545,7.0,5.0,08-04,0.08992862701416134
06-21,6.058315277099609,1.3289604187011754,-2.1657676696777415,2.4621009826660156,6.1631011962890625,-2.69598388671875,-9.406333923339844,-3.455841064453111,-4.2068023681640625,5.194152832031236,-0.38933563232421875,3.677650451660142,6.0,6.0,08-05,0.21368471781412612
06-22,6.146238327026371,2.2107982635498047,-2.170005798339851,1.5060577392578125,6.972450256347656,-1.6906433105468892,-10.620956420898438,-3.224220275878892,-4.103294372558594,3.7306060791015625,-2.6572494506835795,4.084083557128892,6.0,6.0,08-06,0.015322049458821319
06-23,6.234151840209957,2.392969131469723,-1.8594093322754048,3.435565948486328,6.763435363769531,-2.7771453857421875,-10.684852600097656,-6.383590698242173,-5.656135559082031,5.586311340332031,-5.781707763671875,7.900520324707031,6.0,6.0,08-07,-0.06915728251139382
06-24,5.65069580078125,3.2168350219726527,-4.033691406249993,3.74114990234375,6.5544586181640625,-1.8664932250976562,-10.392631530761719,1.269287109375,-5.4679107666015625,4.9836883544921875,-5.762237548828125,9.694740295410156,7.0,5.0,08-08,0.6323242187500003
06-25,5.3030242919921875,3.0222530364990234,-3.8634796142578125,4.448341369628906,5.896324157714844,-2.5157012939453125,-10.182571411132827,5.318107604980483,-5.345565795898452,4.639335632324219,-3.3191299438476705,8.812507629394531,7.0,5.0,08-09,1.01778713862101
06-26,5.241502761840824,2.984502792358395,-5.732301712036133,3.8681678771972585,5.376060485839844,-1.6636123657226562,-11.36380004882814,5.736648559570327,-6.564819335937528,3.2714462280273438,-2.598846435546861,9.218917846679673,7.0,5.0,08-10,0.6478222211201956
06-27,5.1417503356933665,3.0762920379638707,-3.863475799560547,3.588764190673821,5.362709045410156,-2.7334747314453125,-9.778793334960923,5.634323120117202,-6.2826080322265625,3.9601669311523438,-2.9492721557617188,10.23368072509767,7.0,5.0,08-11,0.9491718610127805
06-28,4.694015502929691,2.896879196166992,-6.32341194152832,3.580043792724595,7.1303253173828125,-4.1717453002929545,-7.3138427734375,4.199409484863281,-6.828445434570327,3.3766632080078125,-0.05840301513671875,12.255783081054702,7.0,5.0,08-12,1.1197725931803388
06-29,4.718210220336918,2.7238006591796875,-6.612752914428711,2.5504112243652415,6.165168762207017,-4.642173767089844,-9.329795837402344,2.4112701416015625,-5.4920654296875,5.702980041503906,-2.719093322753892,17.3857421875,7.0,5.0,08-13,1.0718084971110036
06-30,4.855508804321289,2.968063354492191,-7.31480598449707,2.9289283752441406,6.008926391601548,-4.483863830566392,-9.440528869628906,0.8732757568359233,-7.711952209472642,5.0260009765625,-5.436889648437472,15.383834838867173,7.0,5.0,08-14,0.3047081629435236
07-01,4.903467178344723,2.70310020446777,-6.972862243652344,2.6304969787597727,6.642761230468736,-2.7803955078125,-11.066093444824219,0.5769653320312358,-8.890800476074219,3.700103759765639,-4.908981323242173,15.096359252929673,7.0,5.0,08-15,0.13617674509684127
07-02,5.5548553466796875,2.818353652954105,-6.7554054260253835,1.9019813537597727,6.184074401855469,-2.532440185546875,-10.52728271484375,1.6119918823242188,-7.1611557006835795,4.4398956298828125,-7.189170837402344,12.40007781982419,7.0,5.0,08-16,0.062147935231526986
07-03,5.356426239013672,2.5971660614013636,-6.086730957031243,2.240325927734375,5.9573211669921875,-3.3665008544921733,-10.254920959472642,2.049102783203125,-6.801994323730469,5.2633209228515625,-8.152793884277344,9.425621032714844,7.0,5.0,08-17,-0.1478047370910618
07-05,4.174558639526367,3.1938743591308523,-6.652523040771477,1.9740257263183594,3.0920486450195312,-2.4464111328125,-9.57680511474608,1.2399368286132812,-6.1117095947265625,4.4885025024414205,-7.649200439453111,9.53519439697267,7.0,5.0,08-19,-0.3948756853739373
07-06,4.166496276855469,2.9894084930419886,-7.086517333984382,2.2068252563476562,2.6514816284179688,-1.7678451538085795,-9.292762756347642,0.9434661865234375,-5.5188140869140625,5.142631530761719,-5.035926818847642,9.30609130859375,7.0,5.0,08-20,-0.10795545578002663
07-07,4.919584274291992,1.9502449035644567,-7.452461242675781,3.259368896484375,1.8569717407226705,-1.378814697265625,-11.153030395507812,0.8878631591796733,-7.4147491455078125,4.7622222900390625,-4.156059265136719,10.70355224609375,7.0,5.0,08-21,-0.2679422696431475
07-08,4.839664459228516,1.461725234985348,-9.016590118408203,2.781005859375,2.8210830688476562,-0.9153137207031392,-9.363090515136733,-1.9929122924804688,-7.963020324707017,6.020851135253906,-5.446525573730469,12.636550903320312,6.0,6.0,08-22,-0.3447143236796076
07-09,4.723773956298828,0.6158561706542969,-8.885246276855469,2.039337158203125,1.41619873046875,-1.3751602172851705,-8.943000793457031,-1.3687286376952983,-7.6700286865234375,7.317909240722656,-4.6272125244140625,14.014427185058594,6.0,6.0,08-23,-0.22848955790201822
07-10,4.678766250610348,0.8843421936035085,-8.859512329101559,4.147407531738281,1.6340866088867188,-1.1812896728515625,-13.416862487792969,-0.9222946166991903,-5.637908935546875,6.014945983886719,-4.111328125,11.673072814941406,6.0,6.0,08-24,-0.42471456527709783
07-11,4.592082977294925,0.7216091156005859,-7.91652679443359,4.697444915771484,0.7491836547851562,-1.0174560546875,-17.342857360839844,0.22167205810548296,-6.488624572753906,7.019340515136719,-4.68560791015625,9.343521118164062,7.0,5.0,08-25,-0.8421848615010562
07-12,4.430734634399418,0.3877906799316406,-7.416343688964844,4.793479919433594,1.3467941284179545,-1.2391662597656108,-21.87872314453125,-1.761207580566392,-7.307380676269531,6.9332427978515625,-6.284454345703125,12.18243408203125,6.0,6.0,08-26,-1.3177332878112777
07-13,4.487209320068363,0.13414955139160512,-7.4503936767578125,2.7195091247558594,2.6087493896484375,-0.47919464111328125,-22.987464904785156,-2.474624633789034,-7.834442138671861,5.9922943115234375,-10.416954040527344,10.927330017089844,6.0,6.0,08-27,-2.064486026763912
07-14,4.041574478149414,0.4694957733154368,-6.820648193359375,3.317943572998054,1.7294387817382812,-0.3751525878906108,-22.09527587890625,-1.6963500976562358,-8.135238647460923,8.358604431152358,-9.80104827880858,8.737220764160156,6.0,6.0,08-28,-1.8557863235473562
07-15,3.2543106079101562,0.43637275695801137,-7.686944961547852,3.4188919067382812,0.6090545654296875,0.16852569580078125,-21.51995086669922,-1.9544906616210938,-8.2763671875,8.848602294921875,-9.566421508789062,4.871215820312514,7.0,5.0,08-29,-2.283100128173827
07-16,1.9875049591064453,1.3974533081054723,-6.738405227661133,3.2038421630859304,0.672386169433608,0.0648193359375,-16.807655334472656,-2.9123687744140767,-7.869941711425753,7.63800048828125,-8.11893463134767,5.228080749511719,7.0,5.0,08-30,-1.854601542154947
07-17,2.456487655639645,2.268537521362301,-5.388210296630859,2.6906242370605398,-0.22586822509764204,-0.7962875366210938,-14.874244689941406,-1.1917495727539205,-8.14404296875,6.449882507324219,-6.911979675292969,9.415359497070298,5.0,7.0,08-31,-1.187624295552574
07-18,2.40334510803223,1.5925579071044922,-4.963867187499993,2.664428710937493,-1.6221313476562358,-1.630348205566392,-13.16363525390625,-1.4893722534179688,-8.181907653808594,5.1680908203125,-7.291587829589844,13.208465576171875,5.0,7.0,09-01,-1.1088301340738906
07-19,2.185527801513672,1.7385978698730398,-5.142219543457024,-0.727489471435554,-1.2486190795898295,-1.17919921875,-13.915023803710938,-1.9390640258789062,-8.793640136718764,5.512458801269517,-7.7880096435546875,11.495162963867173,4.0,8.0,09-02,-1.6501264572143584
07-20,1.6530818939208984,1.679977416992191,-5.1890296936035085,-1.552551269531257,-1.3101654052734375,-0.9892044067382812,-17.525375366210938,-3.4677734375,-2.3187255859375,6.842079162597656,-6.157752990722656,15.081146240234375,4.0,8.0,09-03,-1.1045244534810381
07-21,1.600570678710941,1.6137428283691442,-5.457107543945305,-0.7346878051757812,-1.3012313842773295,-1.2922973632812358,-13.116851806640625,-2.133636474609361,-1.9893264770507812,6.445648193359361,-5.522285461425781,16.290153503417983,4.0,8.0,09-04,-0.46644242604573094
07-22,1.4726982116699254,1.1169261932373082,-5.014583587646477,-0.06322479248047586,-0.8548889160156108,-2.656364440917983,-13.00726318359375,-1.262718200683608,-0.584983825683608,6.330360412597642,-5.874229431152344,14.783409118652358,4.0,8.0,09-05,-0.46790520350138526
07-23,0.7853412628173864,0.433818817138679,-5.51728820800782,-0.8751144409179759,0.18413543701171875,-2.746520996093764,-10.760719299316406,-0.1876220703125,-0.3297882080078267,5.696228027343736,-6.765075683593764,15.625999450683608,5.0,7.0,09-06,-0.37138382593791075
07-24,0.749374389648441,0.5232372283935547,-6.1430816650390625,0.3442077636718679,1.095703125,-2.615783691406264,-8.587203979492188,0.7982330322265625,-1.4167175292968892,4.819252014160156,-5.927978515625,15.89364624023439,7.0,5.0,09-07,-0.038925965627035986
07-25,0.7220630645751918,0.9655570983886719,-6.301687240600586,0.8113021850585938,0.3620147705078125,-2.056579589843764,-7.389427185058594,1.3376541137695312,-2.3171310424804545,1.7295455932617188,-5.9669189453125,13.043182373046875,7.0,5.0,09-08,-0.42170206705729196
07-26,1.0366954803466797,0.2561779022216797,-4.691905975341797,0.4882698059082031,1.8099441528320455,-1.8126220703124858,-8.003364562988281,0.35240936279298296,-1.9783401489257812,0.4094848632812642,-3.9929885864257812,12.863876342773438,7.0,5.0,09-09,-0.27186361948648613
07-27,1.2383861541748047,0.3499412536621058,-4.015388488769531,1.3886489868164062,-0.584564208984375,-1.8307113647460938,-5.171897888183594,0.9731750488281392,-1.4136810302734375,2.9215850830078267,-2.084503173828125,11.250183105468736,6.0,6.0,09-10,0.25176445643107187
07-28,1.7738800048828125,0.3333911895751953,-3.8239059448242188,1.201244354248054,0.4822235107421875,-2.94354248046875,-9.583816528320312,1.538322448730483,-1.4803009033202983,2.1638412475585938,-1.3708419799804688,17.2188720703125,7.0,5.0,09-11,0.45911391576131483
07-29,2.041635513305664,0.3416671752929652,-3.7478370666503977,2.364227294921875,1.4061813354492188,-0.8320999145507812,-11.090667724609375,0.9217681884765625,-1.1432037353515625,2.7210922241210938,-0.627838134765625,15.404823303222656,7.0,5.0,09-12,0.6466457049051911
07-30,1.0305805206298828,0.16019058227539062,-4.366029739379883,2.399333953857422,1.7764434814453125,-0.5796279907226562,-11.04498291015625,-3.170669555664034,1.0401229858398295,3.2014846801757812,-0.7429046630859659,17.595558166503906,7.0,5.0,09-13,0.6082916259765613
07-31,1.0086021423339844,0.08629035949707031,-4.357444763183594,3.0233573913574148,2.0476760864257812,2.156951904296875,-10.422309875488281,-1.4035568237304545,1.7868118286132812,1.7833938598632812,0.7852478027343608,18.539207458496108,9.0,3.0,09-14,1.2528522809346523
08-01,0.4063243865966797,0.4493236541748047,-3.684497833251946,3.6345176696777273,1.0160598754882812,1.6729583740234233,-9.883255004882812,-2.8916473388671733,0.3779449462890625,2.6729965209960795,2.4594268798827983,20.16156768798828,9.0,3.0,09-15,1.3659766515096006
08-02,0.6523723602294922,0.3241405487060547,-2.1954078674316335,3.8178749084472585,0.5020599365234375,-0.11949920654295454,-12.22906494140625,-2.4301223754882812,-0.6572952270507812,3.065193176269517,4.437599182128892,23.25946807861328,7.0,5.0,09-16,1.5356098810831693
08-03,1.257431030273441,0.900558471679684,-2.5868644714355327,4.370075225830078,0.5191268920898438,-0.10591125488279829,-12.119094848632812,-3.023063659667983,0.7920379638671875,2.3899307250976562,8.705879211425781,22.97058868408203,8.0,4.0,09-17,2.0058911641438812
08-04,1.3631267547607386,0.5445079803466797,-0.4764060974121094,4.1785850524902415,1.7511062622070312,0.26050567626954546,-10.180564880371094,-2.809944152832017,1.8141937255859233,2.2431411743164205,4.77581787109375,21.687583923339844,9.0,3.0,09-18,2.095971107482913
08-05,1.3351573944091797,0.8053340911865234,0.047153472900390625,4.029380798339851,1.8225173950195312,1.939605712890625,-10.226242065429688,-2.5948715209960938,1.5217208862304688,3.0309906005859375,6.5844345092773295,17.851318359375,10.0,2.0,09-19,2.1788749694824214
08-06,1.5045757293701172,1.1182899475097692,2.438905715942383,3.568572998046875,3.1250534057617188,1.633056640625,-9.291595458984375,-3.971374511718764,1.9943008422851705,3.3000030517578125,8.735282897949219,18.06940460205078,10.0,2.0,09-20,2.685372988382975
08-07,1.2423801422119105,0.9513912200927699,2.044572830200188,2.7692184448242188,3.2718124389648438,2.0401687622070312,-8.668464660644545,-3.1622161865234375,3.4498519897460938,5.3545684814453125,6.9053955078125,15.479522705078153,10.0,2.0,09-21,2.63985013961792
08-08,1.8393592834472656,1.205926895141598,1.958833694458015,2.690227508544929,2.6692276000976562,1.3299560546875,-12.297157287597656,-2.9948196411132812,5.113327026367202,6.0337371826171875,3.2163848876953125,9.990959167480469,10.0,2.0,09-22,1.7296635309855164
08-09,1.8554954528808594,1.0098094940185511,-1.6159343719482386,2.576118469238274,2.812042236328125,1.6420669555664205,-12.058921813964844,-1.7764129638672017,5.141685485839844,5.610992431640625,5.2400665283203125,4.323112487792969,9.0,3.0,09-23,1.230010032653808
08-10,2.0289459228515625,1.1433219909667969,0.20574569702148793,3.3134078979492188,2.2050399780273438,0.2261505126953267,-13.735794067382812,-2.0740585327148438,7.069831848144517,8.128242492675781,6.559860229492173,5.0602264404296875,10.0,2.0,09-24,1.6775767008463534
08-11,1.5731449127197301,2.098875045776367,-0.5872173309326136,3.2695159912109304,0.9284439086914062,-0.4071350097656108,-13.259262084960938,-2.1205520629882812,7.80706787109375,9.511779785156236,5.670219421386719,-2.559997558593736,7.0,5.0,09-25,0.99374024073283
08-12,1.4198589324951207,2.1823387145996094,-2.1260108947753906,2.927215576171868,0.9507598876953125,0.4569091796875,-12.911079406738281,-0.7905807495117188,5.860031127929673,6.3507919311523295,3.5976486206054545,-2.659606933593736,8.0,4.0,09-26,0.4381896654764785
08-13,1.270614624023441,2.144796371459961,-3.34332275390625,2.146038055419922,0.8391876220703125,-0.6649551391601562,-12.443733215332031,-1.1067810058593608,6.238105773925753,5.245910644531236,3.4901275634765625,-0.48809051513671875,7.0,5.0,09-27,0.2773248354593892
08-14,1.5892753601074148,2.6747303009033203,-1.7916889190673828,2.685840606689446,1.0132904052734375,-0.465911865234375,-15.201927185058594,-2.157745361328125,5.623748779296861,3.4012069702148438,6.2959136962890625,-0.0298919677734375,7.0,5.0,09-28,0.3030700683593726
08-15,1.8877677917480469,2.6163158416748082,-0.9001350402832031,2.2689208984375,2.620147705078125,-2.198455810546875,-14.5880126953125,-1.8694381713867188,4.773094177246094,3.2282485961914062,6.882484436035142,1.3248214721679545,8.0,4.0,09-29,0.5038132667541483
08-16,2.3355045318603516,2.766529083251953,-1.5859470367431712,2.001209259033203,3.5976486206054688,-2.4066009521484517,-18.09752655029297,-0.07439422607421875,4.016944885253906,2.392364501953125,5.807098388671861,2.809020996093736,8.0,4.0,09-30,0.2968209584553995
08-17,2.3274421691894567,2.153133392333988,-1.6288089752197266,2.1855392456054688,3.776184082031236,-1.9497146606445455,-16.77802276611328,-0.01857757568359375,5.018821716308594,0.5476455688476562,6.45233154296875,1.4045104980468608,8.0,4.0,10-01,0.2908736864725719
08-18,2.121713638305664,2.3575992584228516,0.46719932556152344,2.4927444458007812,4.575164794921861,-3.1801300048828267,-15.4676513671875,-0.1859893798828125,6.398750305175753,-0.5764923095703125,6.73583984375,3.3768081665039205,8.0,4.0,10-02,0.7596297264099086
08-19,1.9280986785888672,3.0502853393554688,1.4873580932617188,2.8043365478515625,4.463592529296861,-6.0888214111328125,-13.570838928222656,-2.4832687377929688,5.926185607910156,0.0192108154296875,5.132530212402358,3.4266204833984517,9.0,3.0,10-03,0.5079407691955579
08-20,2.0410442352294957,3.087831497192383,0.7372455596923793,2.4005813598632812,3.4235992431640625,-5.839996337890611,-11.160888671875,-1.7206192016601705,8.137893676757812,0.46115875244140625,4.018043518066406,3.825065612792983,9.0,3.0,10-04,0.784246603647869
08-21,0.8107719421386719,3.371574401855465,-0.11146926879883168,4.011196136474609,3.361083984375,-6.292381286621094,-6.487648010253906,-1.6462173461914205,9.0736083984375,-2.257843017578125,3.6269989013671875,3.5361862182617188,7.0,5.0,10-05,0.9163217544555646
08-22,0.8511066436767578,3.0168933868408203,0.7415294647216797,2.4400787353515625,2.8968734741210938,-6.0526275634765625,0.366546630859375,-2.9390182495117188,7.2966766357421875,-1.7966766357421875,4.21356201171875,2.1814727783203125,9.0,3.0,10-06,1.1013681093851726
08-23,1.3674259185791051,3.7512855529785085,0.6943721771240199,3.344127655029297,1.8970260620117188,-6.504989624023423,2.13507080078125,-4.520103454589844,8.156791687011719,-0.99920654296875,7.879661560058594,4.821159362792969,9.0,3.0,10-07,1.8352184295654304
08-24,1.5650787353515625,4.40224456787109,0.37290000915527344,3.4538383483886648,4.744789123535156,-6.767364501953111,1.0446395874023438,-4.473602294921889,8.0811767578125,-2.0753021240234375,9.23855590820311,3.4564971923828125,9.0,3.0,10-08,1.9202876091003398
08-25,1.4440574645996094,4.014179229736325,0.7200927734375,3.7566452026367188,3.4101715087890625,-8.961311340332017,2.9872360229492188,-4.8084259033203125,8.799514770507827,-2.988037109375,8.34890747070311,9.084510803222656,9.0,3.0,10-09,2.150628407796225
08-26,1.6659107208251953,3.9390754699706996,0.5872287750244141,3.66009521484375,1.13372802734375,-7.658515930175781,1.1087646484375,-3.3110198974609233,8.62936401367186,-1.4892120361328125,5.064094543457017,8.955017089843736,9.0,3.0,10-10,1.8570442199707005
08-27,1.0810260772705114,3.108686447143551,-0.861541748046875,2.7779808044433594,2.1068267822265625,-7.106636047363281,-0.8063888549804688,-12.899963378906236,8.024459838867173,-12.077064514160156,7.009574890136719,8.118278503417983,7.0,5.0,10-11,-0.12706343332926315
08-28,1.3230552673339808,4.060073852539059,0.4071922302246165,2.8394355773925923,2.999549865722642,-7.1970977783203125,-0.3115692138671875,-12.78836059570311,7.7787094116210795,-9.86724853515625,5.4258270263671875,12.819915771484347,8.0,4.0,10-12,0.6241235733032203
08-29,1.754648208618164,3.9724388122558594,0.3085975646972656,2.4795722961425923,2.8076095581054688,-8.970352172851562,0.6230926513671875,-14.229957580566392,8.081184387207045,-11.587074279785156,4.340667724609375,15.419754028320327,9.0,3.0,10-13,0.4166817665100145
08-30,1.8998622894287074,4.181070327758789,0.5486526489257741,3.0149879455566406,3.802978515624986,-9.789108276367202,1.87847900390625,-14.267143249511719,8.128448486328125,-10.626274108886719,4.761039733886719,15.58909606933598,9.0,3.0,10-14,0.7601741154988609
08-31,2.1136531829833984,4.343814849853519,0.5015068054199148,2.387409210205071,4.258270263671861,-12.937561035156264,1.7318496704101562,-12.965065002441406,7.6464080810546875,-13.604721069335938,8.544441223144545,13.11874389648439,9.0,3.0,10-15,0.42822917302449454
09-01,3.005092620849613,3.3715629577636683,1.1701698303222727,2.6594924926757812,3.981536865234361,-12.489730834960952,5.4705047607421875,-13.058082580566406,8.32692718505858,-14.210006713867173,6.628303527832017,10.548782348632784,9.0,3.0,10-16,0.4503793716430611
09-02,3.0655956268310547,3.0544395446777344,1.7573776245117188,3.4977188110351562,3.691413879394517,-11.168846130371108,3.4729156494140625,-13.876541137695312,9.50836181640625,-13.191566467285156,7.605926513671875,8.576484680175739,9.0,3.0,10-17,0.4994400342305442
09-03,2.9929981231689524,2.6496791839599645,2.790384292602539,4.235019683837891,4.0217208862304545,-10.41793823242186,3.0605545043945312,-13.96954345703125,9.196464538574219,-11.241172790527344,8.33913421630858,11.754066467285128,9.0,3.0,10-18,1.1176139513651504
09-04,2.9002227783203125,3.54266357421875,1.9888439178466797,4.739704132080085,3.2495269775390625,-10.458648681640625,5.452178955078125,-13.913734436035156,8.997978210449219,-11.298828125,7.273529052734361,14.075019836425781,9.0,3.0,10-19,1.3790380160013829
09-05,2.383899688720703,3.5885658264160156,3.2276020050048757,4.476402282714851,2.5219497680664062,-10.010795593261733,3.97686767578125,-13.77423095703125,8.922355651855469,-11.990615844726562,5.4942550659179545,16.107078552246108,9.0,3.0,10-20,1.243611176808674
09-06,2.6541614532470703,3.1253776550293004,2.4174823760986257,2.6200027465820384,6.793571472167969,-7.540901184082031,4.380050659179673,-14.006744384765625,8.204048156738281,-13.335700988769545,5.337837219238281,13.278129577636761,9.0,3.0,10-21,1.1606095631917333
09-07,2.347606658935547,3.8305854797363352,1.6416702270507741,2.6112327575683523,6.3070526123046875,-5.763130187988281,4.563323974609375,-13.179000854492202,8.383621215820298,-12.029037475585938,7.547271728515625,13.586921691894545,9.0,3.0,10-22,1.65400981903076
09-08,1.7264118194580078,3.4884128570556747,1.7145309448242188,0.8514022827148366,6.6820220947265625,-3.56463623046875,3.885215759277358,-11.849014282226562,10.132186889648438,-10.2803955078125,7.9871978759765625,12.989250183105483,9.0,3.0,10-23,1.9802153905232773
09-09,1.2948169708251953,3.400783538818363,3.249025344848633,0.838226318359375,8.248741149902344,-3.50579833984375,4.160140991210952,-7.626518249511733,11.209671020507827,-10.020980834960938,8.563995361328125,8.656181335449219,9.0,3.0,10-24,2.372357050577801
09-10,1.081024169921875,2.461917877197269,4.526348114013672,-0.109710693359375,6.5793609619140625,-3.9581680297851562,3.665306091308608,-9.654045104980469,10.387390136718764,-11.010597229003892,7.038909912109375,8.257736206054673,8.0,4.0,10-25,1.6054560343424507
09-11,1.3633804321289027,1.998743057250973,4.834964752197266,0.570526123046875,6.262451171875,-3.487701416015611,6.322685241699219,-8.854194641113281,10.907218933105483,-14.229225158691406,6.638092041015639,6.574310302734375,9.0,3.0,10-26,1.575104236602786
09-12,0.5768184661865234,2.3742790222167898,4.033409118652344,0.6144065856933665,6.954292297363281,-2.1622695922851562,9.007545471191392,-10.732917785644531,10.425178527832031,-13.69118499755858,6.119941711425781,4.044204711914091,9.0,3.0,10-27,1.463641961415611
09-13,0.12101173400878906,2.3617706298828125,4.359180450439446,-0.6187973022460938,7.597053527832031,-1.746124267578125,8.952552795410156,-8.035751342773438,11.965805053710938,-14.575103759765625,4.1060256958007955,1.115646362304659,8.0,4.0,10-28,1.3002724647521955
09-14,0.43967628479003906,2.265796661376953,3.797676086425774,-0.732891082763679,7.463127136230469,-3.2162857055664062,8.036239624023438,-7.589324951171875,10.623664855957031,-8.128227233886719,8.485786437988281,-2.8090286254882812,7.0,5.0,10-29,1.553017457326252
09-15,-0.8712787628173864,2.1447925567626953,3.1890182495117188,-0.5836868286132884,7.003387451171875,-1.9542160034179688,9.2091064453125,-8.110160827636719,11.69171142578125,-9.761566162109375,8.16317749023439,-4.6916656494140625,6.0,6.0,10-30,1.2857182820638025
09-16,-1.0648975372314453,1.8944263458251953,4.410621643066406,-1.0883674621582102,9.065559387207031,-3.831512451171875,8.485198974609375,-6.380233764648423,10.519691467285142,-9.703926086425781,9.473197937011719,-3.815093994140625,6.0,6.0,10-31,1.4970553716023758
09-17,-0.8188381195068359,1.8985958099365234,4.993541717529304,-1.0444984436035227,7.275665283203125,-4.424110412597656,9.044166564941406,-7.635833740234375,8.846755981445298,-8.426086425781236,8.57376861572267,-4.024276733398466,6.0,6.0,11-01,1.1882375081380196
09-18,-0.500177383422848,1.685791015625,3.7247962951660227,-0.1623687744140554,6.182106018066406,-5.0257415771484375,10.162109374999986,-7.3939971923828125,8.92236328125,-7.8592300415039205,6.403450012207031,2.3209457397460938,7.0,5.0,11-02,1.5383372306823722
09-19,-1.314981460571289,1.6732711791992223,2.948974609375007,-0.0702056884765554,6.101768493652344,-4.731719970703125,9.905555725097656,-7.7567596435546875,7.1643753051757955,-9.569442749023452,5.171638488769531,9.60247802734375,7.0,5.0,11-03,1.5937460263570165
09-20,-0.8874073028564418,2.0780181884765625,3.9348258972167827,-0.5661239624023366,7.275665283203125,1.8140029907226562,9.667282104492173,-8.258956909179688,6.720153808593764,-10.405326843261733,5.7288818359375,15.041229248046875,8.0,4.0,11-04,2.678520361582437
09-21,-0.6897563934326172,2.378467559814446,5.64076805114745,1.8476295471191406,8.628135681152344,0.31215667724609375,9.841407775878892,-9.375038146972642,6.550018310546889,-8.877655029296875,6.931365966796861,16.714691162109375,9.0,3.0,11-05,3.325182596842447
09-22,-0.9922904968261719,2.424367904663079,7.1152687072753835,1.3648605346679688,8.945060729980469,-0.5473480224609375,11.215888977050781,-10.007476806640625,6.994239807128906,-5.553337097167969,9.52206420898436,11.943336486816435,8.0,4.0,11-06,3.535386244455973
09-23,-0.560684204101566,2.687242507934563,8.504051208496094,2.181140899658203,8.882560729980469,3.1529693603515625,12.75531005859375,-10.714340209960952,6.965873718261719,-5.99530029296875,10.30416870117186,14.43360137939456,9.0,3.0,11-07,4.383049488067626
09-24,-0.3468990325927699,2.591276168823242,6.888116836547852,2.7999305725097585,8.900550842285156,2.130615234375,14.432212829589844,-8.677505493164062,6.786285400390639,-5.1209716796875,13.237052917480469,13.806060791015653,9.0,3.0,11-08,4.78556044896444
09-25,0.6211853027343786,2.8750095367431605,7.055276870727539,2.7168197631835866,8.378288269042969,3.5465087890625,13.625846862792983,-7.245185852050781,6.786285400390639,-1.9312057495117188,12.816665649414062,17.939903259277344,10.0,2.0,11-09,5.5987831751505555
09-26,0.23450851440429688,2.862398147582997,7.508245468139648,2.9055328369140625,7.48114013671875,3.7613983154296875,17.27330780029297,-6.5073089599609375,7.192718505859375,-0.8262939453125,12.816665649414062,16.953765869140625,10.0,2.0,11-10,5.971339861551919
09-27,1.0771713256835938,2.5136585235595668,4.908363342285156,2.629039764404297,6.681907653808594,3.6721115112304688,16.10548400878905,-6.281913757324219,7.684211730957031,0.5188140869140625,11.350212097167969,20.603759765625,11.0,1.0,11-11,5.955235004425048
09-28,1.1178760528564453,2.2625999450683594,6.202829360961914,1.4640350341796875,6.747276306152344,3.3862075805664062,15.544563293457031,-7.3236083984375,6.871383666992202,0.01761627197267046,10.674110412597656,21.55377197265625,11.0,1.0,11-12,5.709888458251956
09-29,1.2114315032958949,2.362741470336914,5.8384857177734375,1.0510025024414062,7.0115203857421875,2.9278106689452983,14.675621032714844,-5.9192047119140625,6.538597106933594,-1.5045013427734375,10.948928833007812,22.78826904296875,10.0,2.0,11-13,5.660891850789387
09-30,1.425222396850586,2.4044723510742223,6.907983779907227,1.0907058715820312,7.1682586669921875,3.5410079956054688,13.081207275390625,-5.65252685546875,3.8903961181640625,-3.7336654663085938,11.979476928710938,21.04507446289061,10.0,2.0,11-14,5.262301127115884
10-01,2.090780258178711,2.3212852478027344,8.572032928466797,1.0818824768066406,8.22479248046875,6.0606689453125,10.845382690429688,-6.75433349609375,3.77655029296875,-4.785537719726577,13.651504516601548,21.343910217285156,10.0,2.0,11-15,5.535743236541745
10-02,1.8250656127929652,2.1171360015869176,8.21829605102539,0.9829254150390625,8.300674438476562,6.0606689453125,6.3201751708984375,-6.492828369140625,3.5867767333984375,-4.223876953125,16.05645751953125,17.0797119140625,10.0,2.0,11-16,4.985931873321533
10-03,1.361663818359368,2.1507549285888636,8.244171142578118,0.11397933959960938,8.367637634277344,6.356651306152344,6.041305541992173,-6.324699401855469,1.74017333984375,-2.8019332885742188,15.870712280273438,17.390037536621094,10.0,2.0,11-17,4.8758711814880344
10-04,1.7972450256347656,1.6129169464111293,6.347188949584957,-0.065948486328125,6.8291168212890625,6.015434265136719,7.071189880371094,-4.9104690551757955,1.4849853515625,-2.5425186157226705,13.336463928222642,18.84003448486328,9.0,3.0,11-18,4.651303291320796
10-05,1.7280368804931605,1.0886249542236364,5.451360702514648,-0.9371337890625,7.85919189453125,6.664421081542969,6.850486755371094,-4.473350524902344,0.7571945190429688,-0.4503021240234375,13.980735778808608,17.84003448486328,9.0,3.0,11-19,4.696608384450278
10-06,1.2250747680664027,0.771484375,5.044155120849609,-0.6774215698242188,7.747245788574219,8.103103637695312,10.258155822753906,-5.040679931640625,1.1092071533203125,-1.8622741699218608,13.411476135253906,19.204696655273438,9.0,3.0,11-20,4.941185315450034
10-07,1.2896213531494105,0.8591213226318395,4.185020446777344,1.2760963439941406,7.796501159667969,11.277359008789062,9.424301147460938,3.061126708984375,1.5433120727539062,-1.3508148193359517,13.283882141113281,14.831787109375,11.0,1.0,11-21,5.6231094996134425
10-08,0.7450656890869105,1.201364517211914,3.3002357482910085,1.2760963439941406,8.92645263671875,9.870521545410156,8.086463928222656,1.62322998046875,2.5395965576171875,-1.3508148193359517,14.321113586425781,8.805328369140653,11.0,1.0,11-22,4.945387840270996
10-09,0.11199951171875,1.2175731658935511,2.5366554260253835,2.819671630859368,9.073738098144531,11.453781127929688,7.112403869628906,2.5572509765625,2.5395965576171875,7.480712890625,12.141006469726562,7.918792724609375,12.0,0.0,11-23,5.5802652041117335
10-10,-0.12685012817382457,1.2049694061279332,2.5366554260253835,2.973266601562486,8.069435119628906,13.483329772949219,7.006431579589844,2.5572509765625,3.2218246459960938,6.481498718261719,11.085166931152344,7.749450683593722,11.0,1.0,11-24,5.520202477773027
10-11,0.3942146301269567,1.2049694061279332,2.3936767578125,2.92938232421875,7.6693878173828125,17.85260772705078,7.788040161132798,4.400474548339844,3.193450927734375,9.575233459472656,6.848892211914034,7.749450683593722,12.0,0.0,11-25,5.999981721242264
10-12,0.3942146301269567,0.3954887390136683,1.729278564453125,3.557373046875,8.152130126953125,17.9524688720703,7.788040161132798,4.735282897949219,2.2577362060547017,11.71212005615233,8.50003051757814,7.749450683593722,12.0,0.0,11-26,6.243634541829423
10-13,-0.09638977050780895,0.08670425415039062,1.7678642272949219,3.4335365295410156,8.335762023925781,17.9524688720703,7.95306396484375,4.5678863525390625,2.0968017578125,11.156883239746094,10.835952758789077,10.219802856445312,11.0,1.0,11-27,6.525861422220866
10-14,-0.45538330078125,0.04914474487304332,0.16009140014647727,3.2747879028320312,8.335762023925781,17.42747497558595,7.824760437011719,5.027473449707031,3.1962509155273438,11.205116271972656,10.835952758789077,9.203781127929716,11.0,1.0,11-28,6.3404343922932975
10-15,-0.677240371704098,0.6512641906738352,0.90985107421875,3.0013656616210866,9.046859741210938,16.106590270996108,6.0470733642578125,5.4760284423828125,2.9590301513671875,9.719009399414062,11.742782592773423,7.0621337890625,11.0,1.0,11-29,6.003729025522868
10-16,-0.028795242309570312,0.538127899169929,2.2471923828125,2.0480003356933594,8.716552734375,15.504936218261733,5.5828857421875,4.747489929199219,4.372810363769531,9.544235229492188,11.009574890136719,6.643768310546875,11.0,1.0,11-30,5.910564899444583
10-17,-0.8445529937744105,0.6095504760742116,2.5017166137695312,1.5433158874511648,5.0341033935546875,13.756584167480483,4.9498138427734375,5.354614257812486,4.2581787109375,9.601890563964844,8.780578613281236,9.472717285156222,11.0,1.0,12-01,5.418209234873449
10-18,-0.8038482666015625,0.6767845153808594,3.251701354980476,1.4906501770019531,4.189598083496094,12.827529907226562,4.517616271972685,3.2816925048828125,4.33380126953125,8.766006469726562,5.347106933593764,9.472717285156222,11.0,1.0,12-02,4.7792797088623065
10-19,-0.6084480285644531,1.9383201599121058,4.061820983886726,2.4138221740722727,3.5996627807617188,13.304039001464844,5.45556640625,3.5142059326171875,2.9822006225585938,7.261085510253906,4.563659667968736,9.472717285156222,11.0,1.0,12-03,4.8298877080281555
10-20,-0.04135322570800781,1.233112335205071,3.2731475830078125,3.1457748413085938,3.4205169677734375,12.96820068359375,3.966522216796875,3.4211959838867188,-0.43042755126954546,7.831581115722656,4.229957580566406,9.163925170898438,10.0,2.0,12-04,4.348512808481851
10-21,0.5798416137695312,1.5627632141113246,1.4695587158203125,1.6773414611816406,2.52484130859375,12.644088745117202,4.644630432128892,3.0371170043945312,-0.48107147216795454,7.831581115722656,3.699951171875,9.7615966796875,11.0,1.0,12-05,4.079353332519532
10-22,0.17244148254394887,1.8015422821044957,0.4361991882324219,1.3995208740234446,1.5358200073242188,13.698081970214858,1.9139480590820312,1.6208114624023438,1.065521240234375,9.018539428710938,4.242057800292983,10.090316772460938,12.0,0.0,12-06,3.916233380635583
10-23,0.3221511840820348,1.6823158264160227,0.56561279296875,1.9726219177246094,2.2812423706054688,13.15976715087892,0.6185836791992472,2.9377822875976562,0.29697418212890625,6.3121566772460795,5.024139404296889,9.522521972656222,12.0,0.0,12-07,3.7246557871500676
10-24,1.099557876586914,1.3251686096191406,0.682098388671875,1.2572784423828125,1.8304290771484375,12.93426513671875,2.200012207031236,3.1525955200195312,-0.7542114257812358,9.050392150878906,5.894233703613281,12.451080322265653,11.0,1.0,12-08,4.260241667429608
10-25,1.0792007446289062,1.5352554321289134,1.1514739990234375,1.7619590759277344,0.208404541015625,14.01409912109375,1.3080596923828125,6.862022399902344,-1.0188598632812358,3.3529281616210795,7.4369354248046875,12.451080322265653,11.0,1.0,12-09,4.178546587626142
10-26,0.4726524353027344,1.2914543151855398,0.1527557373046875,3.3717575073242188,3.3821258544921875,14.009567260742188,-0.751708984375,5.652946472167969,-1.9167785644531108,3.2913055419921733,9.143409729003892,12.451080322265653,10.0,2.0,12-10,4.212547302246095
10-27,0.3982353210449183,1.5126113891601491,-1.5917778015136719,2.139057159423821,2.8760528564453125,15.303047180175767,-0.9388427734375,4.8809814453125,-1.293243408203125,0.7632369995117188,9.57527923583983,16.375755310058594,9.0,3.0,12-11,4.16669940948486
10-28,1.1041316986083949,1.5835514068603445,-2.6604080200195312,3.2282447814941406,3.1626739501953125,11.844360351562486,-2.2216796875,6.4762649536132955,0.19940948486328125,0.9851837158202983,9.074714660644517,18.547271728515625,10.0,2.0,12-12,4.27697658538818
10-29,0.6362266540527273,1.6300621032714773,-0.8265342712402273,3.757415771484368,-1.1387405395507812,13.355239868164048,-2.175880432128892,6.131706237792969,-0.0283203125,0.5798721313476562,7.607666015625,15.668510437011719,8.0,4.0,12-13,3.7664353052775055
10-30,1.2720603942871058,1.9997367858886683,-1.4391365051269531,3.5413322448730398,0.579742431640625,13.219535827636705,-2.7736663818359375,5.5245742797851705,0.1709442138671733,-0.29265594482424717,6.698478698730469,14.054824829101562,9.0,3.0,12-14,3.5463142395019482
10-31,0.6287288665771449,1.8148536682128942,-1.9395523071289062,3.5413322448730398,0.16909027099609375,8.883956909179688,-4.51238250732419,4.030128479003906,0.43691253662107954,-1.1285247802734375,7.539237976074219,8.616073608398438,9.0,3.0,12-15,2.3399879137674975
11-01,1.1090869903564418,2.1804008483886683,-1.6641578674316477,1.4699020385742188,0.7963333129882812,9.124130249023423,-5.431915283203111,3.5709686279296875,0.7393493652343608,-2.713836669921889,8.649520874023438,8.616073608398438,9.0,3.0,12-16,2.2038213411966923
11-02,0.7508563995361293,2.0991973876953054,-2.56427001953125,2.5860328674316406,0.027069091796875,8.348030090332031,-4.677902221679673,3.9057693481445312,0.5125198364257812,-5.34759521484375,5.322723388671875,8.616073608398438,9.0,3.0,12-17,1.6315420468648278
11-03,0.7445335388183558,1.9948654174804688,-3.4044151306152415,3.85113525390625,-0.20136260986328125,7.6899871826171875,-3.316375732421861,4.491722106933594,-2.1428756713867188,-5.6390533447265625,5.558273315429659,6.9426116943359375,7.0,5.0,12-18,1.3807538350423156
11-04,0.8736171722412074,1.4774436950683523,-3.3746185302734304,3.970195770263672,0.3405609130859375,11.090995788574219,-3.0139846801757812,3.4404525756835938,-0.758262634277358,-8.543754577636719,5.411071777343722,10.976852416992159,8.0,4.0,12-19,1.8242141405741312
11-05,0.25646209716796164,0.9832115173339844,-3.2182273864746094,4.971206665039055,1.1285781860351562,8.023963928222656,-2.418357849121108,1.8400192260742188,0.22855377197264204,-8.958702087402344,3.2057952880859375,5.548065185546875,9.0,3.0,12-20,0.9658807118733689
11-06,-0.19947433471679332,1.226909637451179,-3.9688568115234446,3.796794891357429,1.0882720947265625,7.338653564453125,-4.377014160156236,2.120208740234375,0.399322509765625,-10.093582153320312,2.3454818725585938,5.0500030517578125,8.0,4.0,12-21,0.3938932418823263
11-07,-1.2578849792480469,1.3739700317382812,-3.2570533752441406,4.661083221435547,2.50347900390625,9.12680816650392,-5.002288818359361,1.5784759521484375,0.2570037841796875,-12.178466796875,2.286834716796875,1.4000091552734375,8.0,4.0,12-22,0.12433083852132398
11-08,-1.0746994018554688,1.4243965148925852,-3.1146888732910227,5.997245788574219,1.6704864501953125,9.81662750244142,-4.1379013061523295,1.0554428100585938,0.46492767333984375,-11.811759948730483,3.4351806640625,1.4000091552734375,8.0,4.0,12-23,0.42710558573405066
11-09,-0.814163208007809,1.7731361389160156,-1.4063606262207102,7.5009918212890625,1.997406005859375,10.588172912597656,-2.7310104370117045,0.5417404174804688,0.9772872924804688,-10.267738342285156,3.2094345092773438,1.4000091552734375,8.0,4.0,12-24,1.064075469970704
11-10,-0.8548679351806605,1.8739814758300781,-1.7514801025390696,7.4612884521484375,1.997406005859375,10.588172912597656,-2.1700897216796875,-0.93402099609375,1.4137802124023438,-8.03857421875,3.2094345092773438,0.4499969482421875,7.0,5.0,12-25,1.1037522951761878
11-11,-0.9403610229492152,1.8361587524414062,-2.566814422607429,6.962978363037109,1.4957962036132812,11.71371459960939,-2.6206512451171875,0.0933837890625,1.5466079711914062,-8.7623291015625,3.7394332885742188,0.6200103759765625,8.0,4.0,12-26,1.0931606292724618
11-12,-0.5536327362060476,2.4622116088867188,-2.1268043518066406,7.83612060546875,2.2705917358398438,12.3309326171875,-0.4137725830078125,-0.9807281494140625,1.5560989379882955,-9.457145690917983,3.2290725708007812,3.4000091552734375,7.0,5.0,12-27,1.6294128100077316
11-13,-0.43150520324706676,2.4958229064941406,-1.6306953430175781,7.624458312988281,1.3256301879882812,11.727340698242188,-0.5425415039062358,-1.2702865600585938,1.6414947509765767,-4.8636703491210795,3.1603546142578125,0.4499969482421875,7.0,5.0,12-28,1.6405332883199095
11-14,-0.7571735382080114,2.588268280029304,-1.4365692138671875,8.12717056274414,0.8956985473632812,12.353652954101562,-1.4344863891601562,-0.18680572509765625,2.030517578125,-5.867279052734375,3.7198028564453267,-1.0,6.0,6.0,12-29,1.5860664049784357
11-15,-0.6676158905029332,2.9370079040527344,-1.9671783447265554,8.594600677490234,1.4241561889648438,11.917953491210952,-1.8850708007812358,-1.4570846557617188,2.94140625,-7.5367584228515625,3.788513183593736,-1.0,6.0,6.0,12-30,1.4241607983907079
11-16,-0.8426609039306676,3.626110076904297,-0.9231948852539062,7.717029571533196,1.4017333984375,12.312797546386705,-1.2597732543945312,-1.5785140991210938,2.353118896484375,-5.548843383789091,4.3087005615234375,-1.0,6.0,6.0,12-31,1.713875293731685
11-17,-0.7734527587890625,3.4160099029541016,0.034515380859375,5.763511657714837,1.4017333984375,12.312797546386705,-1.0390701293945312,-1.8119964599609375,2.5239181518554688,-6.060302734375,4.3087005615234375,0.0,7.0,5.0,01-01,1.6730303764343244
11-18,-0.4681434631347621,2.798358917236328,-0.34943389892578125,5.5783233642578125,1.7107925415039062,10.511039733886719,-3.3563079833984375,-0.4857025146484375,2.1728515625,-6.243637084960909,3.9259185791015625,0.0,6.0,6.0,01-02,1.3161716461181667
11-19,-0.04885292053222656,2.7185211181640625,0.9318275451660156,6.746906280517578,2.1944732666015625,9.530731201171875,-2.565521240234375,-0.8219528198242188,1.84075927734375,-5.278617858886719,4.612976074218778,0.0,7.0,5.0,01-03,1.6551041603088403
11-20,0.004070281982421875,2.823566436767564,0.7161369323730469,7.496559143066413,3.3409652709960938,8.623031616210938,-4.459754943847656,-1.335662841796875,2.9603805541992188,-4.043411254882798,6.860557556152372,0.0,8.0,3.0,01-04,1.9155365626017282
11-21,-0.8100929260253906,3.084083557128899,1.4193153381347727,7.408374786376953,2.8393783569335938,7.170730590820327,-6.114913940429673,-0.87799072265625,2.704193115234375,-4.9408798217773295,7.665374755859418,0.0,7.0,4.0,01-05,1.6289644241333079
11-22,0.028493881225585938,2.554656982421868,1.738525390625007,6.6939849853515625,2.3109054565429688,6.276657104492202,-6.9057235717773295,0.60711669921875,2.7706222534179688,-5.404083251953111,6.07537841796875,0.0,9.0,2.0,01-06,1.3955445289611852
11-23,0.04478263854980469,3.3529701232910156,2.471897125244155,6.3412017822265625,2.3377685546875,3.5898895263672017,-6.583900451660142,-0.29888916015625,1.9830703735351562,-8.993942260742188,1.8648223876953125,0.0,8.0,3.0,01-07,0.509139219919844
11-24,0.7083148956298793,2.5672454833984304,2.5236778259277415,7.2584228515625,1.4913330078125,3.3402862548828267,-8.294227600097656,-0.803253173828125,1.2999114990234375,-7.1700363159179545,1.275917053222642,0.0,8.0,3.0,01-08,0.34979931513468515
11-25,0.37450218200683594,2.634479522705071,2.1958274841308594,6.724842071533203,1.8317184448242188,3.866737365722642,-9.186195373535156,-2.3444061279296875,2.9129562377929545,-6.8515777587890625,0.28462982177734375,0.0,8.0,3.0,01-09,0.20362615585326851
11-26,0.919998168945309,2.508441925048821,0.9533882141113281,7.593593597412109,1.9436569213867188,3.1632843017577983,-8.956306457519517,-1.6438751220703125,2.7231826782226562,-6.050621032714844,-1.2759246826171733,0.0,7.0,4.0,01-10,0.15656820933024118
11-27,1.0339889526367188,1.899192810058608,0.7678871154785156,8.382930755615241,2.2078933715820312,2.3145675659179688,-10.07815551757811,-0.93402099609375,2.2487564086914062,-4.1495590209960795,-0.7655487060547017,0.0,7.0,4.0,01-11,0.243994394938154
11-28,0.9444332122802699,2.008434295654304,1.5487251281738281,8.598995208740234,2.4228591918945312,5.019515991210923,-10.344787597656264,-0.89666748046875,-0.692657470703125,-5.925178527832017,-0.4220275878906108,0.0,6.0,5.0,01-12,0.18847036361694366
11-29,0.9159450531005859,1.7773399353027486,1.4926300048828125,8.27267074584961,2.71844482421875,3.2222976684570455,-10.381599426269545,-1.2796173095702983,-0.37953948974609375,-6.726150512695298,-0.17665863037107954,0.0,6.0,5.0,01-13,-0.04535309473673029
11-30,0.5699176788330078,2.1218833923339844,-0.4961128234863281,7.7170562744140625,3.0991287231445312,2.895545959472642,-9.765487670898452,0.6538009643554688,-0.2277221679687358,-6.4463043212890625,-0.40241241455078125,0.0,6.0,5.0,01-14,-0.023392200469971886
12-01,0.6350498199462926,1.3235359191894531,0.02156829833984375,9.33099365234375,1.8361892700195312,3.2313919067382812,-12.606880187988267,1.2982940673828125,0.6452026367187358,-8.3956298828125,0.7066650390625,0.0,9.0,2.0,01-15,-0.16446828842163055
12-02,0.37450981140137074,1.1848983764648438,0.7463111877441406,8.859149932861335,3.2379379272460938,3.558135986328139,-11.301109313964844,1.9147491455078125,0.00950622558595171,-8.29910278320314,1.4035110473632812,0.0,9.0,2.0,01-16,0.14070812861124882
12-03,0.7653141021728516,0.9285888671875,1.2208595275878906,8.46668624877929,4.0485382080078125,1.6837539672851562,-10.344795227050795,0.8219451904296875,0.5788040161132812,-9.225532531738281,2.7285232543945597,0.0,9.0,2.0,01-17,0.1393904685974127
12-04,0.4437141418457067,1.0882492065429759,1.0137939453125,8.299125671386712,3.4708404541015625,1.4795227050781392,-11.871231079101548,0.30825042724609375,-0.8729400634765767,-4.043403625488281,1.6096191406250142,0.0,8.0,3.0,01-18,0.07712841033935813
12-05,1.0014247894287145,1.3403587341308594,1.2381134033203125,8.673961639404297,3.99481201171875,1.8698501586914205,-10.501129150390625,-0.01868438720703125,-2.1349029541015625,-3.136291503906236,-0.3827819824218466,0.0,6.0,5.0,01-19,0.16206089655558772
12-06,0.7001876831054688,1.3613624572753977,1.9240226745605469,7.020294189453125,1.2808303833007812,1.5249252319335795,-12.036750793457031,0.438995361328125,-1.6035461425781392,-3.136291503906236,-1.766647338867159,0.0,7.0,4.0,01-20,-0.3577181498209618
12-07,1.5876274108886719,0.9832038879394531,2.2562026977539062,7.831672668457031,0.42992401123046875,3.4219970703125,-12.312599182128906,-1.3917083740234375,-1.5276412963867188,-0.665863037109375,-5.4668426513671875,0.0,6.0,5.0,01-21,-0.4045022328694661
12-08,1.7463817596435547,1.239513397216804,3.1362457275390625,7.999294281005859,1.2405166625976562,2.4144668579101562,-8.487350463867188,-2.540550231933608,2.3626174926757812,3.7635574340820455,-4.4068450927734375,0.0,8.0,3.0,01-22,0.7056539853413906
12-09,1.5021343231201207,1.1512718200683665,1.6479301452636648,8.329998016357415,1.4734115600585938,1.061973571777358,-7.383903503417969,-1.6812667846679545,2.6188125610351562,1.9010620117187642,-6.958702087402358,0.0,8.0,3.0,01-23,0.3052268028259298
12-10,1.6649684906005895,0.193267822265625,2.760955810546875,8.347637176513665,-0.08509063720703125,3.2585906982422017,-6.767799377441406,0.326904296875,1.0437393188476562,0.8588714599609659,-6.193122863769517,0.0,8.0,3.0,01-24,0.4507435162862186
12-11,0.24018287658691406,0.7100868225097514,2.5064315795898438,8.100700378417969,2.1541519165039062,2.4643630981445312,-6.262054443359389,1.485084533691392,1.4897003173828125,-0.9553604125976562,-6.0360946655273295,0.0,8.0,3.0,01-25,0.49143266677856207
12-12,0.09362792968749645,1.1974906921386648,2.579761505126953,8.316783905029297,1.4510345458984375,5.232833862304702,-4.202293395996094,2.942176818847642,2.893981933593764,-1.3606719970702983,-7.4592208862304545,0.0,8.0,3.0,01-26,0.9737920761108425
12-13,0.5658493041992188,1.3109397888183594,3.4770660400390625,8.02572250366211,1.7824478149414062,4.402290344238281,-6.087348937988281,3.7641143798828267,2.5524063110351562,1.1097564697265625,-6.6249847412109375,0.0,9.0,2.0,01-27,1.189854939778647
12-14,0.11398696899413707,1.4538116455078125,3.9774932861328196,6.1956787109375,-0.35826873779296875,4.406829833984375,-4.735626220703125,4.5860366821289205,4.858093261718764,2.0072402954101562,-7.302200317382784,0.0,8.0,3.0,01-28,1.266922950744634
12-15,0.2849578857421875,1.1302680969238352,4.0119972229003835,6.178070068359375,0.35382080078125,3.5626907348632812,-5.2873382568359375,4.6514358520507955,4.858085632324247,6.14715576171875,-10.099426269531222,0.0,9.0,2.0,01-29,1.3159764607747455
12-16,0.09362983703613637,1.3991813659667969,3.433921813964851,4.321559906005859,0.013458251953125,2.3055038452148438,-6.822990417480469,5.53875732421875,5.0668106079101705,6.340141296386719,-9.049240112304659,0.0,9.0,2.0,01-30,1.053394476572677
12-17,0.4885063171386683,0.8025436401367188,4.283771514892585,4.7889862060546875,-0.18361663818359375,-0.23600006103515625,-5.002281188964858,5.417335510253906,3.2640151977539205,7.092864990234375,-9.500740051269503,0.0,7.0,4.0,01-31,0.9346154530843126
12-18,0.5007076263427734,0.3655548095703267,4.460651397705085,3.421989440917976,-0.9091339111328125,-2.391754150390639,-3.8620529174804688,5.42669677734375,2.106414794921889,8.057868957519517,-8.077568054199219,0.0,7.0,4.0,02-01,0.7582812309265149
12-19,0.18318557739257812,0.8067474365234446,4.508102416992195,3.977611541748047,-0.94049072265625,-0.9939117431640767,-1.9402389526367188,3.53997802734375,2.2962188720702983,8.318420410156236,-8.833320617675781,0.0,7.0,4.0,02-02,0.9101918538411434
12-20,0.5251426696777379,1.5336494445800852,4.348487854003906,2.575305938720703,-0.8733062744140625,-3.0498428344726562,-1.508056640625,4.5954132080078125,2.438537597656236,7.700813293457017,-9.1866455078125,0.0,7.0,4.0,02-03,0.7582915623982732
12-21,0.6961174011230469,1.1218643188476562,3.753154754638679,2.0329055786132812,-1.4062347412109375,-2.664054870605483,-3.8528823852539062,4.3805694580078125,2.419555664062486,8.800926208496094,-12.926086425781236,0.0,7.0,4.0,02-04,0.19631958007812442
12-22,0.1384105682373047,1.0546417236328054,3.666881561279297,2.3459625244140554,-3.8649368286132812,-1.2253875732422017,-3.3563385009765625,5.19317626953125,1.3568420410155966,9.81418609619142,-11.453872680664062,0.0,7.0,4.0,02-05,0.3057971000671351
12-23,-0.036634445190426135,0.9874114990234375,2.7134895324707102,1.6315841674804688,-3.6992263793945312,-1.6429061889648438,-4.71722412109375,5.50140380859375,-0.6357421875,10.287063598632827,-10.285919189453125,0.0,5.0,6.0,02-06,0.008608341217043089
12-24,-0.14654731750487926,1.0840492248535085,3.1319503784179688,1.3802452087402344,-4.63970947265625,-1.6656265258789062,-4.85516357421875,4.754180908203139,-4.080024719238281,11.010810852050795,-8.519241333007812,0.0,5.0,6.0,02-07,-0.2120896975199361
12-26,-0.5902690887451172,1.2899284362792898,3.153514862060547,1.5830917358398438,-4.863624572753906,-0.553672790527358,-6.464340209960952,3.8855514526367188,-2.040031433105483,6.591041564941406,-8.342575073242188,0.0,5.0,6.0,02-09,-0.5292820930480998
12-27,-0.8589477539062536,1.5588417053222585,3.3001976013183594,2.2975006103515696,-3.9679183959960938,-0.7261428833007528,-9.425254821777358,3.9696044921875,-2.2392807006835938,4.5162734985351705,-8.784248352050781,0.0,5.0,6.0,02-10,-0.8632812499999979
12-28,-0.2564620971679723,1.1092643737792969,3.804931640625,2.3239212036132884,-2.65576171875,-2.5596771240234233,-8.19308471679689,5.071754455566406,-2.8844985961914062,3.4933395385741903,-10.119056701660142,0.0,5.0,6.0,02-11,-0.9054441452026376
12-29,0.158758163452152,0.9580001831054688,3.287250518798828,1.556640625,-2.0332565307617188,-1.9152221679687358,-8.496528625488281,4.4739837646484375,-6.18646240234375,2.537986755371108,-11.807205200195312,0.0,6.0,5.0,02-12,-1.4555045763651504
12-30,0.1994705200195348,1.1092643737792969,3.684123992919922,1.7638778686523438,-1.4824142456054688,-1.5611953735351562,-7.751708984375,5.0157012939453125,-5.3419647216796875,2.4028701782226705,-10.766830444335938,0.0,6.0,5.0,02-13,-1.060733795166014
12-31,0.49256896972656605,1.4496040344238352,2.463275909423821,0.4850616455078125,-1.7466354370117188,-1.3297195434570455,-6.8781585693359375,4.94097900390625,-3.8143386840820312,5.191772460937528,-10.92389678955081,0.0,6.0,5.0,02-14,-0.8057905832926441
