,2009,2010,2011,2012,2013,2014,2015,2016,2017,2018,2019,2020,ups,downs,avg
01-02,-16.56851853742712,-0.6143100360233453,4.294265469656105,5.965525957515599,0.4025573690868832,-1.7118906269419154,-0.5170417445752931,-9.734516375252046,6.222309455363986,-1.4442918755015564,5.746590956823255,-7.551491865865817,5.0,7.0,-1.2925676544284388
01-03,-17.226438043816554,-0.3976107709455183,4.14261018214606,5.359127822977708,0.9776440258676565,-1.9649059341133577,4.098186114141753,-6.733493557824959,6.157635467980295,-1.6076364782394552,9.194548359499844,-5.990521244272164,6.0,6.0,-0.33257117138322406
01-04,-19.524992746702218,1.3350695527028091,5.9413718425960385,5.158994066818376,-0.258788447108075,-0.1548942752442073,5.613045700513894,-4.635757541727971,4.167490992052802,-0.9886533088858637,7.396418363780905,-7.1642016594788265,6.0,6.0,-0.2595747883901949
01-05,-25.887136226518937,1.8929007565888192,5.411494461678677,6.004004202019997,0.5323780526360162,0.7305397928068013,5.244863284229601,-3.484207956414489,5.793100742283698,-2.235211899022025,6.544848156486971,-7.440694713671017,8.0,4.0,-0.5744267789079905
01-06,-32.09151826852808,0.3559314282723795,5.7497166286229096,5.759395335296388,0.8106785908318311,-0.49842325570670754,5.634106208894405,-1.5473697060032896,5.822663706511699,-2.177466844079592,8.129413158247681,-8.178994684550467,7.0,5.0,-1.0193223085159029
01-07,-26.547372239813644,-0.09706771923754688,7.19278181840389,7.735229296273509,-1.8789976175781566,-0.6521978170779019,5.215038536127732,-0.2631578947368421,5.325732875824534,-2.2038545780700627,7.808337377948474,-7.161985800210356,5.0,7.0,-0.4606261468455309
01-08,-29.627452123535296,0.5796177858860994,7.68026310963726,8.456362009624877,-6.630675678607724,-1.288358651536108,2.6921776424254507,0.21122037435840255,5.880633106324645,-2.876949437543721,7.900490557424809,-7.43809175764288,7.0,5.0,-1.2050635885986818
01-09,-29.554295476885077,1.2804085194010755,8.38695097601912,8.30705587500701,-7.520340508518804,-1.641188583495564,3.622080161060244,1.2339227638465482,6.4563121610474825,-2.2487445185586115,7.508655024760063,-7.647261776904676,7.0,5.0,-0.9847037819350991
01-10,-30.333652334053095,0.6283218810470819,5.145871643890085,6.165581126308015,-7.801695836198731,-0.9695373939362583,4.390635317971073,2.3469853637419353,6.244527109619299,-0.8562513754124463,6.460722139517521,-7.314004426020378,7.0,5.0,-1.3243747319604917
01-11,-37.00129322901666,-0.3742872894723118,5.222419541404207,5.664492815653707,-9.24047055908892,1.111287019862896,4.3299950337478785,0.44271717737983896,6.0110888551025266,-1.6865567392488396,7.509304321543264,-8.67042068881798,7.0,5.0,-2.2234769784125326
01-12,-31.096066598413962,2.0450832113879334,4.09012223074146,4.13943673794359,-6.582520384643216,0.40314542138808934,4.4431321884655475,0.5852817274326899,5.7776431797174,-1.9937834856073378,8.506822639310375,-12.102025664868295,8.0,4.0,-1.8153107330954772
01-13,-30.394000499799308,1.0144883557131188,4.63316232794636,5.075922407896573,-8.23483919894992,1.5778213022033118,3.6831131426235992,2.7487429400391776,6.120856601066018,0.6981097405206915,9.223647292111735,-17.869200454325842,9.0,3.0,-1.8101813369128739
01-14,-25.922454766075457,-1.111115069823693,3.2693399166562958,3.9598530881695697,-6.293342300613365,1.159843336887619,3.6916013984968084,2.205268189403865,7.104826746053937,0.7572529557493815,8.53144526068615,-19.103489813439626,8.0,4.0,-1.8125809214873765
01-15,-29.48718086353151,-1.6213525081946214,4.849591500594462,5.272220138974185,-4.069505108056835,1.2582239285111423,4.01833126587218,5.267498709231691,6.325032621340901,-1.1534141524709032,9.958097843704671,-19.846007775282747,7.0,5.0,-1.6023720332756153
01-16,-31.774807892564844,-4.371144623638674,5.8723636267266075,5.262024506176706,-3.319472077187306,2.827114677069565,2.31512531371293,6.6829716210783925,6.306745157889288,-3.735322711710957,8.585180895620331,-16.793480556617816,7.0,5.0,-1.845225171953815
01-17,-27.495167916995317,-2.965697751108226,5.185771065811832,3.5178072158604454,-5.435906628813933,2.1735797722140036,3.06738086113036,5.107220933927056,7.086842511319816,-1.8320860137540929,4.288131975672454,-24.037078902922634,7.0,5.0,-2.611600239804853
01-18,-31.82422525710475,-2.6038417293034803,5.476649900954809,1.4794503825984588,-5.992864878927982,3.9530922225688143,4.013459574511518,8.013660584654636,6.389774823914195,-5.309499369509686,5.840850981716436,-20.526570672884116,7.0,5.0,-2.5908386197342628
01-19,-32.88590432201371,-2.0495785801895603,5.9311454312012,3.8246551931721045,-5.90461157037513,3.5826639835893292,2.720213953549497,7.782143576400171,5.605577368774083,-6.597067582386256,7.458321659083405,-19.542305866643,7.0,5.0,-2.5062288963198225
01-20,-28.07243976846564,-0.3018786869271098,7.555961100404669,4.036267370334057,-5.295381760080378,5.090165501341041,3.050902008799447,5.849194685277688,3.3014234656126766,-5.9229013871173475,6.294901309096121,-20.595842634071314,7.0,5.0,-2.0841357329830075
01-21,-30.85381301629728,6.1010489932841345,8.457763002638677,4.508106128589527,-4.808400376641843,4.780993087662794,3.106143312800253,7.459985427879756,1.7832644898696626,-3.5650909603652288,5.778782416143482,-16.60800338757558,8.0,4.0,-1.1549350735009705
01-22,-27.069860344698366,4.75282417059136,5.938807896978952,3.5909199049331986,-5.404213723988361,6.204264829392372,1.695415270019117,7.118643242676644,0.9486157247254339,-1.48605117668178,5.608326012197358,-16.85809997404338,8.0,4.0,-1.2467006806581211
01-23,-37.67556079600196,3.4918613564602787,4.810328206069659,2.3006323933226556,-5.876712361174002,6.33957819089668,3.2448500695151425,11.103519846438413,0.5358215142569438,-1.9387962284973879,7.688828372099123,-16.950725460305996,8.0,4.0,-1.9105312414100382
01-24,-32.05301962397225,3.8866993480079026,6.214121534027873,2.2639458671095016,-6.297526003309034,9.263512212787466,1.7890218022355175,11.860309384228843,4.708414015803851,-3.4081080792451353,7.535053460970685,-22.562100037452055,8.0,4.0,-1.3999730099005694
01-25,-31.69491008176642,2.939771913474689,5.076662198495956,1.2479346711524486,-6.4516168999844785,8.437049165224453,1.9243127517800445,10.245297317521187,5.382383133432202,-4.512260991896936,5.772028905015146,-21.20256558233751,8.0,4.0,-1.9029927916574347
01-26,-18.84368340835338,5.855572209673268,3.702444092266714,1.8995043210765759,-1.9368019026046155,8.542186894490618,-0.06588885513238392,9.483767172478325,4.66161496918176,-5.259965003954525,5.409103761508004,-26.22933421806424,7.0,5.0,-1.0651233306194898
01-27,-18.900034182747742,6.577711760160594,4.690522134774701,4.174741533129007,-1.6112652347016185,7.250261993670421,-0.34639580045151597,9.268670161010972,0.8840995428070701,-1.6319576234964854,6.828397030664382,-20.572656439427973,7.0,5.0,-0.28232542705068236
01-28,-24.308720866278204,7.3626411071173665,3.724689074583093,3.5571796289484094,-0.6180829481989661,7.494555821160902,1.5276611131123548,9.96284959231821,0.05876928273674739,-2.6704453329900564,6.702658097491911,-27.905534926214308,8.0,4.0,-1.2593150296843783
01-29,-19.659681709818937,7.28393196976643,3.6800013950892856,3.888704758401677,0.3250471311331796,7.104106936090815,-0.2353735035639079,7.569721735803945,0.6330361549932151,-3.0154217361956897,6.152877356919559,-27.276473770524305,8.0,4.0,-1.1291269401587276
01-30,-9.435065999039105,7.231924781023556,4.05282070470455,5.132007701393061,0.9115379493900313,6.358708036107025,2.9690867026726386,8.970579570238646,-0.2948937505788793,-2.8772579383272485,5.6408862624711915,-26.956789791261276,8.0,4.0,0.14196201906618278
01-31,-13.606065692323627,7.7066174145402,2.9032306265683987,4.3765995524816095,2.5791471488696884,6.438870666440575,1.834060755300351,8.735919145024116,3.8735089810013714,-3.207582068880354,5.290576926951491,-33.30366440916366,9.0,3.0,-0.5315650794324863
02-01,-13.81300316165921,7.920790501592554,-0.572971833955019,3.0102473160094716,1.1741532863042428,9.101658211126965,2.759912227477465,8.753346326220129,3.344870555853878,-2.2426997657529313,3.564919448605128,-28.824708772434604,8.0,4.0,-0.4852904717176611
02-02,-10.36208516712798,9.044010259740928,0.43264164138329353,4.141756234818885,1.6702056329660016,9.741789621672215,1.5532864844765688,12.728636729326315,3.3256430738422575,-1.163809805093936,3.4263352584674847,-47.22154699538663,9.0,3.0,-1.05692808590955
02-03,-5.744493355569539,10.15174853794059,-0.09354751425984031,2.5843637171283818,1.5308317283308643,10.653672904327257,1.1931743165156734,10.786980521678544,2.586373512969445,2.5667771168615725,4.2271247778398635,-46.865156504621915,9.0,3.0,-0.5351791867382586
02-04,-4.229778425952807,12.397574801928053,1.5029889088425694,2.8956076402532207,1.3700523480360371,9.182208358620002,0.9536676742845217,10.2335649560535,4.3736240676188105,1.0952109613144823,4.183948896128431,-68.033463872849,10.0,2.0,-2.006232807143514
02-05,-7.630746044200512,9.885693423482929,1.5664335249521593,3.7899659811061572,1.872207284938554,9.192458549276678,-0.3178870098760317,15.109687887332102,5.351900674634471,1.6425078104964252,3.4380053862892037,-71.22874896550137,9.0,3.0,-2.2773767914224354
02-06,-11.452993255049822,11.165870885452742,2.7890710126419296,3.2471021418593176,1.9005693072708603,8.321379989970294,-2.07366250138221,17.676767429085338,4.364476494521155,-0.008777653794056406,4.25916010981867,-70.5430660080751,8.0,4.0,-2.529508503973407
02-07,-13.108612379929351,11.912038258825001,2.270405361726334,3.0486538827167387,2.1558707925383533,6.264769365768315,0.9779054650526697,17.669205594282122,4.067144233831671,-0.15796429135273402,5.387115355660798,-60.14890872549247,9.0,3.0,-1.6385314238643793
02-08,-6.10810357171136,12.672221589487537,1.7557719118668373,2.687485442638607,-1.1581409239097966,5.7349337440715145,-0.1722451358270152,18.381277754146225,3.9808168113946345,3.2031540098612603,6.906959180977991,-51.64324829219088,8.0,4.0,-0.3132597899328709
02-09,-7.297070669064953,9.582760856670355,2.0276403945160846,2.241343343989416,-2.4858460340278734,4.803071122412981,-0.5898273975140682,17.16132474743954,3.952041003915631,-0.9523000729833749,1.8464721863560067,-66.74482674434267,7.0,5.0,-3.037934771886077
02-10,-1.382858749356522,8.681033591140714,0.8608995771856556,2.291305157482244,-4.077979489698409,4.635247922298306,-2.598219277558173,16.842680823741254,3.8998295965806564,-4.110339662055742,2.185686896368518,-47.33698341655154,7.0,5.0,-1.6758080858685862
02-11,-1.3015171592587642,7.947425857688881,0.3382984333845533,2.744260173999073,-3.961513789431227,2.7572080767964,-2.589226976984032,18.727239967804287,2.871185403841499,-1.8315045529960727,3.359172544431225,-42.28211206495606,7.0,5.0,-1.1017570071400202
02-12,-0.1084520056173884,6.693463700170113,1.0621696687218716,4.5383100983720865,-1.7979735771583036,2.442103390494706,-4.751412274757789,15.906176202524424,2.8992507658237967,-1.8497003190833436,2.2438237460187906,-42.76047359393622,7.0,5.0,-1.290226183202271
02-13,6.4582796670816744,7.037992352591425,0.9957478373209223,4.8673450351917324,-3.7824586527663606,1.6700844878998058,-6.990511074274599,14.070669693495105,3.9630405008406226,-2.367968733595554,1.9894643940571122,-40.54369428443426,8.0,4.0,-1.0526673980493644
02-14,6.576082117165338,6.599762509578799,2.318135069007309,4.4946214297282685,-3.7003931380981037,0.33240378139088006,-5.781305616029435,14.424130310056762,3.970877452530875,-3.9406629330743073,2.5617729359708767,-33.856950385902344,8.0,4.0,-0.5001272056395903
02-15,6.753452497705995,7.009848098242109,7.901596796560958,5.1065587679115145,-4.474592491856813,2.21162479676006,-5.06035918409625,15.329652704191519,4.037058502966606,-3.824500615887289,2.33619815774572,-40.38823744829963,8.0,4.0,-0.2551416181712914
02-16,6.829269250832791,7.009848098242109,7.53674901900684,3.5661503449568235,-1.3214903988338402,3.5511269190316432,-4.571257038348368,16.336012984833857,3.7817907979126457,-5.628810014272247,3.6679359341770015,-38.88501440190323,8.0,4.0,0.15602595796966945
02-17,12.895870268983026,6.419381502744607,6.754928944354412,3.7307969523882414,-1.155339154329202,5.110864057644452,-4.571257038348368,15.102771488318947,2.7178566179938293,-3.4050207022529615,4.806511823757916,-42.73923924531415,8.0,4.0,0.47234379299506263
02-18,13.630607807767856,5.965181316220081,5.325070626590375,3.9979141013027326,-1.5109613550544467,5.409103957252479,-4.7441751022208445,15.379802368003137,1.9794459410068042,-6.595233002733276,4.823174553457675,-49.36788426927513,8.0,4.0,-0.4756627548068799
02-19,15.302763437360086,4.464834733202742,8.454259773427019,5.845617390083178,-2.252867288775821,5.1708391119764965,-4.416071211473062,14.225491895453276,1.9794459410068042,-4.737703037070977,5.105601658784025,-49.60570478931927,8.0,4.0,-0.03862436544545922
02-20,22.306780590493393,6.6616545942492955,9.77303400761769,3.8775073919726615,0.9116988417254757,4.3141005494355325,-5.426353163798942,14.490318540541555,1.6894117588802493,-4.161025879823299,4.224126278529506,-49.40543437507819,9.0,3.0,0.7713182612287438
02-21,30.251348819896556,7.247457571467432,9.641931564765468,3.8775073919726615,1.9891496122414303,3.799969694252112,-5.774221109392727,13.789108551613294,1.9047619047619049,-4.359600858508316,3.8837532785155235,-47.29344570490055,9.0,3.0,1.5798100597237326
02-22,29.794444087800954,8.180471751658255,9.698170053270424,4.055181062962534,1.1799750890855567,4.672325288750727,-5.472305862840227,13.20111194847533,2.0857166108630816,-4.576224977820767,3.0956500509510994,-43.31716549259869,9.0,3.0,1.8831124675465236
02-23,27.383176453905488,8.89547287883025,10.227155104057625,3.6371272427194423,1.0855482594404493,2.3566596981151253,-5.1534068080118605,15.355102429793291,2.2857157389322915,-5.1849207580066965,2.296450426820693,-33.060141172425645,9.0,3.0,2.510328291180871
02-24,24.112149249498408,7.93179943095683,10.849503491905926,2.3956559240478814,0.8748527373014974,2.0675302480722255,-4.705257665899963,14.63240654706597,1.8618781675450324,-7.441264681475741,1.8181833945029813,-26.54517650377558,9.0,3.0,2.3210216949787887
02-25,25.28037356938823,9.473678078672888,8.993441674918543,3.479072013988185,1.7715725238257045,2.514179624694131,-4.218809127553311,13.445752541599859,3.39463083443629,-7.2256163897852845,1.715084971481232,-20.35349836523735,9.0,3.0,3.1891551625357604
02-26,26.542053517529745,9.406741293892743,7.300188118117836,1.389917834051709,1.47037793886923,1.3081902635063312,-4.293986311153255,11.25576067221994,3.157201945722748,-6.496917478516923,2.9852047516320033,-19.76067704869646,9.0,3.0,2.8553379580979708
02-27,27.54840158663648,9.172974969520757,6.909632419734686,-0.9230167632940847,0.0,1.0220246180429389,-3.0831254523207816,13.68148332401178,3.4037343894498835,-5.517934522926875,2.3759820023315803,-13.7226923949281,7.0,5.0,3.405622014688189
02-28,33.1999108292271,9.449845230382477,5.738059684550258,1.7029834935056938,0.0,-4.1377133778432205,-3.5729834197133714,13.565545741833942,3.422588475369858,-2.891657849018959,2.550043747837425,-11.89073235732114,7.0,5.0,3.9279908499008385
02-29,0.0,0.0,0.0,3.4800093967282697,0.0,0.0,0.0,14.529841780925178,0.0,0.0,0.0,-8.37707064221179,2.0,1.0,0.802731711286805
03-01,33.43673785828716,10.024521245326689,4.909503570072218,1.9885733395515508,2.0347380563467254,-4.9195984847475485,-3.5323841368140303,12.825003147467449,2.6117261048739056,-1.6745990588365396,1.536844706974135,-12.414599931182355,8.0,4.0,3.9022055347766127
03-02,31.928392956165546,9.941020644146533,4.616879442745777,4.4717564279400825,0.4844063575114679,-4.507849018909051,-4.272675007682609,13.04385983367346,3.469734480375376,-0.19083886107367712,3.667818269667817,-13.492829528543894,8.0,4.0,4.0966396663347355
03-03,32.943293974022794,9.45188218617106,2.7419517409150966,4.283324719843712,-3.15732944263631,-4.524478244590952,-3.1988334918831933,12.194694822557988,2.8555112028503986,-2.509092851118621,4.387396373997148,-17.98145957175541,7.0,5.0,3.1239051181978095
03-04,30.423039982475043,9.495039686350793,4.2382941501622415,5.448915063109407,-0.7729418525042941,-6.184694073943738,-3.550839052106062,10.496903369332736,3.08370166363472,-0.8857524585293,5.945946642567059,-22.016269200347566,7.0,5.0,2.9767786600167536
03-05,35.9135904088001,9.235626174347376,5.536972259390187,6.833428758954866,-2.8852020395147338,-5.839916500357493,-3.5992399005610514,10.385778834862121,3.9757116098985232,0.2829852225350109,6.461149854129716,-16.014915948615755,8.0,4.0,4.190497394489072
03-06,36.196053596040855,8.111631185644933,4.234602005064001,8.185231500636107,-2.3036277887916334,-6.158171476966294,-2.302095356429162,10.695461989993914,3.3797985370704624,-1.6609216475555597,6.630066193373587,-14.11697998532652,7.0,5.0,4.240920729396223
03-07,34.86420975123862,9.472931624319884,6.033930409502061,8.043056840421936,-2.3187367566036334,-4.404321988389864,-2.5065057413542,11.308451274190656,4.019048781622024,-1.6167454388098297,7.229734018303459,-4.393962287847048,7.0,5.0,5.477590873882839
03-08,31.697149946754088,9.742940020241027,4.627439968689502,5.615922322273913,2.3533577690944254,-0.42113521990181774,-2.0247719424851938,12.544152319182778,-1.74285888671875,-1.9524684484539128,6.610445673888271,-6.926460256506781,7.0,5.0,5.010309438838129
03-09,32.40146559901762,10.724922382895194,5.464887665069415,8.148518175181776,2.6908663444708094,-1.9131016047970393,-2.3078573723606177,11.880762429382747,1.9714282807849703,-7.3057298256303405,7.141663202907152,-10.680605951274341,8.0,4.0,4.8514349438039455
03-10,25.839389136144185,9.632568175065883,7.182738335029209,8.095571629499009,4.019508289651884,-2.0065198763288983,-0.5609559658564239,11.337982310084966,4.0236968112976275,-6.971613985863427,5.0665258616891755,-13.223052850519517,8.0,4.0,4.369653155824472
03-11,25.340293828602405,10.214210762436208,7.446584353027108,7.840813415346981,4.848069146760779,-0.6163991015115073,0.5388698116577546,4.761472790027178,3.0772154626233004,-6.961794656746973,5.37323545931298,-7.660710058018805,9.0,3.0,4.516821767793117
03-12,22.09619163764393,8.669033932940371,7.185125840672379,8.735297707950368,4.028139405429236,-0.463578017301119,-1.4575985603898143,7.465327675039971,4.934729863565872,-10.106838215643469,4.706788316613072,0.18874005720140052,9.0,3.0,4.6651133036435155
03-13,24.050634244988895,9.513117859752926,5.983093170315964,9.465297862788066,2.3865302504081236,0.70809952523635,-0.8987067183525498,6.98046244837032,7.3452440101645395,-7.591771088172493,4.552467066512177,-4.054359185198823,9.0,3.0,4.870009120567791
03-14,27.540696678192433,8.809393735007118,6.523363630075127,10.070075883803522,1.8968134094637965,-0.035991633435740016,-3.031661970568323,7.758700969803188,7.919985277092101,-6.637007642195263,5.967077435607687,11.127884335283008,9.0,3.0,6.492444175677388
03-15,25.18737329105371,6.482020417702697,7.26495249275391,10.10847553459594,3.8186648087317954,-1.544207198830865,-4.179305172041905,7.283826783908632,5.829111373757107,-5.932519177623681,4.760668275005303,14.145835240681967,9.0,3.0,6.10207472247455
03-16,23.82054267330692,7.551485866087973,8.63248072946142,11.053036255358052,2.64264594343393,-2.3450177388302906,-4.221782730625218,5.646515066855944,6.209269009694525,-6.713095229155977,5.82293587345139,9.913651663135482,9.0,3.0,5.667722281847847
03-17,23.005435079116506,5.749423267078811,6.880336449783463,10.600041822308908,4.026661676579898,-1.533682235164346,-2.291036764568003,3.1772691439635388,6.110165330054445,-4.862461739968304,5.260015054226605,13.829781901003576,9.0,3.0,5.829329082034591
03-18,20.69355728569584,7.408467449698023,7.095815114175908,10.243252563774583,4.104929530506534,-2.2415100227912355,-3.3622907153389328,3.4317595392297497,3.8874697609521127,-6.932380201821572,5.574470682347062,23.946599647669636,9.0,3.0,6.1541783861748085
03-19,20.444244506191676,8.857380331004801,6.453998868203017,11.752617454648973,2.9820949876453198,-0.7953768121881027,-1.800423114266882,1.3588187410939139,3.553809082938545,-5.892258847407683,3.9577376344608917,20.150187993602053,9.0,3.0,5.918569235493877
03-20,21.203178920216363,6.948982803451627,5.917348196482538,12.370558666120802,2.8856766731887835,-0.5784580127164459,-3.3850875982324156,2.1125481115156206,3.5626212500135903,-7.70031166412534,4.027021284074593,12.231641953521425,9.0,3.0,4.966310048625929
03-21,15.94729755738924,8.136918520890694,3.843649266207126,12.174645726770466,5.447661038814617,-1.2873732015140125,-0.837225383421664,0.5570781829694634,4.322338574373546,-7.794908651153216,2.4508545952516054,17.613636363636363,9.0,3.0,5.047881049184519
03-22,20.43010752688172,4.366872806284432,2.544532655480039,13.275494946193527,8.425373698011002,1.00931757138984,-0.6221365613824004,-1.151118926379256,4.532964364997523,-5.2975106637227,8.624528529106234,16.50351437160695,9.0,3.0,6.0534950265389105
03-23,19.1610233123257,2.104636346900751,2.334329709701494,12.639921462782716,12.076437836266017,1.3681110236007643,-2.1888215563895854,-0.506495137955814,4.194134001515539,-4.306406547148692,8.985802891801955,17.865636391530483,9.0,3.0,6.144025811244277
03-24,20.335293034028957,3.0235673315822575,1.8918011904185135,9.709467857122744,11.77516853190355,1.156184832824655,-1.549201708682006,-0.3315228128670271,5.551004193285772,-5.197367199239986,7.937056741136517,7.60135109011844,9.0,3.0,5.158566923469365
03-25,19.703895442911033,4.1203479012889375,0.8865197709456855,10.748360804268064,12.615847589774601,2.9536128679328573,-0.18464474509095455,-0.7552032427666553,6.096235539619591,-5.38555811129779,6.465142045316298,3.4797340778064187,9.0,3.0,5.062024161725675
03-26,15.719575816962305,-2.0386095672960907,1.1173826120704118,10.421555019709555,13.600622783632375,4.191406662379929,0.3377617607261108,-1.0063742884819746,4.2515914390636675,-4.921259828441608,4.9640380629313325,-1.0810800129287303,8.0,4.0,3.796384205027273
03-27,15.847245318359738,-3.0882602170077726,2.0815091490884834,9.628095471564842,14.000258673555448,4.634198681344006,0.8670121010587596,-1.8242731198201345,3.736670223749595,-4.539935050727468,3.455529668489348,5.931828877984232,9.0,3.0,4.227489981469923
03-28,17.553671901923355,1.9824031513756355,2.614950487905538,10.534267892132446,13.665074791573556,2.786835772733909,1.9908306037277421,-0.6162035760689484,2.67037301267003,-2.7276955494653574,2.017186011295278,6.588394180061169,10.0,2.0,4.9216740566553625
03-29,15.31925090351548,1.0085776996347697,-0.6667390691900907,9.675287675841911,12.837834421714986,1.6071551631546708,1.249283559149928,-2.93241629079599,1.9286062684125023,-4.2503459062615905,0.008854099113301006,4.976775150550182,9.0,3.0,3.3968436395700046
03-30,15.609979192480312,2.3506746780573695,-6.600736284490692,9.391847148300126,12.956595463606607,2.9838006313485503,0.0,-4.1705487183938015,2.4292954605986155,-2.026200653578337,-1.7640800023328784,1.9513855278660965,7.0,5.0,2.7593343702884976
03-31,11.912145945274528,3.311646782942391,-5.8006460102436685,7.139463791165669,12.433915682371403,2.159504933968468,-0.062111532138152674,-3.7888659134243268,2.214775054620175,-7.796476956349439,-2.6696640186095504,0.759733387794508,7.0,5.0,1.6511184289476672
04-01,5.777030804978557,1.6853923712821646,-6.008248182650309,5.27540951950428,14.444228205552367,-0.040700972755577734,0.41703070455667707,-5.228395998020871,1.9044070791833974,-5.137419493847449,-2.3843704915037027,5.163815983418927,7.0,5.0,1.3223482941415383
04-02,-0.3819523746559123,-0.20964269572856872,-9.06521592902345,4.403992940458093,14.558700454769854,-0.3561238079652971,0.8074499177961613,-5.145272399423885,2.6856838634212656,-5.076194718915729,-2.0546680116138005,4.166660251478399,5.0,7.0,0.36111812421642764
04-03,-5.069562682420307,-2.811494751904617,-8.880608071850968,5.965601665674908,15.178628372668248,-0.4120866751396461,2.001749025334858,-3.725960283698336,2.169259614201683,-6.454106575049064,-2.358405692397881,6.444109383347563,5.0,7.0,0.17059361073053672
04-04,-4.905212458294845,-1.2099143816273294,-10.37520005124665,7.695333494894043,14.424494886009132,-1.608174251399735,3.2283106715836363,-4.840669284896645,0.673119730063524,-7.043479145437047,-2.7336050490042525,0.33364118918142704,5.0,7.0,-0.5301128875145616
04-05,-0.43103134940238597,-1.9655660056578188,-8.161199476459789,5.366092466312193,15.31340845830319,1.1721914818685113,2.905638794393741,-4.737288226752003,0.45506573915181936,-7.893718037628321,-1.8065895754578347,5.6831805197839715,6.0,6.0,0.49168206570460643
04-06,0.8732633026890224,-5.034179355256919,-8.228560485389814,4.653513955617685,17.243767326324623,1.5149898304572882,2.5088065283917156,-5.348249341149895,0.1990962335832946,-4.769653819432165,-2.353050873940105,7.069302597071399,7.0,5.0,0.6940871582471774
04-07,5.934067610855941,-4.801112971701278,-7.846876650301896,3.39278151027608,16.305871010087923,1.33884975445896,1.7603629529680163,-3.966539378619194,-0.6262488527675115,-4.440213242128551,-6.181551693114517,5.104700109310399,6.0,6.0,0.49784084661036415
04-08,5.780222127725774,-5.546923028229471,-7.207911852825866,5.3144473245651245,17.295838096704642,2.3685135732180815,1.2230759981433363,-5.859525252906052,0.8807293280621674,-4.36066065341846,-4.954129840255877,2.7502859135335656,7.0,5.0,0.6403301445264137
04-09,1.1648324819711695,-11.565949923733928,-7.825098410954458,5.047352436437009,15.804512010763572,0.7506191313502608,0.25771910923275076,-5.15017537694604,0.5919914153896404,-6.583046006942126,-5.346603284367035,-1.2292950634819995,6.0,6.0,-1.1735951234400988
04-10,0.8131844656808193,-9.889936032472587,-9.554579309251956,8.640879414849664,14.528720372114934,3.65673861238272,-0.24898761300622352,-4.932819679551094,0.8528547879493164,-7.448156551522554,-5.918139721863285,2.406498187313349,6.0,6.0,-0.5911452556147413
04-11,-2.4983018835230393,-11.961645955416449,-10.485281164007848,6.2103193915739565,12.65630089188613,4.742096125960813,-0.157047776059589,-3.6377116659571205,0.8228958880888723,-6.396650524181973,-5.567840246334913,1.4828016479300261,5.0,7.0,-1.2325054391700943
04-12,-1.1203226261117263,-10.720022562014899,-7.362876640739115,3.938493155267697,13.519519288590814,3.967409372432084,-0.1745250195137267,-4.265142872598043,1.757999663262164,-7.1366000354320045,-6.563417124684684,2.5992929840586267,5.0,7.0,-0.9633493681235676
04-13,-0.24433720398281059,-12.075656558356235,-5.656698395092726,5.039684203626704,16.205532366463483,5.179524801440462,-1.2658764563050928,-5.456059526181635,2.3564655086310338,-7.097654542409028,-9.033890239138879,6.319999694824219,5.0,7.0,-0.47741386220670873
04-14,-0.7304261237008338,-12.366636680244012,-5.9086177997536184,7.005753969445226,16.18950398087725,4.825357255303313,0.5149658195532653,-5.714551752996392,1.4494137052288403,-9.043899163967225,-8.0928085574971,9.340496044082471,6.0,6.0,-0.2109541086390679
04-15,-1.438021533142527,-12.722280421809584,-6.091835089063766,6.086449661487212,16.455856536155046,5.852684754408552,0.8160928350216056,-6.490028433440612,1.4217605653301941,-8.094772721151907,-8.334107437854058,13.55153426865413,6.0,6.0,0.08444441538285696
04-16,-5.249941029362197,-11.800845424719014,-4.925374271736614,7.802090454131913,14.353916088901547,4.304616787609253,1.0430301981385128,-7.47446915493082,1.7251011851671174,-10.619552286534201,-10.468372073853507,13.14117943210618,6.0,6.0,-0.6807183412568194
04-17,-2.7217073231718243,-7.850669684823589,-4.08883395570537,3.83337152009601,15.722476923874865,0.39450351367431336,1.3967481557594192,-6.583795236040192,1.0236701098058136,-11.485755191587463,-9.52603009460862,9.090025220709066,6.0,6.0,-0.8996663368347978
04-18,2.878350705774733,-9.567656130195292,-3.032697332533064,3.706239816500592,10.471044919114822,2.218908812869248,0.5286411451324903,-7.4944276299712485,1.5231315694674579,-11.594204969779897,-11.830565655039896,10.396380333616237,7.0,5.0,-0.9830712012536513
04-19,6.190274179289126,-12.248154653948871,-7.353615832558555,1.2321553979158768,9.4171847294574,2.514759837741121,0.5894450992057808,-7.936654406738272,1.2786767605745948,-8.094251266657755,-9.324878962328336,11.869985437208149,7.0,5.0,-0.9887561400699787
04-20,5.347364418782021,-8.774911185860997,-8.967264393424914,2.0785010393796077,6.549051180666307,2.8616658392345222,0.2497293862951807,-7.492124547494887,-0.009404039275183584,-7.877531432697822,-12.030574442731593,15.27157615476375,6.0,6.0,-1.066160168530334
04-21,2.1524643886023687,-8.898492519881742,-9.082523120555969,-2.0715471611998577,7.470669320283596,2.5679198409793944,1.2783174795365893,-2.111500933890725,2.9497994802842213,-6.7346289317912715,-8.777137865666578,21.194482543217124,6.0,6.0,-0.005181456673570987
04-22,1.1659117956430682,-8.527724944842156,-8.425208646281359,-3.313905701554323,6.518621168261242,3.6789953779776283,1.5609424370340268,-4.611835151484356,2.1825720636469095,-6.296980307551806,-4.95031673495512,19.349928860404965,6.0,6.0,-0.1390833153084398
04-23,2.5784702926591367,-11.429014482847878,-10.008242045752112,-2.0406145227327386,3.460232183032215,3.708426143411809,1.7870344415787145,-4.578805971037636,0.3229960060443599,-6.2243875643102,-4.690702575910452,18.94699463134647,6.0,6.0,-0.6806344553765259
04-24,-1.0222201877170138,-14.452177007383312,-11.09393816924465,-0.18662454175670265,3.340229070031827,4.586483898519561,2.3866794649199052,-4.143540153286458,0.341386904008067,-1.7704188708628263,-3.818425432836575,16.54068073119975,5.0,7.0,-0.7743236912007022
04-25,2.2424558519097806,-16.853933717429374,-9.045284748361324,-2.318044069290267,2.0534713769278854,5.006152337925995,3.402877405913814,-4.481768564075979,-2.7538259274206527,-3.8006320952983397,-2.8304408975210342,15.752520780141275,5.0,7.0,-1.135537688881518
04-26,0.5870447750189799,-13.825849034141156,-11.27294803609711,-3.349379966487901,4.191188879231031,6.5680924882348055,3.1784304278842628,-2.343403492591794,-2.4385766527790698,-3.6274383065489824,-4.265864046334132,15.343916483024092,5.0,7.0,-0.937898873465581
04-27,3.2732901218867827,-11.38749677667016,-10.83481569749111,-3.0025363385422157,5.099402265593351,6.650089878143197,3.6641194750204593,-1.838666941540313,-3.189617515137646,-4.733732715265273,-2.737084660981211,13.83952470144909,5.0,7.0,-0.43312701696125416
04-28,4.441985240957355,-12.938133324624838,-11.474248421045024,-1.5046272704494659,4.699552602070041,6.963071729134403,4.79558829645376,-1.6403783189586099,-1.7790939598976054,-1.6610616439685637,-2.377831309744082,16.095013668748695,5.0,7.0,0.3016531073896724
04-29,2.497239929536414,-15.070260118483016,-11.036823594819225,-3.216946654324162,3.2126331929605048,6.128407455966581,4.187513588666001,0.03622287006864106,0.42754591048699936,-1.876259927370617,-0.22250931932023235,12.06896877440818,7.0,5.0,-0.2386889910186607
04-30,2.651935387711499,-11.133927804383866,-11.912967031691132,-1.0465639192715708,2.524013008029489,5.82685341959395,4.450580950019493,-1.8308312331662164,0.6173963219030955,-2.2698720195397257,-0.43593652922736303,16.70029249044104,6.0,6.0,0.3450810867015576
05-01,3.146315250101871,-10.033961288182871,-12.273379490686915,-5.033850524063248,3.8092084241456217,6.303505023896765,4.034361391423645,-3.296494885209815,1.891189940058274,-3.504351413594576,1.2992535010013175,11.61108662320968,7.0,5.0,-0.17059312065835433
05-02,-3.0356722788838795,-11.253315309528718,-10.093564039085328,-5.181040711963018,1.6363042534873589,4.126146517202789,3.524116278972401,-3.884942063484699,1.820626707889574,-2.3330067391259854,0.19659435143067147,14.562625034278964,6.0,6.0,-0.8262606665674889
05-03,-5.72987831740103,-8.691669394774273,-9.6820258845173,-5.190847901126764,1.9256813363109935,4.102415776931716,2.525340819388907,-2.701179121391722,2.0627830060608057,-1.6069661022983006,-0.6158528515570735,15.862398838439445,5.0,7.0,-0.644983316327883
05-04,-7.963780658182753,-2.9005113895713737,-7.645585418143876,-3.842370234505675,1.3456460375604467,3.511971595293524,3.004310870992726,-1.8476773030956728,1.4439467357413118,-2.347058929294167,0.22308205012658144,17.115311129775964,6.0,6.0,0.008107040558086531
05-05,-5.851060779576248,-1.3976559849411547,-7.46694837670257,-2.6502805381279986,2.786500599902745,3.268972049161755,5.039853729065267,-1.8383033520747816,0.682718413864486,-0.787627493535336,-1.18332951078076,15.829127175317703,5.0,7.0,0.5359971609644253
05-06,-6.221088164408153,2.690112550193309,-7.4664115250570875,-2.0232895316667205,3.072116364804426,3.9884057484391575,4.838430386269574,-1.2621526605052924,2.4559223344683625,-1.152380080450149,-1.40390705098289,15.323733454701365,6.0,6.0,1.0699576521504919
05-07,-1.1332050063576815,3.5822288624499787,-7.705013308904868,-0.6780949506816194,0.6162009207531708,2.3822343592350124,3.61275083915494,0.6840431333721682,2.412024381652374,-1.9975049322172416,1.0375277015747186,13.836179799950846,8.0,4.0,1.3874476499984834
05-08,-4.145325223385002,-0.6450534835863447,-6.847709766151869,-0.44323011754547137,-0.6291763846556975,3.5905484994761845,2.788384772761784,0.9038883454065363,2.1213201841633107,-1.464714594319243,1.41795518512528,11.913421787160493,6.0,6.0,0.7133591003708301
05-09,-1.6814601257228727,-0.4190971254733187,-4.0465009535220915,0.09430259643315116,0.16215865795499365,3.2477148232805044,3.0988934711506664,0.5737508154683663,2.5569225002273033,-1.8166289454034468,2.403602213962371,12.822987750893947,8.0,4.0,1.4163871399374646
05-10,-4.512724615941222,-2.364960940969489,-4.6045144904152835,0.29234020739088595,-2.698562768087455,2.5223656828302268,3.8123020421623965,-0.8533585188514773,2.5569225002273033,-0.9225805843010366,2.5609901164272477,12.780939745370883,6.0,6.0,0.7140965313202483
05-11,-4.890394305174139,-2.0430136132543577,-2.564394865262576,-2.704554112461254,-2.894568834152635,2.426966567295777,3.909882461918976,0.3617469608386648,2.9092891324762187,3.7104531479846345,4.152666242351296,12.797766380572337,7.0,5.0,1.2643204302610787
05-12,-1.6755815349126912,-3.9016912059330444,-2.2452715621920283,1.0269696417618943,-4.451877804848109,1.7829853415517203,4.8529273670265685,0.2968182006036409,3.120192599949575,2.3240343301048445,4.8331920035331475,13.98704395775974,8.0,4.0,1.6624784445337717
05-13,2.51338561874262,-2.580645690558079,-1.677966956243454,-1.7665063487433736,-3.6393186877998946,3.296329756407146,4.467241008670995,4.064021059927433,2.439462360677213,2.0359617326818698,4.31753400533513,17.314487500201245,8.0,4.0,2.5653321132749043
05-14,1.3032379738942264,-3.1373723790049866,-1.6750791912912164,-0.27227384156202483,-5.2416090997273495,3.8685399397887155,3.0261928099376014,-5.2857005039796805,2.5627110139969305,2.702447851146428,3.436337975115204,15.61640799139408,7.0,5.0,1.408653378308994
05-15,3.74087450716313,-5.035745743006957,-1.9089278744090752,1.2562843154089507,-5.013423638055788,4.812440103264561,1.6052313775606126,-9.595704718241976,2.271693868553299,1.9788809998825576,3.107414849669306,15.422787770607997,8.0,4.0,1.0534838181997184
05-16,-1.1705350925009372,-5.135957049262185,-0.18087685254957273,1.671823831476206,-4.395975202522022,3.5640246596129357,2.1566017729598115,-7.5576832617634855,3.295215668291207,1.5317292369923214,2.259154018808211,10.074408632285738,7.0,5.0,0.5093275301523524
05-17,-0.5015987634327613,-8.393447125544313,1.9295504066414246,4.474299123128382,-6.582565684055113,3.9255131809986987,-0.42180637223627715,-4.4101906202290975,5.032858875708735,0.6659660776115052,3.5550977377518564,11.63171414595704,7.0,5.0,0.9087825818583402
05-18,-0.4100234599528924,-8.640949212367008,0.06730711129073368,5.739132793629214,-7.274088948910102,6.714252210400677,-0.6494029892435648,-3.8052508607355344,5.113892428902622,0.7283430415910112,7.685717840003417,13.398076005632786,7.0,5.0,1.5555838300201135
05-19,-1.7312034057337777,-6.538653820421544,0.23558344840760992,6.200529269461061,-5.807056706692033,6.1380864151847385,-0.23971541401037913,-3.0734721353647863,2.6630169888836277,-1.2532491856671535,9.179802446075398,12.106351719268211,6.0,6.0,1.4900016349492475
05-20,-3.644643322342255,-1.9036608653926115,1.222791502528553,6.200529269461061,-5.807056706692033,6.305658398189519,0.22228458864981265,-3.629623668885029,2.9457394546148445,-1.2532491856671535,9.179802446075398,9.494625614394332,7.0,5.0,1.6110997937445364
05-21,-0.2961212958986867,-3.7742075567883773,4.548956065393801,4.928363116634719,-6.613898906122523,5.597051808505485,0.0915301218761305,-2.189149059906972,3.2193533512199015,-2.288662317039979,7.697515979153255,10.343203350200595,7.0,5.0,1.7719945547689457
05-22,-1.9415310930074825,-0.7862400462487645,5.6505115930666125,5.35850044275659,-5.681514030501407,5.989655496637944,1.6351920852333692,-1.8274050166993376,3.788086446329993,-0.8235258214613971,8.137855262066383,9.562762872460267,7.0,5.0,2.421862349219398
05-23,-6.809012640539704,-1.584941537575567,5.279259279087676,3.8901547563944017,-5.218673654239406,4.536506677066269,2.199985308594551,-3.6824147326913645,3.5959553179974653,-0.6960775337967218,9.543565917996636,8.315760264235724,7.0,5.0,1.61417228521083
05-24,-4.649000415431345,-1.6017129854849383,7.112746383212647,0.6483603384663574,-4.839899505586253,5.728972371108019,1.5117270954271556,-4.651841175820324,3.3791090110745605,-0.49019607843137253,9.51461341689361,8.991624954841928,7.0,5.0,1.7212086175225039
05-25,-8.16915332324574,1.3477064820579905,5.5993948606202455,2.18977875189353,-3.2213644673233963,4.923701662928219,1.477487384246194,-5.195686521022808,3.406213076139744,-0.5738780092362956,8.85893271392686,7.766093258759202,8.0,4.0,1.534102155811979
05-26,-7.651843104474013,1.9185018080346585,5.848020254223512,0.44520339306789614,-2.67572030139968,4.197295844525619,-0.22988694937070311,-4.593566739307821,2.5533894684825253,1.9029117324977245,7.621580448977859,6.076830230603051,8.0,4.0,1.2843930071550522
05-27,-4.758492809633105,-3.202785243127504,5.965513045921091,-1.6735955127913074,-0.5110860908430692,4.667506431129266,-1.2997358448589922,-5.4061921390058965,4.072069047807573,2.7713599924587045,7.271002352648825,3.8696371741760585,6.0,6.0,0.980433366990137
05-28,-5.42802600269893,0.280156117005107,3.712555032969483,-2.8979822813398632,-0.8267166113986992,3.6425787014860544,-1.600358277990991,-1.2791578388405214,4.054784523232633,3.5877881934540543,6.845161836237396,3.5972591219525056,7.0,5.0,1.1406702095056858
05-29,-5.604370876621207,3.2188204002586582,1.7392264907598283,-4.183189270021674,-0.6793212400612268,3.2816894831395595,-1.6024505637041577,-1.003657901414855,4.046136626455993,2.61204731033509,7.131100507568576,3.245149983525794,7.0,5.0,1.0167650791850316
05-30,-9.775876068358595,1.9441798173443117,1.2799126827031986,-1.3679668124353994,-0.17303530125499733,2.7870190444609135,0.33507583213021525,0.938359403590503,4.792554682104458,2.236144284167922,7.079114062121963,3.4286230732019023,9.0,3.0,1.1253420583146996
05-31,-5.669041170538595,4.27062733404228,1.3677341852102751,-2.537673728873514,2.7969361533174713,2.739987973700575,1.7291679488169953,1.6351520010660383,4.899853278770609,2.727712608245482,9.78448144320784,5.494601076750444,10.0,2.0,2.4366282586429917
06-01,-4.328121008798543,3.068809408798733,3.5249618127298974,1.688858052641456,1.6420442579384549,2.7212863659909985,2.6315799716361155,1.3611015320677102,2.3962739301997695,1.7623211346285337,7.911826780413134,7.474040801007188,11.0,1.0,2.654581919937787
06-02,1.0195171834326924,-0.32549089397664155,4.181032051007418,5.389974736027665,1.1784228541836579,1.571315317134293,2.4405909343516643,1.1601390867809165,1.7615687989805933,1.500141927724036,8.435987071964616,7.00571346747792,11.0,1.0,2.9432427112574024
06-03,3.2537962031431604,0.8679441843305111,3.979645861521266,4.269069546269506,-0.1937503609229932,1.9777405113040276,1.6968717331071046,0.8837329547501543,3.9361722706416593,-0.05860853471134542,8.544760140184056,3.407716958839753,10.0,2.0,2.713757622371405
06-04,2.38611390570566,4.3498415247168385,6.211664780376043,6.107750675219371,2.10378875361297,0.9378457353355203,2.2183288991582173,1.0524333593976845,4.072236642531458,2.827059342949994,4.202042277876405,3.892060104740854,12.0,0.0,3.363430500135085
06-05,8.585345043506685,3.1059856790668037,5.196709117268465,4.99088631902189,4.379698514889673,1.282860914416632,-2.2312669946264565,1.079597687309283,4.063741887477821,3.9812646370023423,3.6532047971298143,1.1365652990704727,11.0,1.0,3.2687160751277857
06-06,10.63357609308663,2.6226887016832934,5.7597484454167995,2.2842929523405595,3.5636850160267866,1.333656385729851,-2.012522306424592,0.23989159755003564,4.595071558818985,2.6416858967908374,3.1043673163832355,-1.3586023505327849,10.0,2.0,2.7839616089058032
06-07,12.210108531727215,6.373760784014708,4.10744066213753,1.5452544127321612,3.17500114440918,2.118827190047614,-2.8867881115792473,2.053987241028406,5.061619786297701,3.4285748591188527,2.5726513984875923,-3.665784951645164,10.0,2.0,3.0078877455647124
06-08,12.175291200659126,4.120373237498106,5.484053284341263,7.3954973624550515,3.0723795407982775,1.7437122824663174,-5.396917121056644,-0.8361339445169862,5.00000033580082,2.1054590437261336,2.6550954726092133,-2.9411744336061245,9.0,3.0,2.881469688431213
06-09,10.305417817214426,4.459881278149592,4.5775001765391705,10.443565699608786,3.4182630696313026,2.37970586144183,-6.045891279042026,-0.36353860794022846,-3.0078701721846803,1.0190473284040178,2.1889676147035093,0.23280993510027687,9.0,3.0,2.4673215601354985
06-10,10.83743842364532,2.2839556901740705,6.523674736148702,7.936795409054034,3.0541069950513697,2.1444508388525008,-7.262472355884256,-0.5985832468916708,-3.544229148934127,0.45972927889838594,3.841627210823274,2.3638962951597406,9.0,3.0,2.3366991771747783
06-11,10.443348250365595,1.8484866980350165,5.7342095384757,6.079586056142687,3.297687722299368,2.239547101780513,-8.238511157734028,-0.037158304654285934,-4.507069007978903,1.9990595809293354,1.058425077180597,10.85243795976272,9.0,3.0,2.5641707928836923
06-12,13.988946029777761,5.291946415825543,5.319036195983156,3.107262446989419,3.9024731419379184,3.200036044726805,-10.408977593934635,-1.031997505683918,-2.828866363580287,5.2617130895222335,0.9398819853455018,8.301005527060166,9.0,3.0,2.920204951164139
06-13,16.324203970463977,6.055714718803083,3.17588649532791,5.191175283799086,1.1522775257798055,2.7378344362570672,-11.79661046506129,-0.8711130447421979,-4.515222196556645,5.472177703457285,1.0076162805984108,6.657019512370163,9.0,3.0,2.5492466850413873
06-14,16.720321154016332,6.875004574309745,-0.5882352941176471,5.330724571044425,3.0869993248757104,2.8007808596176758,-12.735619682839532,-0.9331751600885639,-4.449648711943794,4.868228179219282,1.3458577502159328,6.377579782817993,8.0,4.0,2.39156811226063
06-15,16.308277486672694,4.735611098575221,1.2117632697610294,3.778992738082675,0.636496719569176,2.7076215776404746,-7.95922398238703,-0.4995818898922195,-4.281030159085919,4.771377402817966,2.5521469170104973,4.954876397205736,9.0,3.0,2.409777297997525
06-16,16.981498056879417,3.341074295056744,1.04705810546875,5.107769863407442,3.1395406192718593,0.9610230586431296,-6.8435113991531,-0.8200610581709532,-4.719738166945812,4.057019684172062,2.95533225616908,5.117291312814136,9.0,3.0,2.5270247189677293
06-17,16.653814980274667,3.893074983076534,-0.23654280428559907,5.595097940352154,3.0673718396755607,0.9391959290388423,-7.460623097438619,-2.5597239877834217,-4.791098641459755,4.3192983014759285,3.3876923422260634,5.017662106489499,8.0,4.0,2.318768324303488
06-18,17.232078368056662,3.1386167426520313,-1.4608116407530014,4.275534756367139,2.4121135990388978,0.4108968194421596,-8.510636354188032,-3.5431182474557086,-5.5676965419017215,5.1147690898255345,2.308543401109879,5.425238016924112,8.0,4.0,1.7696273340931628
06-19,21.301231731466615,3.828996135553024,-1.823598035126314,1.739771697106124,3.9080055952696613,0.5918854857061648,-8.090680685855299,-3.5826885120865444,-5.708305551478706,5.103441111999007,1.4737164464894061,4.140476759608502,8.0,4.0,1.90685434822097
06-20,24.254545731978,6.060187038161239,-4.539891127085246,1.8693287883623264,6.457242865061101,-3.1306748814070704,-9.033032998364108,-4.561669993413233,-4.302796096617544,4.182998110694147,1.874092307420354,3.6971698100504033,7.0,5.0,1.9022916295700305
06-21,26.680746090875207,4.584403368134846,-6.159249763889441,5.219322151650294,8.515606462354262,-3.0142626876035536,-9.54852615194694,-3.575189937769955,-4.208644439539041,4.948510105766515,-0.34581268454303243,3.4550187924823694,6.0,6.0,2.212660108830961
06-22,26.96353580164218,7.533855170448839,-6.171343794515974,3.205125388150043,9.657555971683463,-1.8692055085583688,-10.916085182540101,-3.335565672829527,-4.105075461759392,3.5675096384614724,-2.39117403934247,3.8222494773061437,6.0,6.0,2.1634484823455256
06-23,27.315710247060927,8.154626133282106,-5.287999490388922,7.206955436928869,9.395272574718254,-3.107808987773661,-10.976644131357007,-6.604044156738022,-5.7418574962902635,5.2636291108822455,-5.353282705855278,7.137740425677304,6.0,6.0,2.283524746678879
06-24,24.759235227683533,10.962185304954597,-12.203917764791699,7.797997794209477,9.131461814128436,-2.0815523165333727,-10.676428627258648,1.3160375958392316,-5.532803961908667,4.722624273826107,-5.334292656223329,8.758737316798209,7.0,5.0,2.634940333393656
06-25,23.235861173075172,10.391457988698278,-11.65896526871822,9.137370084959796,8.231420205027964,-2.805571847844808,-10.460645378515027,5.496502774102796,-5.402321036854605,4.410693447164603,-3.02143896355967,7.961675378360835,7.0,5.0,2.9596698796580934
06-26,22.418091500703667,9.575849561290637,-19.204938618668518,7.443078235111145,7.505119258014961,-1.8552981309920515,-12.16614690917425,5.541731172947093,-7.176013597145102,3.130433106586098,-2.3657612568720996,8.34530047381112,7.0,5.0,1.7659537329677253
06-27,21.957295347094355,9.860968302198815,-12.48221682915601,6.867066161015861,7.486496885441339,-3.410701134062361,-10.642807335319384,5.44217701993097,-6.887873588087813,3.789473125536327,-2.68474106229888,8.592029480018292,7.0,5.0,2.3239305310259595
06-28,20.384823944693327,9.301986283373358,-21.078568355450827,6.849069002383371,9.5285163408966,-4.959540812726006,-7.851048399458807,3.9449849904473795,-7.448966570233331,3.231120164116133,-0.05143382581134342,10.195261482769626,7.0,5.0,1.8371836870832896
06-29,20.471442616786785,9.023121217589868,-22.009310660267392,4.714016225667304,8.194693425650469,-5.507581897826338,-10.12355073660446,2.1014466771724796,-6.0752622738074855,5.017851637651192,-2.861350359811304,14.021008382678174,7.0,5.0,1.4138770212399407
06-30,20.943629585949065,9.903061748140567,-24.267730563109044,5.5224713620603465,7.995533772957461,-5.322505478955305,-10.275884424535512,0.515809440189441,-8.516724659500722,4.448165661661128,-5.4020382379413885,12.339863268686399,7.0,5.0,0.6569709563002032
07-01,21.15973394254913,8.948551143339534,-22.613795199399018,4.939170575224764,8.798225945398546,-3.3909243551233565,-11.986928162095484,0.21004508801810004,-9.80839563601374,3.205129588227027,-4.89875417360073,12.100173277242758,7.0,5.0,0.5551860028139611
07-02,24.095079322073403,9.394164431773316,-21.8891564609366,3.4845190742242025,8.185005657320497,-3.1186590877040254,-11.41978758263405,1.2885819457810281,-7.849067124985777,3.902665632658179,-7.140260415556267,9.852052549308082,7.0,5.0,0.7320948284434992
07-03,23.041146183426175,8.671386513356206,-19.40745834526984,4.157911942857431,7.870911599198578,-4.034458381710254,-11.186246335557911,1.732718336642983,-7.450940341011856,4.699615842908748,-8.038468982240719,7.516202751179911,7.0,5.0,0.6310267319816208
07-05,18.784218489031336,10.599345611020034,-21.500656249487086,3.600477410598968,3.9994998630966525,-3.02071512398904,-10.397080487037222,0.907418520361403,-6.689803917790529,3.9428209556509852,-7.6080971801933766,7.601749961923609,7.0,5.0,0.018264821098811373
07-06,18.75354138262061,9.947953348266138,-22.855243541814026,4.06216029036072,3.379784812486903,-2.2623548675925194,-10.069808558886384,0.5985086775804058,-6.082519103455667,4.541243240579272,-5.111990580123376,7.422702002502294,7.0,5.0,0.1936647585436976
07-07,22.10368951120326,6.2156138366926115,-23.997342579659303,6.2403603205605025,2.2830188679245285,-1.8325758249126516,-12.253656154725624,0.5405903836188446,-8.102843465228188,4.150525803355836,-4.264463706960146,8.614296420499508,7.0,5.0,-0.025232215635901795
07-08,21.729366543213175,4.4609665427509295,-30.833685492557,5.304141371641509,3.6107475933116646,-1.3328112486763144,-10.341461925971798,-2.4573606381900137,-8.718653376014492,5.294819110767083,-5.512233937842364,10.257921638195127,6.0,6.0,-0.7115203182810409
07-09,21.18659859660837,1.4788742879502572,-31.054007320807525,3.8150166814469637,1.621520847940236,-1.8326173361465292,-9.892682331364329,-1.795089461623229,-8.389495085936684,6.445808015919252,-4.733519094507292,11.429532727877682,6.0,6.0,-0.9766716227202356
07-10,21.091256025104226,2.4770683620564933,-30.93993827428281,8.023415954303593,1.929487343625224,-1.6219117644529883,-15.04956279758513,-1.3306734512513883,-6.1603236895033495,5.244118899079746,-4.254748729640288,9.472257400703166,6.0,6.0,-0.9266295601536251
07-11,20.128322082132428,1.8920217143756997,-26.890634548138003,9.158041890012235,0.6787768379811215,-1.4384615378891994,-19.87449838162811,-0.15971266915266033,-7.082895070754313,6.193488760059884,-4.787717432581155,7.485414744341738,6.0,6.0,-1.2248211342700277
07-12,19.538322313801558,0.6696781051344967,-24.982611262977347,9.356145073499809,1.5110822736025322,-1.6817415742281097,-26.306087232937063,-2.1712544147439132,-7.922415615235274,6.112117748186242,-6.303362886092584,9.66303634018934,6.0,6.0,-1.8764242609833592
07-13,19.74581145685176,-0.2916832102955834,-25.093894934884297,5.183963332984975,3.2359466359986087,-0.8534208418208452,-27.984618202653827,-2.895010667096936,-8.462804694488879,5.26555430086367,-10.48432332734979,8.713071664159948,5.0,7.0,-2.8267840406442666
07-14,17.88239730219849,0.9518003567567912,-23.035189454985936,6.431520086416623,2.046545636650036,-0.7410630289367993,-26.326533338283014,-2.1054590437261202,-8.764828895506264,7.457964016598173,-9.834842862376314,6.8611887760949894,6.0,6.0,-2.4313750374249454
07-15,14.216603955572607,0.8289851406003276,-26.153623887174266,6.628268588453863,0.4880762173445121,-0.15591115614168946,-25.649844548010815,-2.360652593036446,-8.90859791267065,7.882655199621616,-9.589419114782856,3.609832690140481,6.0,6.0,-3.263635618340276
07-16,8.31782858409216,4.378445535385055,-22.62925570264048,6.208101913969814,0.5906511308363817,-0.26797299661300195,-20.107413026335013,-3.3569768810948446,-8.458950964493903,6.826249032958469,-8.089516457464182,3.909958258719612,6.0,6.0,-2.723237631056661
07-17,10.201118669159271,7.3770448000104,-17.512255391184585,5.086137888633383,-0.7062186327101779,-1.198592569302982,-17.449312096168683,-1.5799299272718608,-8.761793203007272,5.5973489118923165,-6.952216743942598,7.376441422780074,5.0,7.0,-1.5435189059260594
07-18,9.814082943413366,5.08552483252446,-15.991102498337304,5.031443523043144,-2.7221402431276913,-2.099979264879368,-15.336591166540847,-1.8829271956057743,-8.804546387248996,4.397280584879232,-7.309915903820505,10.4241754590772,5.0,7.0,-1.6162246097185904
07-19,8.935019181591818,5.590156771710407,-16.516519298514066,-2.0508613788863337,-2.182851357974476,-1.611174804934982,-16.329097921184168,-2.3611636426627283,-9.430691788622317,4.7196884288203345,-7.777679035014197,9.144519930810771,4.0,8.0,-2.4892212429049945
07-20,6.7122798543079,5.1643252396386625,-16.660141985041246,-3.7735843808191,-2.266465990651879,-1.4038664048770606,-21.346469978895765,-3.919533087960061,-2.8032017440968144,5.964538280209081,-6.183037585193418,11.782258556735131,4.0,8.0,-2.3944082688870476
07-21,6.489894270710948,4.929578095400579,-17.482710091759934,-2.0831433134216946,-2.2533697345775714,-1.7349761276065765,-15.695499301583697,-2.55950052396246,-2.4660487893214045,5.6479304113199085,-5.560064971397186,12.557548240415672,4.0,8.0,-1.6841968196486181
07-22,5.8965330746912485,3.1690192870546308,-16.124829212722968,-0.6635187958620969,-1.6029444094219938,-3.232939552163947,-15.567195283463048,-1.671707894196997,-1.0256898945114798,5.545501359369809,-5.904189645067702,11.351010216472405,4.0,8.0,-1.6525792291518446
07-23,2.7072113410178194,0.7482425305590334,-18.019464870618563,-2.385136243623774,-0.11954349974059868,-3.331203665288155,-12.937024090712859,-0.5755736569498073,-0.764894425632549,4.978152282524223,-6.671451457462737,12.025719258758134,4.0,8.0,-2.028747208097486
07-24,2.5403280625482894,1.0446912940104587,-20.36156506602169,0.19306710577712288,1.170253291670395,-3.1887218258187575,-10.392388910043133,0.42040786041458317,-1.8851478173028666,4.113919968478058,-5.900288763561211,12.240042377718476,7.0,5.0,-1.6671168685108562
07-25,2.402511961553817,2.5435929169830085,-20.969954567579034,1.1767939862104013,0.132129552435742,-2.578332249236386,-8.94870795096048,0.9570771068616544,-2.7927099302649747,1.1934897947879095,-5.936157591333304,10.228843932686608,7.0,5.0,-1.8826185864879204
07-26,3.78939340405545,0.11716730006587697,-15.437933438035376,0.4964542638580973,2.1548275244708885,-2.309272063167614,-9.731006396557786,-0.028107166076408046,-2.4472198910182557,-0.054254239435926985,-4.058590305404647,10.097053414721838,5.0,7.0,-1.4509572993769886
07-27,4.657876953939049,0.4341467858000718,-13.318221009547596,2.283187461110343,-1.205650341566915,-2.329344862030001,-6.213690631697237,0.5996505189853828,-1.8714055995657108,2.2857121058872893,-2.288824973068461,8.893292583533475,6.0,6.0,-0.6727725840183593
07-28,6.925256661025022,0.37626938056716674,-12.718305084435478,1.9003018715550772,0.2907703677789201,-3.5788698574394697,-11.259104960067145,1.1711795752686962,-1.9421176825096456,1.5873053883530306,-1.647925614747068,13.371625176734863,7.0,5.0,-0.46030123149300256
07-29,8.111934273156935,0.405208083183609,-12.506682346819813,4.145438305384901,1.5515291923243941,-1.249628912080647,-12.976068073571497,0.5603076450008639,-1.60247487285815,2.096528281647129,-0.9891734418992671,11.911594951329892,7.0,5.0,-0.045123909600137235
07-30,3.6308878326289853,-0.23085221143471518,-14.774286288913174,4.2116205809414735,2.049626052011479,-0.9730247439427411,-12.924035760822527,-3.777510941441258,0.6137880231475394,2.5313070137848297,-1.0876944051474295,13.674804444259388,6.0,6.0,-0.5879475337440124
07-31,3.4918435161561026,-0.4945684896396224,-14.742886179391975,5.450460172378058,2.420627522115361,2.025094323596504,-12.148176674168152,-1.8586959838544175,1.3497070095176724,1.2228823816078402,0.24643177666153437,14.386827298573564,8.0,4.0,0.11246222279603924
08-01,0.8376955473428236,0.7258467999673696,-12.330966372236787,6.659755815873043,1.0096117750857065,1.5043187403643004,-11.528123847347759,-3.469745333896865,-0.047594758157033776,2.053017448383941,1.7080235647671607,15.515343396891023,8.0,4.0,0.21976523141974358
08-02,1.8822313166291498,0.3083734266912895,-7.526317395662006,7.022542531882231,0.3131298103551784,-0.4707544450547695,-14.560321316119134,-2.9896723550920727,-1.0946140801474096,2.4189941212187747,3.4176473621663477,17.533221936327486,7.0,5.0,0.5212050760995887
08-03,4.359535699781194,2.2476625325777917,-8.736841302168996,7.910275542225525,0.33858842864534194,-0.45565488594876424,-14.414514364916842,-3.6253491406587393,0.37121587541532386,1.770695045628441,7.053106351704348,17.349138880233646,8.0,4.0,1.1806548885431891
08-04,4.758721828629199,1.047047366687163,-2.2105267173365544,7.522715489314867,2.0036305204235476,-0.04986577029526578,-12.064795684781696,-3.3968992437214927,1.3805420495484888,1.6492810059020515,3.81414832056102,16.467756878664577,8.0,4.0,1.743479670299659
08-05,4.641841388593131,1.9265633203024022,-0.5941605468251699,7.257382678583202,2.0984525930667552,1.793586228185084,-12.117383696271933,-3.1509309647544566,1.0912545896584325,2.363039401208307,5.332309571554263,13.468684538354777,9.0,3.0,2.0092199251379
08-06,6.228084121304966,3.710369902562824,7.235506721221106,6.428263617316576,3.8078776488970867,1.4566726525956384,-10.665824573680394,-4.261056093675353,1.554310500632555,2.604393957508575,7.075271645859643,13.639175263827235,10.0,2.0,3.2344204470308715
08-07,5.195678272235541,3.1644778794159882,6.137421767294439,4.878882058109267,4.004529717221836,2.234551090482131,-10.01482021613495,-3.3636737873844478,2.953661672889522,4.424166738174957,5.501130099670185,12.02321154005984,10.0,2.0,3.094934736002859
08-08,7.644595568556141,3.9774385815921165,5.895252699592282,5.228588677168788,3.563551525260612,1.4471364384773235,-14.400684426833479,-3.1799339845668495,4.9719659535895095,5.041288916045086,2.327722324535904,7.974874013682209,10.0,2.0,2.5409830239249707
08-09,7.706481119037527,3.352272775311365,-5.126457160908761,5.006819536117966,3.7502249215737873,1.7898550004980682,-14.082401382418558,-1.8641456950772524,4.99953582765435,5.0760572032822,4.441130584079468,3.6142604106479728,9.0,3.0,1.555302761649844
08-10,8.366598251267119,3.8013393778572055,0.6527105669810115,6.378307743999638,2.9708939605918006,0.2504006502102822,-16.36105371578231,-2.1764624017759986,6.874364392399814,7.298135971450584,5.626361700721643,4.204603413247917,10.0,2.0,2.3238499925973914
08-11,6.60456860553854,6.978355509877038,-1.8629354494511121,6.3355703548411455,1.2727951623793068,-0.4539004952719148,-16.088504367264147,-2.2252574660059548,7.578672051320144,8.53595554348383,4.900714404006981,-2.1720754745206787,7.0,5.0,1.616996531577765
08-12,5.96105080989479,7.255831331958018,-7.075605124732983,5.710126109367949,1.3029943518118354,0.5036374492118715,-15.665995058283347,-0.8241210773231679,5.700629326828004,5.86564954046252,3.1661362805563997,-2.256590750364999,8.0,4.0,0.8036452657822409
08-13,5.334458512921823,7.19384130047173,-11.333919044385626,4.25106445409138,1.141888295543023,-0.7330214769707714,-15.098948002038576,-1.1523215649161613,6.046176147030073,4.895104034119275,3.060181049332739,-0.41412936530879646,7.0,5.0,0.26586452832417606
08-14,6.732738543897744,8.790450073605035,-5.770292882798834,5.340309946487054,1.3787683921746063,-0.5136202615785976,-18.828732519542818,-2.2713919215661784,5.483369699105432,3.206813058338778,5.520317366060509,-0.025226069324279593,7.0,5.0,0.7536252854048708
08-15,8.117953480148556,8.614999654067018,-2.8180437441163204,4.5113422668262935,3.5653517607802963,-2.4618816271692383,-18.021288723453885,-1.9619347936592997,4.6763547756838575,3.0437545329551283,6.034631145664783,1.106030628735707,8.0,4.0,1.2006057797052414
08-16,9.8536372808375,9.064803539438254,-5.17482090663243,3.979055514231517,4.836482360509574,-2.6807797460467038,-23.3700147920514,-0.07724421289023668,3.935549665776842,2.2556371750492326,5.091721459747849,2.3164118155972564,8.0,4.0,0.8358699294639383
08-17,9.822949085612427,7.078194175726596,-5.314689582878059,4.321793987549978,5.1189002814571145,-2.160832955739659,-21.30308998034556,-0.019307370015764862,4.917119792235159,0.5229834902251007,5.582810358629284,1.171780637125763,8.0,4.0,0.8115509932985315
08-18,9.03624532599638,7.7503448664170485,1.5244704026442308,4.946005622526459,6.13552026205733,-3.5732431549317702,-19.249625708126814,-0.1931031658120031,6.219565216324704,-0.5498085939856898,5.813854751034596,2.7768670861750464,8.0,4.0,1.7197577425266262
08-19,8.211645515335398,10.027441748946059,4.796131712351468,5.530072886961483,5.994844521526592,-7.0408572698588205,-16.889037685327548,-2.616113915549479,5.770296393471721,0.018220175914720957,4.492170682483825,2.8178263350346566,9.0,3.0,1.7593867584408398
08-20,8.692660433220134,10.164836834715272,2.4341935063123357,4.7718692509568905,4.602735355879848,-6.753153625445055,-13.889839167599947,-1.7898591942692146,7.756757306623029,0.4355282928286391,3.5923437451236953,3.1454815773998055,9.0,3.0,1.9302961929787863
08-21,3.5537519226080616,11.054856487209047,-0.3785703772206809,7.8380922234872825,4.518722279690931,-7.2762482582735055,-7.855322364149091,-1.7111336052694295,8.572192746890682,-2.1613155537268147,3.2427293026089323,2.9150890605582727,7.0,5.0,1.8594036553678073
08-22,3.7504387817351112,10.008300029539631,2.447991753733027,4.7680280674830895,3.8946264503930483,-6.99900874141768,0.43168736247574857,-3.0965173328923554,6.876893883660107,-1.7198519814708095,3.7671576348490934,1.7765838173525252,9.0,3.0,2.158860810453378
08-23,5.89155254728827,12.148645761850718,2.2265017853474545,6.53460484237883,2.552705783996446,-7.495433498326028,2.463256466716659,-4.784406893824022,7.687515338134227,-0.956491542374714,7.033156776536828,3.843707439859443,9.0,3.0,3.0954429006320097
08-24,6.6861922023721165,14.111828183917371,1.1957156693770956,6.725342114982712,6.22000585351812,-7.821399655414766,1.2205560717604023,-4.735181602569389,7.616250569265241,-1.9915210034504045,8.103245030933339,2.7860306187717416,9.0,3.0,3.3430886711219645
08-25,6.186276278614114,12.867847072893458,2.3089613192015284,7.2579320084727,4.550056115192905,-10.626541011249598,3.4566796641157445,-5.089582669573017,8.23674923395559,-2.879097118127131,7.380521115805058,7.073059232123387,9.0,3.0,3.393571770118728
08-26,7.136681060386993,12.627076206076495,1.8586389412540754,7.084610839961862,1.5600966305639146,-8.93262704775559,1.2830019253482765,-3.4837043483143058,8.0596728034981,-1.4144874944909906,4.610592234559712,6.972239276363686,9.0,3.0,3.113482585621019
08-27,4.631070251669192,9.993298823159527,-2.735430613785197,5.4705746099207575,2.904973747425525,-8.288928831873807,-0.9330981927613073,-14.797817796260091,7.53728507614832,-12.753652603685737,6.257634887733109,6.320770413807349,7.0,5.0,0.3005566476248038
08-28,5.538673634554844,12.93710390371197,1.2428107630751686,5.608530848189467,4.1358945084980325,-8.394451413802937,-0.3550213837349779,-14.651039130055532,7.323363524364866,-10.311249427508164,4.843779859544034,9.534041205171858,8.0,4.0,1.454369741000719
08-29,7.2803321742612574,12.693328857421857,0.9447595188986255,4.89771280858672,3.871241661453779,-10.659572091155415,0.7085550656730514,-16.576375857521615,7.606087334947581,-12.108439129265463,3.8750238876352276,11.39240712442134,9.0,3.0,1.160421779613079
08-30,7.835633067123199,13.271518732538269,1.6460889199236213,5.955272807068235,5.172093264522273,-11.789702549635123,2.106015512109999,-16.684790004945764,7.650570076811109,-11.104423049626838,4.210619568030899,11.5031247150543,9.0,3.0,1.6476684215811812
08-31,8.641157514035253,13.654244916580529,1.504637045006835,4.711590580757102,5.721135403977699,-16.1957113633956,1.9448439840638452,-15.162056169071498,7.196871900834299,-14.691848999411782,7.334058905815357,9.860002303040902,9.0,3.0,1.2099105018527447
09-01,12.107910118712548,10.598103919281323,3.510806689730784,5.3050906153374005,5.369287850943872,-15.547922246683523,6.1344032464281115,-15.27082939167324,7.768963906034656,-15.55368754350655,5.784488381755351,7.868338380294065,9.0,3.0,1.5062461605545663
09-02,12.351696123677296,9.601259050274466,5.278741561449387,6.862408526423233,4.997576279424322,-13.678671712690443,3.894370044607499,-16.196263269758617,8.863433972329307,-14.279766520693816,6.581506504993119,6.397201289270778,9.0,3.0,1.7227909874422107
09-03,12.059155397613857,8.31913837520386,8.167108532182386,8.19046134007317,5.420523667830246,-12.759002093793281,3.431973230953736,-16.220307256979698,8.597681262673255,-11.916884204394712,7.170476500457758,8.767364398123007,9.0,3.0,2.4356407624952987
09-04,11.581833487977681,11.059005125717045,5.96094502562277,9.077921275063751,4.379736930473643,-12.808861560768714,5.994362733813535,-16.14504478008145,8.427759136176398,-11.98531815903925,6.254205193901487,10.333482752067676,9.0,3.0,2.6775022634103807
09-05,9.641109169605114,11.186262722894053,9.327395138829363,8.573593740420772,3.399105916851993,-12.170711466732726,4.308116368792839,-15.957338193698664,8.362858825039421,-12.719114735220268,4.724279413108693,11.789155268743146,9.0,3.0,2.538726014052811
09-06,10.618043733161029,9.88517644926531,7.153728629662359,5.018072757373585,8.723563428792522,-8.902535737754507,4.724252584383871,-16.270533259742972,7.689582314295216,-14.145940547174982,4.503463527447214,9.924068443708142,9.0,3.0,2.410078526951399
09-07,9.508249929545576,11.851278613061533,4.857933002997197,4.996218936274405,8.03891707308011,-6.663880103170425,4.91220740033227,-15.308995432254319,7.857898062554118,-12.64774678517627,6.214280779275402,10.13147628637153,9.0,3.0,2.8123198135742604
09-08,7.172781817721523,10.792668098581688,5.073566953068964,1.647840300763905,8.476304381953383,-4.0195904675997065,4.213034468883002,-13.764051241573508,9.378008441657267,-10.55330605844211,6.552773619624495,9.729165883974924,9.0,3.0,2.891599683217819
09-09,5.379586363291143,10.521561608838988,9.395143532948667,1.6227664250108285,10.259824688267303,-4.000825838309776,4.511129712898543,-8.849553878870974,10.071331857340962,-10.25968158573725,6.992891148385596,6.483624950050035,9.0,3.0,3.5106499153428388
09-10,4.4913634535241105,7.695319768859292,12.61949990449581,-0.21637527957332972,8.260011480218854,-4.517061430349747,3.974562822196747,-11.236203930963509,9.402000103648547,-11.388253400835133,5.784530012874411,6.185183161255004,8.0,4.0,2.587881388779255
09-11,5.570206082920755,6.267173749053313,13.364927221995579,1.1094951290251172,7.862145709851791,-3.9801720034353743,6.6589474454598205,-10.210215026356382,9.826294853225097,-15.146244368464338,5.455130432181567,4.93642380311804,9.0,3.0,2.6428427523812483
09-12,2.4098420989192135,7.35807876202742,11.401909816913017,1.1948464178178695,8.730738076489587,-2.452539214462781,9.452826621400428,-12.650735322406751,9.369689657594966,-14.57353260165634,5.0293260021188475,3.023756184855083,9.0,3.0,2.3578505416342135
09-13,0.5153740624960392,7.322126052594853,11.984442724249428,-1.2033828489749705,9.484009604211039,-1.970896344170347,9.400554810332137,-9.338529326125375,10.754335313311971,-15.5144184478731,3.398611842859922,0.852809793323754,8.0,4.0,2.1404197696862792
09-14,1.8474578857421997,7.0730761268910385,10.440726545635664,-1.4252779679465148,9.190853885769947,-3.6915889849609975,8.520350351757855,-8.819718934480635,9.548078276601972,-8.157361063692534,6.997742858037352,-2.213680302794576,7.0,5.0,2.4425548897133975
09-15,-3.772925497663061,6.695323191879629,8.767384383566323,-1.1351044224964328,8.673781024018359,-2.210966445423726,9.6328983757061,-9.424990852889964,10.423860544412321,-9.880381067586939,6.749655271130897,-3.7616796732783593,6.0,6.0,1.7297379026145958
09-16,-4.611352645674127,5.913759912275375,11.570899449247454,-2.137565444483922,10.948195870840433,-4.4103103806879265,8.87568482096408,-7.3486885082845745,9.437799732566866,-9.816307254383384,7.748902203061582,-3.0588565048037664,6.0,6.0,1.9260134375531743
09-17,-3.545849396151759,5.939941922975982,13.035695611326881,-2.0496014443024193,8.972807840561364,-5.092423131418097,9.460368612438904,-8.840313170739945,8.057851511074588,-8.414888255944721,6.961425653889903,-3.226580101483561,6.0,6.0,1.7715363043522603
09-18,-2.1229270359632366,5.267266553946586,10.056708798887367,-0.31601905654340473,7.6241362018669045,-5.7849520613427945,10.634825918402658,-8.536459585630409,8.12112438532145,-7.783804919808955,5.199240258154286,1.8188987895647517,7.0,5.0,2.0148365205712673
09-19,-5.777065929298228,5.230200342511759,8.132384606983818,-0.13665530424720243,7.525045631052467,-5.43799902426256,10.368314757814293,-8.992887814744426,6.538994091431372,-9.477597355549676,4.199079833756975,7.431390147188734,7.0,5.0,1.6336003318864434
09-20,-3.8267470586388965,6.414214022009683,10.588236018804038,-1.1018114924432756,8.92759496565268,1.9686826636366332,10.144233703613267,-9.612475803016956,6.133540996083539,-10.305454570798082,4.683504221319755,11.170285295800168,8.0,4.0,2.9319835801685463
09-21,-2.9492913038520756,7.31800872115516,15.178773351711932,3.456491468295095,10.577292383614056,0.34436415542293475,10.308096018333366,-10.911455001890848,5.978261227261066,-8.656553942372138,5.6521076445266525,12.260703422814174,9.0,3.0,4.046399845418281
09-22,-4.266387601426746,7.459234310079989,19.146481036246033,2.593396145628794,10.923366298670866,-0.6096596199103094,11.785093194530152,-11.647545416908285,6.37052452873908,-5.406415285107117,7.604026967161618,9.027933200947281,8.0,4.0,4.415003979887613
09-23,-2.410682263834294,8.268073554847305,22.3776259280307,4.081130949681067,10.85533949389299,3.395859303631242,13.402655581688808,-12.555854651843495,6.324547493685273,-5.861912326966088,8.177516460112455,10.910321609920059,9.0,3.0,5.5803850944038365
09-24,-1.4915029702175333,7.847844433236609,18.156139766091066,5.178995662287666,10.574399074589518,2.2947657558427226,15.164644624920426,-10.052798272259796,6.171559998100848,-4.964606744367659,10.433844856088001,10.43596179891258,9.0,3.0,5.812437331935371
09-25,2.60178600533903,8.648173149242146,18.51518425416575,4.650199468446724,9.934356323269627,3.81973024988581,14.407521440254655,-8.256492889784237,6.171559998100848,-1.8351156383016365,10.10248915675939,13.02617909907806,10.0,2.0,6.815464218038014
09-26,0.06802876878633005,7.978249906139825,18.95278063612146,5.006632083956732,8.834796983400892,3.7071180190242874,17.95145423666945,-7.810852536137569,6.553565647909494,-0.7851735779569077,10.10248915675939,12.265780712630352,10.0,2.0,6.902072503108644
09-27,3.466404874941298,7.002304123879666,12.760479699754471,4.48441317977912,7.999329306396978,3.595933978779897,16.927160771129046,-7.513900686245191,7.001381924314355,0.49301645352471946,8.942463565131472,14.189044862368675,11.0,1.0,6.612336004479542
09-28,3.624738157983636,6.254803208648499,16.295947632092044,2.35524552171215,7.991413328367244,3.3014967845729464,16.42602863844662,-8.689262986403921,6.260768257409417,-0.42329906342456924,8.074772091660174,14.759843424874678,10.0,2.0,6.352707916328243
09-29,3.988229183618625,6.562413916282206,15.300866278379125,1.5590341152498786,8.289419082097075,2.825678626224245,15.4118724220478,-7.104624386632009,5.619728781081422,-1.893975427413617,8.27398998801383,15.646682804365522,10.0,2.0,6.206609615276175
09-30,4.854529594456157,6.690584229565577,18.046853790646303,1.634458286365407,8.465288155856845,3.511519675157657,13.699437147259703,-6.69969823449655,3.2004868121984624,-4.127133217406109,9.013434060475637,14.419903922573274,10.0,2.0,6.05913868522103
10-01,7.551485630662722,6.4268393716996846,22.05198067254701,1.6177045090275122,9.646841095022717,6.243254589797503,11.298103816529332,-8.008777349054158,3.099085951271236,-5.215226314573,10.320751858289048,14.630211013070252,10.0,2.0,6.638521237024155
10-02,6.591401711565943,5.9129994630209675,21.319739277309566,1.4444160781015165,9.738921136969097,6.243254589797503,6.602152487458716,-7.693908542268593,2.9296008035183685,-4.613194761028313,12.208412191481418,11.868162617874614,10.0,2.0,6.045996421150067
10-03,4.671967638019867,6.010932487502208,21.373781906220195,-0.25793401947813216,9.820165801930314,6.519509770777638,6.188639670580864,-7.4924647541884815,1.2346781315943185,-3.208357790002995,12.062621214399107,11.833082403439713,9.0,3.0,5.729718538399553
10-04,6.3324098491347165,4.41916364960021,16.79030034733373,-0.6104368492613579,7.910339362931174,6.194207946095089,7.219225925124931,-5.904942305277427,0.9965581263783954,-2.9520651688623656,10.119458384137152,12.719210896300206,9.0,3.0,5.269452513636204
10-05,6.072473894760557,2.7339665891091802,14.329445573078218,-2.3340585174891664,9.188745697788834,6.84751250826086,7.000297719665392,-5.417186786674181,0.31748885465152193,-0.8778434777156561,10.64864935561957,12.110005992964577,9.0,3.0,5.051624783668309
10-06,4.098495473522074,1.735015329988372,13.21088093769777,-1.8162933958096275,9.065795173413079,8.26378691968299,10.390484008685636,-6.050230172402448,0.6402976434131871,-2.248767102067305,10.246664033582572,13.066239032912112,9.0,3.0,5.050197323551534
10-07,4.362914332967276,2.0110393565636757,11.15946781490393,1.9408594517487245,9.119934696741455,11.506695657351317,9.517418669141712,2.981054999713335,1.0454207346604802,-1.7455941839218128,10.156064044976148,10.002094928260709,11.0,1.0,6.004780875258913
10-08,2.131874296170695,3.0174131208265833,8.564588712201056,1.9408594517487245,10.642151325148804,10.030382851746374,8.116671247621534,1.4077150256509083,1.9498589113196307,-1.7455941839218128,11.185771957216527,5.779296804898916,11.0,1.0,5.2517491267189955
10-09,-0.4539348685972105,3.0757267225320657,6.586825454038918,4.804610300830993,10.823271981889777,11.691827805299999,7.15875140684719,2.432689373004795,1.9498589113196307,6.913486857488457,9.422923453711709,5.158092531074858,11.0,1.0,5.797010827453431
10-10,-1.4514778233781647,3.0381364194949922,6.586825454038918,5.092556385021595,9.588365265267186,13.688516932692139,6.95852247903832,2.432689373004795,2.566324933634729,5.931241917456825,8.569167065526186,5.039436731622243,11.0,1.0,5.670025427784981
10-11,0.6938677968203956,3.0381364194949922,6.226156967640833,5.010286971931977,9.03884282249298,17.998610943615947,7.708357626544362,4.4711235479415965,2.5403093192389075,8.972421842118369,5.179823456733691,5.039436731622243,12.0,0.0,6.326447870516358
10-12,0.6938677968203956,0.5532115108995229,4.3189302963203815,6.176588618535036,9.603870940101821,18.082297936605777,7.708357626544362,4.843717834960801,1.6819792557721855,10.972756753667921,6.538557003578351,5.039436731622243,12.0,0.0,6.351131025452399
10-13,-1.3199681464802875,-0.42149592010281056,4.429677153712826,5.860422465730969,9.805091112010231,18.082297936605777,7.877521781093713,4.657420691451168,1.5355224209359541,10.383073254346689,8.279209449296706,6.7704311153613,10.0,2.0,6.3282669428301865
10-14,-2.8070181253257784,-0.5400469862986441,-0.17594494179386558,5.584913931611564,9.805091112010231,17.558028383048615,7.744808355666182,5.113226817318875,2.523686773199126,10.42481385669816,8.279209449296706,6.058496318645512,9.0,3.0,5.797438745339723
10-15,-3.7259873246242954,1.3112279990439473,2.026432564120046,5.10662638382905,10.614167685952307,16.20241173881204,5.905769128542871,5.574231880576207,2.3133365045097065,9.120984165905998,8.865937116758396,4.557826889485239,11.0,1.0,5.656080394409291
10-16,-1.0384062751426095,0.9661213790226928,5.705640871889578,3.3470072026114934,10.214445613005521,15.584954975236709,5.372911205986859,4.817662953799098,3.55377390411488,8.788553640016472,8.287724210136274,4.26467538783065,11.0,1.0,5.822088755708968
10-17,-4.449687018662106,1.1825266866992383,6.374793229091247,2.4036097362589066,5.758117744801629,13.689789060161969,4.735899465827445,5.448975854990434,3.46124517376092,8.844292732299955,6.529957915106772,6.246944008755438,11.0,1.0,5.018872049090987
10-18,-4.273937241265885,1.3853281730858902,7.999996174434651,2.3051723977146366,4.752351432068082,12.63139279923529,4.31246231390001,3.2523743736647117,3.5296169621500515,8.036047542667282,3.8393056666457004,6.246944008755438,11.0,1.0,4.5014212169213215
10-19,-3.438493370952663,5.121467488136989,10.15385032719017,4.003584521486289,4.047591571802858,13.04862103904397,5.22667826845336,3.512981065215522,2.3074989559381445,6.527151978775274,3.2288079408237516,6.246944008755438,11.0,1.0,4.9988903162224245
10-20,-1.0900080193694643,3.005261091330138,8.05697970920139,5.286875249296781,3.8386164168482417,12.754990911435648,3.759255004880103,3.408732026127157,-0.7787793530103715,7.015455996056414,2.9727624084235167,6.0305710420846275,10.0,2.0,4.521726040275349
10-21,1.4533461258519988,3.994493384705481,3.3160053672854746,2.679018875275626,2.7799201530078697,12.192063912224837,4.461740185718619,3.0029406494133726,-0.8280851220094375,7.015455996056414,2.5633000959398156,6.449364987518296,11.0,1.0,4.089963717582363
10-22,-0.21470036292860142,4.688866469330594,0.5537895669763642,2.1693962790419357,1.546871756360463,13.235684188850028,1.6328020230715545,1.416794186236936,0.5699201963758029,8.04992229831376,2.966699674187638,6.679700592469549,11.0,1.0,3.607978905690502
10-23,0.41953347769733634,4.294555804014459,0.9040702825178203,3.2814316080593637,2.4596884804939796,12.702679077367424,0.29722452436980695,2.8648818222736523,-0.11991382411001071,5.715362045961521,3.5863707698821066,6.281845279270339,11.0,1.0,3.5573107789831497
10-24,3.593908488333036,3.2770421728516457,1.2172295011819296,1.9169604328458403,1.9076197281174823,12.453622893134812,1.9158161540550167,3.097072665898509,-1.0758240586408163,8.385650047911566,4.2757583357779705,8.333916441224888,11.0,1.0,4.10823106689099
10-25,3.51401074463546,3.878179285941752,2.5274588826356346,2.8796270448434815,-0.07701583814972618,13.574152645949955,1.0096176589784704,7.089019212506301,-1.316807597166939,2.829573856904359,5.406850990069977,8.333916441224888,10.0,2.0,4.137381944031135
10-26,1.0707020164538965,3.1813544622213086,-0.22440350243911758,5.754400122209007,3.6999558580380203,13.570270477173388,-1.1484187884922445,5.764925284697718,-2.134431255210379,2.7979951402365493,6.66213569409014,8.333916441224888,9.0,3.0,3.9440334958502645
10-27,0.7402399678240684,3.8451901748989084,-5.031300612207788,3.534646797763355,3.1171373332645755,14.661702326172598,-1.358933738992237,4.919537396660675,-1.5674788435596307,0.3293654521249411,6.970970778236133,11.083970411987293,9.0,3.0,3.4370872870144074
10-28,3.6843853925072527,4.058113742963546,-8.15685068038082,5.458652056474278,3.448095278042234,11.52818927337212,-2.737566416300337,6.578815687158136,-0.2070440794989241,0.550937270315291,6.61281954820531,12.605573148195779,9.0,3.0,3.6186766850878223
10-29,1.7328378248549485,4.184891912308381,-2.9425794005989907,6.365962113076241,-1.7329247587337424,13.04052626480744,-2.6883265834543186,6.213500109485266,-0.4149406601549925,0.14557601372876364,5.487109546367329,10.588397931569867,8.0,4.0,3.3316691927713493
10-30,4.420732672558513,5.228681430346412,-4.714017422793751,5.99759216191981,0.3783945260821786,12.904686082119298,-3.3505203953581684,5.595544031505044,-0.23298323745185465,-0.7345854851689539,4.784214585792681,9.457669189420388,8.0,4.0,3.3112840115809665
10-31,1.7432860576429394,4.7104163045643705,-6.206985021968268,5.99759216191981,-0.12612871940817377,8.495059812943417,-5.337786350532222,4.039160922281747,0.00860398815525416,-1.5754854705605732,5.434203722078997,5.646689017538307,8.0,4.0,1.9023855353879673
11-01,3.685704471197234,5.72974739603414,-5.486286400632269,2.2079485609142977,0.6361451612622218,8.84815374350518,-6.4156312572372105,3.566601196300524,0.28387254284274194,-3.1703062133403064,6.220090017276803,5.646689017538307,9.0,3.0,1.8127273529718053
11-02,2.2445156674043423,5.432398498616905,-8.104738463013703,4.224902926449553,-0.30069599297249816,8.133513109679065,-5.53018445405821,3.940938949452122,0.07741620463709677,-5.956394494889099,3.6989687783893963,5.646689017538307,8.0,4.0,1.1256108122694395
11-03,2.1929812142887046,5.12789179381008,-10.548637201728239,6.272603983609317,-0.581147397397591,7.5186966997041225,-3.9612863423942968,4.596026050848563,-2.380951582972012,-6.3011759507220795,3.872423010963884,4.474072360547485,7.0,5.0,0.8567913865464948
11-04,2.732791776727487,3.6175411399542465,-10.47179119075398,6.466972631568112,0.08169157234669637,10.703677618151426,-3.632008925675904,3.4235181766556413,-1.0861065598874013,-9.595387581972037,3.764094316966878,7.300904866293608,8.0,4.0,1.108824820031231
11-05,0.15182212287652197,2.1973986442979734,-9.929514661276876,8.069753410506921,1.0311442246804075,7.653196673822802,-2.9834342719523606,1.6367803636306948,-0.18083104231408198,-10.082730411272504,2.0964638319741247,3.496900688365522,8.0,4.0,0.26307913111159553
11-06,-0.8403324510878307,3.5605483749278273,-12.346776963952118,6.11234194199103,1.3118786005672531,7.275262561228919,-4.845279152826561,1.9434657273519895,-0.025792090040882544,-11.334647174722786,1.4280210491324918,3.147909283961615,7.0,5.0,-0.3844500244557545
11-07,-5.347871612789072,3.9703791260656462,-10.051996619568046,8.055793600612372,3.017867768087145,8.858641071746264,-5.649602647920441,1.348808995984756,-0.15495236751611985,-13.584982300801638,1.3824475121971582,0.9771823225544108,7.0,5.0,-0.5981904292789636
11-08,-4.5337444794818476,4.110095636602555,-8.787723064134067,10.365067759788712,2.012949630927531,9.491000527998304,-4.628201012685762,1.178684521163024,0.034436048782923355,-12.693143031248713,2.643105307654965,0.9771823225544108,8.0,4.0,0.014142513993502978
11-09,-3.397316181904623,5.116393124332226,-3.96786071266862,12.657193402398883,2.389878668830483,10.161150353165171,-3.0072915719526443,0.6049878110339159,0.8867134781499681,-10.961161453692437,2.468486632692697,0.9771823225544108,8.0,4.0,1.1606963227449523
11-10,-3.567185878919655,5.4073794039101015,-4.941574218144957,12.590221181479219,2.389878668830483,10.161150353165171,-2.389631996054592,-1.0430791398257804,1.2827181871466249,-8.581437990360726,2.468486632692697,0.3140901338890272,7.0,5.0,1.1742512781506342
11-11,-3.9239025228517224,5.2982572365701435,-7.241962856662107,11.849012409589152,1.800537109375,11.169780585659616,-2.8857821106461348,0.1043142804324209,1.4029929842799003,-9.426912229883037,2.864444565026961,0.43275658371411074,8.0,4.0,0.9536280028836921
11-12,-2.3101760404737512,7.090997886775869,-5.9859158191362924,13.139606293020414,2.702850663571865,11.758347066485172,-0.4556469608227056,-1.1052663702713665,1.4114806396320347,-10.251049380937669,2.463676390250671,2.3731479401700417,7.0,5.0,1.7360043590220238
11-13,-1.7875234180923052,7.173915727627676,-4.526402445937614,12.832126940798641,1.5779969532856233,11.182763135686018,-0.5885913605934143,-1.4362663167034186,1.4877844390269246,-5.077063650610469,2.41125215201608,0.3140901338890272,7.0,5.0,1.9636735241993974
11-14,-3.122378076011926,7.419894340876619,-3.9661765928610273,13.678200373463195,1.0662117392456978,11.777432414232027,-1.553937212947748,-0.20866414274456618,1.837067069183973,-6.124712437450606,2.8380960586182304,-0.6979828088078155,6.0,6.0,1.9119208937330046
11-15,-2.7429325381102863,8.336312451963703,-5.507908573701341,14.464898841163306,1.6907740874156134,11.339002082163564,-2.0520474384900265,-1.6478348137330072,2.6611713717656738,-7.8674377476507935,2.894421560202021,-0.6979828088078155,6.0,6.0,1.7392030395150513
11-16,-3.4871962155324496,10.24818590101284,-2.5848524773322943,13.146028404823747,1.6668467904780715,11.670826851608314,-1.3620949415856143,-1.7851510236541053,2.1289344776530017,-5.669493298966203,3.2930758908152837,-0.6979828088078155,6.0,6.0,2.213927295876065
11-17,-3.2008047365995265,9.654432183596882,0.09663223839834875,9.818203534280476,1.6668467904780715,11.670826851608314,-1.123481042798187,-2.0492262373811165,2.283454443724508,-6.192071477693852,3.2930758908152837,0.0,7.0,5.0,2.1598240365357673
11-18,-1.9373276606420669,7.908794804799932,-0.9783760715502471,9.532776328109767,2.026851647199491,9.997411420181832,-3.6289535289627985,-0.5492809575563093,1.9544260060714918,-6.391379410011108,3.0093289611062746,0.0,6.0,6.0,1.745355961562188
11-19,-0.20215453276770934,7.716161405417314,2.5717300722144767,11.304028342678013,2.583575377338453,9.065008921708305,-2.7739121741255808,-0.923308053041834,1.6606766362559897,-5.350673394981958,3.520871985634882,0.0,7.0,5.0,2.431000382194196
11-20,0.016871957165699163,7.993340365287099,1.9882573663775511,12.269938380044163,3.9333578877060633,8.201674738688466,-4.861186996795087,-1.509075847338977,2.6440701242220723,-4.120360616989849,5.236351191492022,0.0,8.0,3.0,2.6494365458216023
11-21,-3.3993813335279683,8.666907256689992,3.8651325298029935,12.125588366448357,3.3428220054164437,6.835383175499669,-6.729408567512074,-0.9868792035761007,2.4113766347779944,-5.034905098107033,5.850629160688907,0.0,7.0,4.0,2.245605410550098
11-22,0.1155110504732302,7.28754861418537,4.7245091025918295,10.956333432562237,2.73102762540166,6.028765013178843,-7.666396699079652,0.6682367830951227,2.4706030442697124,-5.5069312023547505,4.703649053433355,0.0,9.0,2.0,2.2094046514797467
11-23,0.18139942522877575,9.511326831707107,6.717471455958539,10.439199458016663,2.755926888642663,3.5394614974684067,-7.283088027585317,-0.32898088400111913,1.7683424351575594,-9.513115830047276,1.465033148362609,0.0,8.0,3.0,1.6044146999090507
11-24,2.8251366685435513,7.282479736865007,6.858154623940628,11.801820420454206,1.7758115162029982,3.3014783086035946,-9.350053414460453,-0.8841375964135503,1.1662575400915034,-7.436685420319984,1.0070458279048733,0.0,8.0,3.0,1.5289423509510314
11-25,1.4937522022459704,7.473187316363722,6.0208231750211425,11.029938504627586,2.172294648612648,3.8049322714055465,-10.35554860304657,-2.6249680346569844,2.5815672234225753,-7.082999426805967,0.22642169845523658,0.0,8.0,3.0,1.2282834146370758
11-26,3.669424120691843,7.141149915871339,2.607360817335307,12.279821804149753,2.2905981474266377,3.1127193987579136,-10.096400684692084,-1.841199083227527,2.4174551188275615,-6.203617949934052,-1.0123845609245472,0.0,7.0,4.0,1.1970772536901786
11-27,4.105377638080247,5.490763678113322,2.110753872462727,13.444126822772503,2.6019992097997715,2.277595072539556,-11.506560718606464,-1.0378827356895004,2.0047392337253567,-4.236456208628373,-0.6074283599814311,0.0,7.0,4.0,1.2205856253823097
11-28,3.7570845260311234,5.788324864748706,4.167629862233363,13.79065998042472,2.8553352125688547,4.811204682300165,-11.906022070420228,-0.995952993621196,-0.6260146846052415,-6.049260482412254,-0.3348591725865126,0.0,6.0,5.0,1.2715108103884585
11-29,3.6478599041303745,5.156644874419587,3.995380075562723,13.267323420515625,3.192556234330294,3.1281693903731487,-11.953415860578735,-1.4177820402800294,-0.3430250611313452,-6.8669962765548025,-0.1398979252743937,0.0,6.0,5.0,0.9722347279593705
11-30,2.301498411535775,6.08360790482823,-1.3279463581313622,12.34394237286056,3.6310200978378364,2.8198916609115896,-11.1648389513625,0.7244095706702645,-0.20581241961525765,-6.507550127499704,-0.32009030668391925,0.0,6.0,5.0,0.6981776546126263
12-01,2.5378255121387676,3.794725267816908,0.05773143561685109,14.89092382353237,2.183633875520412,3.1367065525671283,-14.734012503843427,1.438476072811097,0.5831406411256095,-8.541131843816286,0.5571902289904709,0.0,9.0,2.0,0.4921007552049919
12-02,1.4966682371444529,3.397180607460045,1.9976856328190833,14.245193584189275,3.7875193832344523,3.4541993636714694,-13.207945065081498,2.1214896829470367,0.008507388157197437,-8.434678845962043,1.1005870517899061,0.0,9.0,2.0,0.8305339183641149
12-03,3.058404149635908,2.662328668352206,3.215911171653054,13.70058301117732,4.740426549973336,1.634580206156692,-12.090273649687406,0.9084389985150263,0.5162059912021345,-9.46534411741957,2.126362468935924,0.0,9.0,2.0,0.9173019540412186
12-04,1.77322292328307,3.1378773183390254,2.6850989079731273,13.526922061183422,4.063974894610735,1.436310741200532,-13.874256431280124,0.34260987551937716,-0.7887501489707438,-4.0862126038578666,1.2543975223667765,0.0,8.0,3.0,0.7892662550306108
12-05,3.9178197939225115,3.836904576407093,3.259884957674799,14.137860352199116,4.677503047557093,1.8152157091373897,-12.204764567907752,-0.020836347621175463,-1.9650655021834063,-3.16949480298655,-0.2983014940050842,0.0,6.0,5.0,1.1655604768495027
12-06,2.7719539519003864,3.8947053709321984,4.9610667505815025,11.442539523914393,1.4997381521342101,1.4854114304521315,-14.243738977745812,0.4860908148057289,-1.4759846649836121,-3.16949480298655,-1.3767689439655384,0.0,7.0,4.0,0.5229598837532531
12-07,6.071931063441111,2.826433073328166,5.8175787187590515,12.76504097817684,0.5115316589996001,3.272857186003285,-14.617903507314335,-1.5410050947847254,-1.406114070176037,-0.6729105083338894,-4.371707013054701,0.0,6.0,5.0,0.7213110404203641
12-08,6.795502681678342,3.5632377642400086,8.086767685279945,12.77644734153906,1.4618899494039075,2.3317002273971497,-9.86955056485014,-2.813115267373635,2.1028675079425336,3.6326392545706367,-3.49442761492751,0.0,8.0,3.0,2.0478299137416918
12-09,5.84508534607002,3.309575834604976,4.352779856242915,13.234778921809848,1.731575413754112,1.026179165205116,-8.586405792270458,-1.8461569761618442,2.330295575260447,1.8685395191129612,-5.631897984164748,0.0,8.0,3.0,1.469529073288612
12-10,6.478694888940213,0.5653872677259172,7.1974827459162745,13.259093204511267,-0.10151872071409221,3.148705308168935,-7.8699752721785625,0.35353381224352903,0.9419408165947891,0.8528983255032421,-5.001583208172402,0.0,8.0,3.0,1.6520549307115926
12-11,0.9983082365835406,2.0572153499886,6.577612439203668,12.809429103609741,2.569992233638519,2.381262423737852,-7.408621979595519,1.5861895169346316,1.3390189294876067,-0.9701105675297604,-4.8747572273029975,0.0,8.0,3.0,1.4221282048963235
12-12,0.38384437460736925,3.4209561368869816,6.757065940037959,13.15110531256099,1.7311420334300855,4.983790134043846,-4.905538337460326,3.094303960165255,2.564320656761656,-1.3816717202837663,-6.024088953802977,0.0,8.0,3.0,1.9812691280789225
12-13,2.275709172685381,3.7329536710093416,9.013640934509557,12.690889138053468,2.129592669772093,4.257932949473521,-7.265945233491626,3.9869397569191154,2.2616465328655257,1.1269000406552006,-5.346105066054434,0.0,9.0,2.0,2.4053462138664283
12-14,0.4669044327073931,4.08066876649725,10.310893994074293,9.758302172994506,-0.4405218976219626,4.262139584627671,-5.562758073041438,4.857542118287616,4.30469366191942,2.0348286110501577,-5.913681413069885,0.0,8.0,3.0,2.346584329868752
12-15,1.1762678003452276,3.1725467771679643,10.400352955490307,9.715005279365107,0.43125090583179215,3.474068804333182,-6.19612048589376,4.926793892680355,4.259215361098338,6.154592025683136,-8.368575953272565,0.0,9.0,2.0,2.4287831135690903
12-16,0.3864889072818165,3.927352040451357,8.960935405148069,7.000002179826989,0.016443995231727654,2.2909721769675544,-7.995687419112405,5.822288064817719,4.39615041872168,6.335583305854296,-7.43368645605609,0.0,9.0,2.0,1.9755702182610595
12-17,2.016462749265398,2.275972443266394,11.149787308991032,7.698852118468588,-0.22380112933364815,-0.23450392387035843,-5.862063182236798,5.6851554726623945,2.8769778792223,7.034844819449244,-7.843143800180331,0.0,7.0,4.0,2.047878396308685
12-18,2.0843917594003467,1.0452994250775247,11.55695073902885,5.5337622072764505,-1.1080779547558417,-2.3766523329658185,-4.560760934582227,5.694401282079275,1.8757931975711635,7.9486014859053125,-6.668283786776037,0.0,7.0,4.0,1.7521187572715828
12-19,0.7668724618253989,2.278118410956781,11.665555217720515,6.432282171067953,-1.1462915603153205,-0.9702658798789834,-2.2182512083951416,3.789621872385062,2.0382428450411614,8.20561874932547,-7.292173175760533,0.0,7.0,4.0,1.9624441586643637
12-20,2.1673402311929677,4.243694262555288,11.093992695732258,4.164584265721215,-1.0559359763778529,-3.0150758585259445,-1.715668042549021,4.892599729906087,2.1645747680964216,7.59638564979561,-7.602957163469089,0.0,7.0,4.0,1.9111278801731617
12-21,2.8528513908084774,3.135640776393695,9.575167169051294,3.3437301614706874,-1.721868490424976,-2.6237028954870802,-4.503441960636293,4.663877213480418,2.147732653634173,8.64947129686389,-10.989651678403185,0.0,7.0,4.0,1.210817136395925
12-22,0.5742275930503195,2.9477417395789773,9.355051665090574,3.784854978538276,-4.879292769299043,-1.1899569324197443,-3.8376632346290434,5.529035097036568,1.215779860383794,9.61520137252646,-9.617602209619601,0.0,7.0,4.0,1.1247814300197945
12-23,-0.1520016111797111,2.759833742817819,7.004455124463643,2.6630177653858342,-4.66034430762558,-1.5915631675301016,-5.393751677528238,5.856034283576517,-0.5795330554520574,10.032000233204162,-8.553004025092507,0.0,5.0,6.0,0.6154286087533151
12-24,-0.6080064447188444,3.0140208843983602,7.958783204425952,2.2620436037253633,-5.84584163130075,-1.6135406542917976,-5.551465403652002,5.042603372473459,-3.839967220448412,10.662558110767753,-6.951780100393179,0.0,5.0,6.0,0.3774506434154918
12-26,-2.4854315377905136,3.566035341405893,8.009201081907868,2.5952405771491005,-6.127976828544836,-0.5295833861013414,-7.569719577245937,4.159587614489562,-1.883818082554569,6.437325098285084,-6.807624506206597,0.0,5.0,6.0,-0.053063683767190506
12-27,-3.6581147697432077,4.277650836238083,8.350618354885686,3.766360619462925,-4.951934216981995,-0.6930633714309546,-11.433351729549244,4.245754310474595,-2.0678179857582406,4.410933433064359,-7.196845371756319,0.0,5.0,6.0,-0.4124841575911926
12-28,-1.0649105303248243,3.052375366925915,9.627769496846389,3.819674005823026,-3.2486075121493956,-2.4865528646185813,-9.792289121106995,5.424575812136103,-2.6636300610585675,3.452546657004465,-8.408773760109812,0.0,5.0,6.0,-0.19065187588602303
12-29,0.6527186437630753,2.6361415604242664,8.31787217095705,2.541761704484027,-2.4683350871027763,-1.8489314402112946,-10.11605634292217,4.785215772771156,-5.911148198252488,2.508103412273241,-9.95119434199199,0.0,6.0,5.0,-0.7378210121506584
12-30,0.820086491157819,3.052375366925915,9.279583862657285,2.870469913742677,-1.787641765569428,-1.5073185623549055,-9.229254043311975,5.363023334152909,-5.010231481541191,2.377767221871708,-8.995491180995232,0.0,6.0,5.0,-0.23055257027203493
12-31,2.0251030702471233,3.9419527885865233,6.286468093541768,0.806149409548053,-2.0994881947684094,-1.2838457015639881,-8.18918727483095,5.261588290586896,-3.526931500850726,4.999532778462264,-9.096113784974033,0.0,6.0,5.0,-0.0728976688346233
