,2009,2010,2011,2012,2013,2014,2015,2016,2017,2018,2019,2020,ups,downs,end_day_sum,avg
01-02,-3.094999313354492,-0.18499946594238637,1.8999977111816406,2.6999969482421875,0.2799987792968892,-1.5900039672851705,-0.5899963378906392,-8.69000244140625,6.319999694824219,-1.6800003051757812,6.199996948242202,-9.240005493164062,5.0,7.0,02-16,-0.6391681035359703
01-03,-3.180000305175785,-0.11999893188476918,1.8299980163574148,2.4099998474121165,0.6800003051757812,-1.825004577636733,4.7750015258789205,-6.180000305175781,6.25,-1.870002746582017,9.919998168945312,-7.330001831054659,6.0,6.0,02-17,0.4466657638549834
01-04,-3.534999847412113,0.4099998474121058,2.634998321533203,2.319999694824226,-0.18000030517578125,-0.14500427246096592,6.645004272460966,-4.339996337890611,4.230003356933594,-1.1500015258789062,7.9799957275390625,-8.629997253417969,6.0,6.0,02-18,0.5200001398722343
01-05,-4.449998855590827,0.5850009918212926,2.3999977111816406,2.7000007629394602,0.37000274658203125,0.6899948120117188,6.185005187988281,-3.309997558593764,5.8799972534179545,-2.5999984741210938,7.020004272460966,-8.939994812011719,8.0,4.0,02-19,0.5441678365071617
01-06,-5.469999313354496,0.11000061035156605,2.549999237060547,2.590000152587905,0.56500244140625,-0.46500396728517046,6.6550064086914205,-1.470001220703125,5.910003662109375,-2.529998779296889,8.870002746582045,-9.759994506835938,7.0,5.0,02-20,0.6295847892761243
01-07,-4.524999618530273,-0.029998779296875,3.1899986267089844,3.5349998474121094,-1.2749938964843608,-0.6100006103515625,6.160003662109389,-0.25,5.4199981689453125,-2.55999755859375,8.490005493164077,-8.56000518798831,5.0,7.0,02-21,0.7487508455912284
01-08,-5.049999237060543,0.18000030517578125,3.43499755859375,3.895000457763679,-4.3600006103515625,-1.2050018310546875,3.1800003051758097,0.20000457763671875,6.020004272460952,-3.3199996948242188,8.669998168945298,-8.890007019042969,7.0,5.0,02-22,0.22958310445150065
01-09,-4.940000534057617,0.39999961853027344,3.779998779296875,3.8199996948242188,-4.944999694824219,-1.5350036621093608,4.2649993896484375,1.1800003051757528,6.650001525878906,-2.5999984741210795,8.239997863769517,-9.140007019042969,7.0,5.0,02-23,0.43124898274739465
01-10,-4.955001831054691,0.19499969482421875,2.2399978637695384,2.8300018310546804,-5.1300048828125,-0.9150009155273438,5.194999694824219,2.2700042724609233,6.419998168945327,-0.989997863769517,7.089996337890611,-8.729995727539062,7.0,5.0,02-24,0.45999972025553354
01-11,-5.750000953674316,-0.11499977111816051,2.2600021362304688,2.6000022888183523,-6.010002136230469,1.0550003051758097,5.1200027465820455,0.42000579833984375,6.18000030517581,-1.9499969482421733,8.269996643066392,-10.30999755859375,7.0,5.0,02-25,0.14750107129415438
01-12,-5.05000114440918,0.6349983215332067,1.770000457763679,1.9000015258788991,-4.354995727539048,0.3800048828125284,5.260002136230483,0.5599975585937358,5.939994812011719,-2.30999755859375,9.48000335693358,-13.950004577636719,8.0,4.0,02-26,0.02166700363159446
01-13,-4.8600006103515625,0.3149986267089915,2.0050010681152344,2.3400001525878906,-5.3649978637695455,1.5050048828125284,4.339996337890611,2.629997253417983,6.279998779296875,0.8199996948242188,10.360000610351562,-19.59000396728517,9.0,3.0,02-27,0.06499958038330138
01-14,-4.145000457763675,-0.34500122070312145,1.404998779296875,1.8149986267089844,-4.175003051757827,1.120002746582017,4.349998474121094,2.1100006103515625,7.339996337890639,0.8899993896484375,9.510002136230469,-20.839996337890597,8.0,4.0,02-28,-0.08041699727376184
01-15,-4.715000152587887,-0.4949989318847621,2.1199989318847585,2.4500007629394602,-2.7399978637695312,1.215003967285142,4.7350006103515625,5.110000610351577,6.479995727539077,-1.3300018310546733,11.169998168945312,-21.650009155273438,7.0,5.0,02-29,0.19583257039388316
01-16,-4.994999885559084,-1.345001220703132,2.594997406005845,2.4449996948242188,-2.2350006103515625,2.7300033569335795,2.7299957275390767,6.560005187988281,6.459999084472656,-4.199996948242202,9.629997253417969,-18.32000732421875,7.0,5.0,03-01,0.17124931017557485
01-17,-4.269999504089354,-0.9250011444091903,2.2749977111816406,1.6049995422363281,-3.6599960327148438,2.105003356933608,3.6100006103515483,4.930000305175781,7.319999694824219,-2.059997558593764,4.80999755859375,-24.900009155273438,7.0,5.0,03-02,-0.7633337179819762
01-18,-4.779998779296875,-0.8150024414062536,2.409999847412095,0.6749992370605469,-4.034996032714844,3.910003662109375,4.769996643066406,7.980003356933594,6.599998474121108,-5.970001220703139,6.540000915527344,-21.440002441406236,7.0,5.0,03-03,-0.3462498982747399
01-19,-4.899999618530273,-0.6450023651123153,2.6100006103515554,1.7449989318847727,-3.9800033569335795,3.529998779296875,3.1899948120117188,7.730003356933594,5.790000915527344,-7.330001831054673,8.41000366210939,-20.580001831054673,7.0,5.0,03-04,-0.36916732788085554
01-20,-4.339999198913574,-0.095001220703125,3.325000762939446,1.8700027465820312,-3.5900039672851562,5.095001220703125,3.589996337890625,5.810005187988281,3.3799972534179545,-6.529998779296875,7.010002136230469,-21.5,7.0,5.0,03-05,-0.4979164600372332
01-21,-4.7699995040893555,1.9200000762939382,3.7949981689453196,2.0849990844726562,-3.2750015258789062,4.769996643066406,3.654998779296875,7.410003662109375,1.8199996948242472,-4.019996643066392,6.400001525878906,-17.93000030517578,8.0,4.0,03-06,0.15499997138977406
01-22,-4.185000419616699,1.4950008392333949,2.6300010681152273,1.645000457763679,-3.660003662109361,6.189994812011719,1.9949951171875142,7.139999389648423,0.9599990844726847,-1.7099990844726562,6.2000045776367045,-18.20000457763672,8.0,4.0,03-07,0.04166563351949263
01-23,-5.364999771118164,1.1049995422363281,2.104999542236321,1.0400009155273438,-3.9800033569335795,6.3249969482421875,3.8199996948242188,11.379997253417955,0.540000915527358,-2.2300033569335938,8.5,-18.300003051757827,8.0,4.0,03-08,0.4116654396057123
01-24,-4.714999198913574,1.2349987030029297,2.7600021362304616,1.0250015258788991,-4.264999389648423,9.26999664306642,2.0749969482421875,12.260002136230483,5.029998779296889,-3.9200057983398295,8.330001831054673,-23.159996032714858,8.0,4.0,03-09,0.4937498569488549
01-25,-4.674999237060547,0.9249992370605469,2.2350006103515625,0.5650024414062429,-4.370002746582031,8.44000244140625,2.2349929809570312,10.40000152587892,5.75,-5.19000244140625,6.339996337890625,-21.510002136230455,8.0,4.0,03-10,0.0954157511393247
01-26,-3.0799999237060547,1.8649997711181712,1.6300010681152344,0.8600006103515554,-1.3300018310546875,8.555000305175781,-0.07500457763671875,9.699996948242188,4.980003356933594,-6.069999694824219,5.930000305175753,-25.54999542236328,7.0,5.0,03-11,-0.21541659037272373
01-27,-3.110000610351559,2.0950012207031286,2.06500244140625,1.94000244140625,-1.1100006103515625,7.1599960327148295,-0.39000701904296875,9.479995727539077,0.910003662109375,-1.9199981689453125,7.600006103515597,-20.979995727539062,7.0,5.0,03-12,0.3116671244303368
01-28,-3.9999999999999964,2.3450012207031286,1.6099967956542969,1.6499977111816406,-0.43000030517578125,7.390007019042969,1.7199935913085795,10.19000244140625,0.05999755859375,-3.1100006103515625,7.4500045776367045,-27.05999755859375,8.0,4.0,03-13,-0.18208312988281428
01-29,-3.235000610351559,2.3050003051757812,1.6100006103515625,1.80999755859375,0.23000335693359375,7.0050048828125,-0.26500701904296875,7.7900009155273295,0.6500015258789062,-3.5,6.849998474121094,-26.449996948242188,8.0,4.0,03-14,-0.4333330790201832
01-30,-1.6200008392333984,2.320001602172855,1.779998779296875,2.4199981689453196,0.6450042724609375,6.2700042724609375,3.409996032714858,9.420005798339858,-0.29999542236328125,-3.30999755859375,6.279998779296889,-26.139999389648438,8.0,4.0,03-15,0.09791787465413855
01-31,-2.2450008392333984,2.4849987030029332,1.2600021362304688,2.049999237060547,1.8250045776367188,6.275001525878906,2.0900039672851705,9.150001525878892,4.029998779296861,-3.69000244140625,5.889999389648452,-29.93999481201172,9.0,3.0,03-16,-0.06833235422770152
02-01,-2.2750015258789062,2.5599994659423793,-0.24500274658202414,1.4099998474121094,0.834999084472642,8.855003356933594,3.1750030517578267,9.170005798339858,3.4800033569335795,-2.5800018310547017,3.910003662109375,-27.14999389648439,8.0,4.0,03-17,0.09541813532511186
02-02,-1.760000228881836,2.9800014495849574,0.18499755859375,1.9399986267089844,1.1800003051757955,9.545005798339844,1.7649993896484375,13.569999694824219,3.4599990844726562,-1.3300018310546875,3.769996643066392,-38.91999816894531,9.0,3.0,03-18,-0.3012501398722331
02-03,-1.004999160766598,3.345001220703118,-0.04000091552734375,1.2099990844726562,1.0800018310547017,10.545005798339844,1.370002746582017,11.5,2.6800003051758097,2.9499969482421875,4.689994812011719,-38.719993591308594,9.0,3.0,03-19,-0.03291591008503995
02-04,-0.739999771118157,4.085000991821282,0.6550025939941406,1.3549995422363352,0.9649963378906392,8.959999084472656,1.095001220703125,10.91000366210936,4.5699996948242045,1.2399978637695312,4.639999389648423,-49.61000061035156,10.0,2.0,03-20,-0.9895833333333351
02-05,-1.3349990844726491,3.1999988555908274,0.6850013732910156,1.7900009155273509,1.3199996948242188,8.970001220703125,-0.36499786376954546,16.52999877929686,5.650001525878906,1.8699951171875,3.809997558593736,-51.94000244140625,9.0,3.0,03-21,-0.8179170290629086
02-06,-2.0100002288818395,3.625,1.2350006103515696,1.5250015258789134,1.339996337890625,8.120002746582031,-2.345001220703125,19.25,4.560005187988281,-0.01000213623045454,4.720001220703125,-51.44000244140625,8.0,4.0,03-22,-0.9524998664855934
02-07,-2.2749996185302734,3.9000015258789134,1.0,1.4350013732910156,1.5199966430664062,6.100006103515639,1.1199951171875,19.23999786376953,4.239997863769517,-0.18000030517575283,5.970001220703125,-46.05000305175781,9.0,3.0,03-23,-0.33166710535684923
02-08,-1.1299991607666016,4.185001373291016,0.7749977111816406,1.2649993896484375,-0.795005798339858,5.595001220703139,-0.19500732421875,20.18999481201172,4.150001525878906,3.6499938964844034,7.779998779296875,-41.16999816894531,8.0,4.0,03-24,0.35833152135213453
02-09,-1.3349990844726562,3.1350002288818395,0.8950004577636648,1.0550003051757812,-1.69000244140625,4.640007019042969,-0.6650009155273295,18.849998474121108,4.1200027465820455,-1.0600051879882812,1.9700012207031108,-48.38999938964844,7.0,5.0,03-25,-1.5395830472310363
02-10,-0.2549991607666051,2.8400001525878906,0.3800010681152344,1.0649986267089844,-2.7300033569335938,4.470001220703139,-2.8899993896484517,18.5,4.080001831054702,-4.5,2.339996337890639,-38.839996337890625,7.0,5.0,03-26,-1.2949999173482238
02-11,-0.23999977111816762,2.6000003814697266,0.15000152587891336,1.2849998474121094,-2.6550064086914205,2.625,-2.8799972534179688,20.56999969482422,2.9800033569335795,-2.0500030517578125,3.6399993896484375,-36.239997863769545,7.0,5.0,03-27,-0.8512500127156608
02-12,-0.019998550415042615,2.1650009155273438,0.4750022888183594,2.1650009155273438,-1.205001831054716,2.325004577636733,-5.284996032714844,17.360000610351562,3.0100021362304545,-2.0699996948242188,2.470001220703125,-36.650001525878906,7.0,5.0,03-28,-1.2716654141744004
02-13,1.25,2.325000762939453,0.44499969482420454,2.329998016357429,-2.535003662109389,1.5900039672851705,-7.735000610351577,15.329994201660156,4.160003662109361,-2.649993896484389,2.19000244140625,-34.75,8.0,4.0,03-29,-1.5041662851969442
02-14,1.2099990844726598,2.170001983642578,1.0499992370605398,2.1300010681152344,-2.480003356933608,0.3150024414062358,-6.4449996948242045,15.77999877929686,4.1999969482421875,-4.409996032714844,2.8199996948242045,-30.389999389648438,8.0,4.0,03-30,-1.1708332697550494
02-15,1.2449989318847727,2.31500244140625,3.7900009155273438,2.4199981689453054,-2.9850006103515625,2.1100006103515625,-5.680000305175753,16.949996948242173,4.269996643066406,-4.279998779296861,2.6100006103515625,-34.33000183105469,8.0,4.0,03-31,-0.9637505213419573
02-16,1.2600002288818395,2.31500244140625,3.615001678466797,1.6899986267089844,-0.8850021362304972,3.4350051879882812,-5.155006408691392,18.27999877929686,4.0,-6.19000244140625,4.139999389648452,-33.410003662109375,8.0,4.0,04-01,-0.5754173596700042
02-17,2.5450000762939453,2.120000839233395,3.240001678466797,1.7849998474121094,-0.7750015258789205,5.025001525878906,-5.155006408691392,16.900001525878906,2.8600006103515483,-3.8000030517578125,5.489997863769531,-35.730003356933594,8.0,4.0,04-02,-0.4579175313313817
02-18,2.6900005340576136,1.970001220703125,2.5349998474121094,1.9150009155273366,-1.0100021362304972,5.334999084472642,-5.350006103515639,17.20999908447267,2.0800018310546875,-7.139999389648423,5.509994506835923,-39.44000244140625,8.0,4.0,04-03,-1.1412510871887251
02-19,3.0200004577636683,1.460000991821282,4.020000457763665,2.854999542236328,-1.4950027465820455,5.0999984741210795,-4.980003356933594,15.860000610351562,2.0800018310546875,-5.220001220703125,5.849998474121094,-39.62999725341797,8.0,4.0,04-04,-0.9233336448669472
02-20,4.690000534057621,2.2150001525878906,4.715000152587891,1.8549995422363281,0.6050033569335938,4.2549972534179545,-6.089996337890625,16.389999389648438,1.7699966430664062,-4.6100006103515625,4.8400039672851705,-39.470001220703125,9.0,3.0,04-05,-0.736249764760335
02-21,6.7400007247924805,2.424999237060547,4.645000457763665,1.8549995422363281,1.3199996948242188,3.75,-6.455001831054702,15.47000122070311,2.0,-4.830001831054702,4.450004577636733,-38.18000030517578,9.0,3.0,04-06,-0.5674998760223419
02-22,6.595000267028812,2.7649993896484446,4.675003051757805,1.9399986267089915,0.7899932861327983,4.619995117187472,-6.135002136230483,14.709999084472656,2.190002441406236,-5.069999694824219,3.559997558593764,-34.839996337890625,9.0,3.0,04-07,-0.35000077883402864
02-23,5.859999656677246,2.9999980926513565,4.930000305175781,1.7400016784667969,0.7149963378906392,2.275001525878892,-5.795005798339844,17.209999084472642,2.4000015258789062,-5.790000915527344,2.6399993896484375,-28.639999389648438,9.0,3.0,04-08,0.04541595776875577
02-24,5.159999847412109,2.674999237060536,5.230003356933594,1.125,0.5749969482422159,1.989997863769517,-5.319999694824247,16.400001525878906,1.959999084472642,-8.139999389648438,2.0800018310546875,-24.18000030517578,9.0,3.0,04-09,-0.03708330790202149
02-25,5.409999847412109,3.1949977874755753,4.319999694824219,1.6749992370605398,1.1749954223632955,2.459999084472642,-4.7699966430664205,15.069999694824205,3.6000061035155966,-7.9199981689453125,1.9599990844726562,-18.54000091552733,9.0,3.0,04-10,0.6362500190734816
02-26,5.679999351501467,3.1949996948242188,3.4799995422363352,0.6549987792968679,0.9900054931640767,1.2799987792968892,-4.854995727539077,12.449996948242188,3.340003967285142,-7.1699981689453125,3.4300003051757812,-18.0,9.0,3.0,04-11,0.37291741371154785
02-27,5.904999732971193,3.149999618530277,3.280002593994155,-0.4250030517578196,0.0,1.0,-3.5200042724609233,15.300003051757812,3.6100006103515625,-6.029998779296889,2.7300033569335938,-12.5,7.0,5.0,04-12,1.041666905085247
02-28,7.465000152587887,3.254999160766605,2.69000244140625,0.8050003051757812,0.0,-3.9300003051757812,-4.099998474121094,15.150001525878906,3.629997253417983,-3.160003662109361,2.9300003051757812,-11.099998474121108,7.0,5.0,04-13,1.1362500190734874
02-29,0.0,0.0,0.0,1.6450004577636719,0.0,0.0,0.0,16.41000366210936,0.0,0.0,0.0,-8.139999389648452,2.0,1.0,04-14,0.8262503941853817
03-01,7.545000076293942,3.47500038146973,2.2649993896484304,0.9399986267089844,1.400001525878892,-4.6199951171875,-4.055000305175781,14.650001525878906,2.7699966430664205,-1.8300018310546875,1.7599945068359233,-11.629997253417983,8.0,4.0,04-15,1.0558331807454397
03-02,7.045000076293942,3.455001831054684,2.129997253417976,2.1650009155273438,0.3300018310546875,-4.25,-4.8699951171875,14.900001525878906,3.6800003051758097,-0.20999908447265625,4.239997863769531,-12.51999664306642,8.0,4.0,04-16,1.3412508964538585
03-03,7.319999694824215,3.2850017547607457,1.2649993896484304,2.0499992370605398,-2.0749969482422017,-4.2649993896484375,-3.6349945068359233,13.930000305175795,3.0,-2.760002136230483,5.1100006103515625,-15.909996032714844,7.0,5.0,04-17,0.60958433151245
03-04,6.759999275207516,3.3000011444091832,1.9599990844726634,2.6399993896484304,-0.5199966430664205,-5.8300018310546875,-4.0349960327148295,12.020004272460966,3.220001220703111,-0.9900054931640767,7.040000915527344,-19.479995727539062,7.0,5.0,04-18,0.5070841312408447
03-05,7.979999542236325,3.220001220703132,2.56500244140625,3.3599967956542898,-1.910003662109375,-5.504997253417969,-4.089996337890611,11.979995727539048,4.190002441406236,0.31999969482420454,7.650001525878906,-14.169998168945312,8.0,4.0,04-19,1.2991669972737603
03-06,8.345000267028809,2.805002212524421,1.9350013732910156,4.029998779296875,-1.5250015258789205,-5.805000305175781,-2.6100006103515625,12.379997253417955,3.5400009155273153,-1.879997253417983,7.849998474121108,-12.549995422363295,7.0,5.0,04-20,1.376250346501663
03-07,7.895000457763672,3.324998855590813,2.8100013732910156,3.9599990844726634,-1.535003662109375,-4.220001220703139,-2.839996337890625,13.180000305175753,4.220001220703125,-1.8299942016601705,8.560005187988281,-4.100006103515611,7.0,5.0,04-21,2.4520837465922
03-08,6.844999313354489,3.430002212524414,2.154998779296875,2.7649993896484304,1.654998779296875,-0.4199981689453125,-2.3050003051757812,14.559997558593736,-1.8300018310546875,-2.2099990844726705,7.760002136230483,-6.310005187988281,7.0,5.0,04-22,2.1745827992757136
03-09,7.069999694824219,3.779998779296882,2.5449981689453125,4.115001678466797,1.904998779296875,-1.8800048828125,-2.6199951171875,13.790000915527344,2.0699996948242188,-8.010002136230469,8.559997558593764,-9.400001525878906,8.0,4.0,04-23,1.8270826339721697
03-10,5.695001602172852,3.3949985504150426,3.345001220703125,4.100002288818359,2.8850021362304688,-1.970001220703125,-0.6350021362304545,13.159996032714844,4.2800064086914205,-7.589996337890611,5.939994812011719,-11.910003662109375,8.0,4.0,04-24,1.7245833079020219
03-11,5.585000991821289,3.599998474121101,3.520000457763672,3.9600028991699148,3.5100021362304688,-0.6049957275390483,0.6100006103515767,5.25,3.2600021362304545,-7.580001831054702,6.319999694824247,-6.900001525878906,9.0,3.0,04-25,1.7108340263366724
03-12,4.870000839233398,3.0449981689453054,3.4000015258789062,4.4550018310546875,2.9199981689453125,-0.4550018310546875,-1.650001525878892,8.450004577636719,5.330001831054702,-10.69000244140625,5.489997863769531,0.1699981689453125,9.0,3.0,04-26,2.111249764760337
03-13,5.225000381469727,3.3899993896484304,2.795001983642578,4.930000305175774,1.7299957275390625,0.6949996948242188,-1.0149993896484517,7.860000610351577,8.139999389648438,-8.190002441406264,5.30999755859375,-3.6700057983398295,9.0,3.0,04-27,2.2666656176249176
03-14,6.260000228881836,3.1150016784667898,3.06500244140625,5.244998931884766,1.375,-0.03500366210938921,-3.3850021362304688,8.810005187988281,8.75,-7.160003662109389,6.959999084472656,10.319999694824205,9.0,3.0,04-28,3.6099998156229613
03-15,5.545000076293949,2.2350006103515554,3.3999977111816406,5.2649993896484375,2.8050003051757812,-1.4900054931640767,-4.6149978637695455,8.229995727539034,6.44000244140625,-6.4000015258789205,5.5,13.580001831054688,9.0,3.0,04-29,3.3745827674865665
03-16,5.150001525878906,2.6399993896484375,4.040000915527344,5.81500244140625,1.9149932861328125,-2.2450027465820312,-4.660003662109389,6.3799972534179545,6.860000610351548,-7.2300033569335795,6.8600006103515625,9.069999694824205,9.0,3.0,04-30,2.8829154968261683
03-17,5.074998855590824,2.0099983215332102,3.2199974060058594,5.600002288818359,2.9599990844726562,-1.4800033569335938,-2.5449981689452983,3.589996337890611,6.800003051757827,-5.25,6.160003662109361,13.259994506835923,9.0,3.0,05-01,3.283332665761312
03-18,4.564998626708984,2.5900001525878835,3.3400001525878906,5.389999389648445,3.0199966430664062,-2.1700057983398295,-3.7350006103515625,3.8699951171875,4.269996643066406,-7.3400039672851705,6.550003051757798,22.959999084472642,9.0,3.0,05-02,3.6091648737589495
03-19,4.5100002288818395,3.154998779296882,3.055000305175774,6.290000915527344,2.1650009155273438,-0.7700042724609233,-2.0,1.5,3.8899993896484375,-6.3000030517578125,4.569999694824219,19.319999694824205,9.0,3.0,05-03,3.282082716623942
03-20,4.670000076293945,2.4449996948242116,2.784999847412095,6.6300010681152415,2.095001220703125,-0.5600051879882812,-3.75,2.3499984741210795,3.9000015258789062,-8.139999389648438,4.650001525878906,11.110000610351562,9.0,3.0,05-04,2.348749955495196
03-21,3.5100002288818395,2.8999977111816335,1.7700004577636648,6.525001525878913,3.9550018310547017,-1.2399978637695455,-0.9399948120117188,0.6100006103515625,4.719993591308608,-8.239997863769545,2.8300018310546875,15.5,9.0,3.0,05-05,2.658333937327067
03-22,4.75,1.4949989318847514,1.1500015258789062,7.115001678466804,6.254997253417969,0.9849929809570312,-0.6999969482421875,-1.25,4.949996948242202,-5.599998474121108,10.069999694824247,14.330001831054688,9.0,3.0,05-06,3.6291662851969417
03-23,4.3850002288818395,0.7099990844726491,1.0550003051757812,6.774997711181641,9.194999694824219,1.339996337890625,-2.4249954223632812,-0.5500030517578125,4.579994201660156,-4.5200042724609375,10.56999969482419,15.769996643066406,9.0,3.0,05-07,3.9070817629496233
03-24,4.670000076293945,1.0200004577636648,0.8549995422363281,5.129997253417969,8.93499755859375,1.1299972534179688,-1.7200012207031392,-0.3600006103515767,6.099998474121094,-5.529998779296875,9.23000335693358,6.75,9.0,3.0,05-08,3.0174994468688925
03-25,4.524999618530277,1.3899993896484304,0.3999977111816406,5.744998931884766,9.665000915527344,2.9350051879882812,-0.2050018310546875,-0.8199996948242188,6.7399978637695455,-5.720001220703125,7.400001525878892,3.0900039672851562,9.0,3.0,05-09,2.928750197092692
03-26,3.6100006103515625,-0.6599998474121094,0.5050010681152415,5.54999923706054,10.550003051757827,4.165000915527358,0.375,-1.090003967285142,4.6100006103515625,-5.25,5.659996032714844,-0.9599990844726562,8.0,4.0,05-10,2.255416552225752
03-27,3.4650001525878906,-0.9850006103515625,0.9500007629394602,5.100002288818359,10.860000610351562,4.605003356933608,0.9749984741210938,-1.9599990844726705,4.029998779296875,-4.860000610351577,3.9399948120117188,5.3600006103515625,9.0,3.0,05-11,2.62333329518636
03-28,3.9250011444091726,0.664997100830071,1.2000007629394602,5.580001831054695,10.599998474121108,2.7350006103515625,2.279998779296861,-0.6699981689453125,2.8799972534179688,-2.9199981689453267,2.2999954223632812,6.060005187988281,10.0,2.0,05-12,2.886250019073485
03-29,3.3350009918212855,0.33499908447265625,-0.29999923706053977,5.125,9.879997253417969,1.5799942016601705,1.4199981689452983,-3.1500015258789062,2.0800018310546875,-4.5499954223632955,0.009994506835909078,4.5,9.0,3.0,05-13,1.6887491544087696
03-30,3.4099998474121023,0.7949981689453125,-2.970001220703118,4.965000152587898,9.985000610351562,2.9749984741210938,0.0,-4.480003356933594,2.6199951171875,-2.1500015258789205,-1.980003356933608,1.7099990844726562,7.0,5.0,05-14,1.2399984995524072
03-31,2.4949989318847656,1.1199989318847727,-2.6100006103515554,3.7550010681152415,9.525001525878906,2.1349945068359233,-0.06999969482420454,-4.0699996948242045,2.3799972534179688,-7.830001831054702,-2.970001220703125,0.6399993896484375,7.0,5.0,05-15,0.37499904632568537
04-01,1.2099990844726598,0.5699996948242188,-2.6949996948242188,2.720001220703132,11.324996948242188,-0.04000091552734375,0.46999359130860796,-5.6200027465820455,2.040000915527358,-5.290000915527358,-2.660003662109361,4.349998474121094,7.0,5.0,05-16,0.5316651662190776
04-02,-0.07999992370605469,-0.06999969482421164,-4.00999832153321,2.25,11.389999389648452,-0.34999847412107954,0.909996032714858,-5.490005493164034,2.9000015258789062,-5.230003356933608,-2.2999954223632812,3.5099945068359375,5.0,7.0,05-17,0.28583256403605617
04-03,-1.0750007629394567,-0.9150009155273509,-3.934997558593757,3.0349998474121094,11.875,-0.4049987792968892,2.2900009155273438,-4.029998779296861,2.3300018310546875,-6.680000305175781,-2.6399993896484517,5.540000915527344,5.0,7.0,05-18,0.4491672515869114
04-04,-1.034999847412113,-0.3999977111816406,-4.5349998474121165,3.9150009155273438,11.285003662109375,-1.5649948120117188,3.7399978637695312,-5.180000305175753,0.7100067138671875,-7.290000915527344,-3.059997558593764,0.29000091552734375,5.0,7.0,05-19,-0.2604150772094724
04-05,-0.09499931335449574,-0.6450004577636719,-3.634998321533203,2.729999542236328,11.910003662109375,1.1449966430664062,3.3549957275390625,-5.040000915527344,0.48000335693359375,-8.169998168945312,-2.0400009155273438,5.220001220703125,6.0,6.0,05-20,0.43458350499471
04-06,0.19499969482421164,-1.6199989318847727,-3.6650009155273438,2.299999237060547,13.694999694824205,1.4849929809570312,2.885002136230483,-5.69000244140625,0.2100067138671875,-4.9799957275390625,-2.6300048828125,6.590003967285156,7.0,5.0,05-21,0.7312501271565743
04-07,1.3500003814697266,-1.5449981689453054,-3.4949989318847656,1.654998779296882,12.805000305175767,1.30999755859375,2.0149993896484233,-4.220001220703125,-0.6600036621093608,-4.660003662109361,-6.660003662109389,4.900001525878892,6.0,6.0,05-22,0.23291571935017785
04-08,1.3150005340576136,-1.7849998474121094,-3.204998016357422,2.645000457763672,13.745002746582017,2.3349990844726562,1.3999938964843892,-6.19000244140625,0.94000244140625,-4.5800018310546875,-5.400001525878906,2.6399993896484233,7.0,5.0,05-23,0.3216662406921372
04-09,0.26499938964844105,-3.5599994659423793,-3.444999694824226,2.5050010681152273,12.450004577636719,0.7399978637695312,0.2949981689453125,-5.470001220703125,0.6299972534179688,-6.7700042724609375,-5.799995422363281,-1.1800003051757955,6.0,6.0,05-24,-0.7783335049947121
04-10,0.18499946594238637,-3.10000038146973,-4.139999389648445,4.355003356933587,11.444999694824219,3.6049957275390625,-0.285003662109375,-5.25,0.909996032714858,-7.650001525878906,-6.4199981689453125,2.309997558593736,6.0,6.0,05-25,-0.33625094095866004
04-11,-0.5500011444091726,-3.6800003051757777,-4.5050010681152415,3.1300010681152273,9.970001220703125,4.674995422363281,-0.18000030517579546,-3.9199981689452983,0.8800048828124716,-6.569999694824219,-6.0399932861328125,1.4099960327148438,5.0,7.0,05-26,-0.4483329455057807
04-12,-0.25,-3.33499908447266,-3.2150001525878835,1.9850006103515554,10.650001525878906,3.8950042724609233,-0.1999969482421875,-4.620002746582017,1.8800048828124716,-7.3300018310546875,-7.1199951171875,2.5,5.0,7.0,05-27,-0.4299987157185899
04-13,-0.055000305175774145,-3.7350006103515625,-2.4699974060058594,2.5400009155273366,12.70999908447267,5.150001525878906,-1.43499755859375,-5.910003662109375,2.5200042724609233,-7.290000915527344,-9.650001525878906,6.319999694824219,5.0,7.0,05-28,-0.1087497075398763
04-14,-0.15999984741210582,-3.825000762939453,-2.579998016357429,3.6499977111816406,12.694999694824233,4.779998779296889,0.589996337890625,-6.190002441406264,1.5500030517577983,-9.269996643066406,-8.720001220703125,9.55999755859375,6.0,6.0,05-29,0.17333285013834607
04-15,-0.3149986267089808,-3.9350013732910227,-2.6599998474121094,3.1399993896484375,12.944999694824233,5.8600006103515625,0.9349975585937358,-7.029998779296875,1.5200042724609375,-8.3699951171875,-8.959999084472642,13.8699951171875,6.0,6.0,05-30,0.583333651224773
04-16,-1.1499996185302734,-3.6500015258789134,-2.145000457763672,4.099998474121094,11.27500152587892,4.309997558593764,1.1949996948242188,-8.050003051757798,1.8499984741210795,-10.729995727539062,-11.220001220703125,13.449996948242188,6.0,6.0,05-31,-0.06375074386596502
04-17,-0.6000003814697266,-2.5550003051757812,-1.7949981689453125,1.9600028991699148,12.350006103515625,0.39499664306640625,1.6050033569335938,-7.150001525878906,1.0900039672851562,-11.650001525878906,-10.209999084472656,9.330001831054673,6.0,6.0,06-01,-0.6024988492329933
04-18,0.6400012969970703,-3.0649986267089773,-1.345001220703125,1.8950004577636648,8.225006103515625,2.2300033569335938,0.6050033569335938,-8.069999694824219,1.6200027465820455,-11.760002136230455,-12.680000305175781,10.569999694824219,7.0,5.0,06-02,-0.9279154141743954
04-19,1.4250011444091832,-3.8299980163574148,-3.1899986267089915,0.6300010681152273,7.3600006103515625,2.535003662109375,0.6750030517578125,-8.569999694824205,1.3600006103515625,-8.209999084472656,-10.0,12.270004272460952,7.0,5.0,06-03,-0.6287484169006327
04-20,1.220001220703125,-2.8400001525878835,-3.8899993896484446,1.0750007629394602,5.029998779296875,2.8950042724609375,0.285003662109375,-8.089996337890625,-0.01000213623048296,-7.950004577636733,-12.58999633789061,16.419998168945312,6.0,6.0,06-04,-0.7037493387858079
04-21,0.4799995422363281,-2.8799972534179688,-3.9399986267089915,-1.0250015258788991,5.7949981689453125,2.5900039672851562,1.4700012207031392,-2.279998779296889,3.220001220703139,-6.869995117187472,-9.459999084472642,23.669998168945312,6.0,6.0,06-05,0.8975009918212938
04-22,0.2599983215332031,-2.759998321533196,-3.6300010681152344,-1.6200027465820241,5.004997253417969,3.75,1.7950057983398438,-4.990005493164034,2.4099960327148295,-6.449996948242173,-5.529998779296861,21.610000610351562,6.0,6.0,06-06,0.8208328882853237
04-23,0.5749988555908203,-3.654998779296875,-4.25,-1.0100021362304545,2.595001220703125,3.779998779296875,2.0550003051758097,-4.930000305175781,0.34999847412107954,-6.3799972534179545,-5.270004272460952,21.160003662109375,6.0,6.0,06-07,0.41833321253458894
04-24,-0.22999954223632812,-4.465000152587891,-4.665000915527344,-0.0950012207031179,2.5050048828125,4.675003051757827,2.730003356933608,-4.479995727539048,0.3699951171874716,-1.839996337890625,-4.290000915527344,18.38000488281253,5.0,7.0,06-08,0.7162513732910197
04-25,0.5050010681152308,-5.100000381469723,-3.875,-1.1800003051757741,1.5400009155273438,5.084999084472685,3.8899993896484375,-4.8300018310546875,-2.970001220703125,-3.9499969482421733,-3.1800003051757812,17.9499969482422,5.0,7.0,06-09,0.3237497011820529
04-26,0.13000106811523082,-4.295000076293949,-4.760002136230469,-1.7050018310546804,3.1700057983398438,6.7299957275390625,3.625,-2.6000061035155966,-2.6300048828125,-3.7699966430664205,-4.819999694824247,17.400001525878906,5.0,7.0,06-10,0.5395827293395984
04-27,0.7450008392333984,-3.524999618530277,-4.575000762939453,-1.5400009155273438,3.9499969482421875,6.819999694824219,4.199996948242202,-2.0400009155273153,-3.44000244140625,-4.8800048828125,-3.1200027465820455,15.419998168945312,5.0,7.0,06-11,0.6679150263468445
04-28,1.0049991607666016,-4.004999160766605,-4.845001220703125,-0.7799987792968821,3.625,7.165000915527344,5.560005187988281,-1.8199996948242045,-1.9199981689453125,-1.7299957275390483,-2.720001220703125,17.550003051757827,5.0,7.0,06-12,1.4237511952718125
04-29,0.5650005340576136,-4.664999008178722,-4.704998016357429,-1.6399993896484446,2.4399948120117188,6.300003051757798,4.8550033569335795,0.04000091552734375,0.470001220703125,-1.9499969482421733,-0.26000213623046875,13.16000366210939,7.0,5.0,06-13,1.2175010045369443
04-30,0.6000003814697266,-3.5250015258789062,-5.009998321533196,-0.5449981689453196,1.904998779296875,5.990005493164034,5.160003662109361,-2.0,0.6800003051757812,-2.3499984741210795,-0.510002136230483,18.209999084472656,6.0,6.0,06-14,1.5504174232482875
05-01,0.7150001525878906,-3.249999999999993,-5.145000457763665,-2.5649986267089844,2.875,6.4800033569335795,4.720001220703139,-3.5499954223632812,2.1100006103515625,-3.619995117187514,1.519996643066392,11.559997558593764,7.0,5.0,06-15,0.9875008265177408
05-02,-0.6849994659423864,-3.604999542236328,-4.314998626708977,-2.6399993896484446,1.2350006103515625,4.200004577636719,4.1100006103515625,-4.1599960327148295,2.029998779296875,-2.409996032714858,0.22999572753903408,14.799995422363267,6.0,6.0,06-16,0.7325005531310996
05-03,-1.260000228881836,-2.8499984741210938,-4.064998626708984,-2.6449966430664062,1.4950027465820312,4.190002441406264,2.9150009155273438,-2.8799972534179545,2.3000030517577983,-1.659996032714858,-0.7199935913085795,16.369995117187514,5.0,7.0,06-17,0.9325019518534367
05-04,-1.7150001525878906,-0.9650001525878835,-3.2099990844726562,-1.954998016357429,1.035003662109375,3.565002441406264,3.4850006103515625,-1.9699935913085795,1.6100006103515625,-2.44000244140625,0.26000213623045454,17.930000305175795,6.0,6.0,06-18,1.3025013605753604
05-05,-1.264999389648441,-0.4650001525878835,-3.1349983215332102,-1.3800010681152344,2.1750030517578125,3.309997558593736,5.879997253417969,-1.959999084472642,0.7600021362304545,-0.8300018310547017,-1.3600006103515625,16.60000610351564,5.0,7.0,06-19,1.527500470479328
05-06,-1.3449993133544922,0.8950004577636719,-3.1399993896484375,-1.0600013732910156,2.4050064086914062,4.05999755859375,5.644996643066406,-1.349998474121108,2.7300033569335938,-1.2099990844726562,-1.6100006103515625,16.069999694824233,6.0,6.0,06-20,1.8408338228861492
05-07,-0.24499893188476562,1.1850013732910227,-3.2649993896484375,-0.3600006103515625,0.47499847412109375,2.424995422363267,4.214996337890625,0.7399978637695455,2.6800003051757812,-2.0800018310547017,1.2000045776367188,14.510002136230483,8.0,4.0,06-21,1.789999643961589
05-08,-0.8900012969970703,-0.2149963378906108,-2.924999237060547,-0.2350006103515554,-0.4850006103515625,3.654998779296875,3.284996032714858,0.9799957275390767,2.3499984741210938,-1.5400009155273438,1.6400070190429688,12.439994812011719,6.0,6.0,06-22,1.504999319712325
05-09,-0.3600006103515625,-0.1399993896484304,-1.7749977111816406,0.04999923706053977,0.125,3.3000030517577983,3.6350021362304545,0.6199951171875284,2.8300018310546875,-1.9100036621093608,2.7800064086914205,13.300003051757812,8.0,4.0,06-23,1.8712507883707705
05-10,-0.9400005340576207,-0.7749977111816335,-2.0200004577636648,0.154998779296875,-2.0250015258789062,2.5800018310546875,4.504997253417969,-0.9200057983398295,2.8300018310546875,-0.970001220703125,2.9500045776367188,13.25,6.0,6.0,06-24,1.5516664187113465
05-11,-1.0150012969970703,-0.6650009155273366,-1.125,-1.3850021362304759,-2.1550064086914062,2.4799957275390767,4.625,0.3899993896484517,3.220001220703125,3.870002746582017,4.819999694824219,13.270004272460923,7.0,5.0,06-25,2.1941660245259604
05-12,-0.3599987030029297,-1.2700004577636648,-0.9850006103515554,0.5349998474121094,-3.2650070190429688,1.80999755859375,5.7249984741210795,0.31999969482424717,3.4499969482421733,2.4499969482421875,5.650001525878906,14.249999999999986,8.0,4.0,06-26,2.35916535059611
05-13,0.5400009155273402,-0.8400001525878906,-0.7299995422363352,-0.895000457763679,-2.69000244140625,3.3700027465820455,5.270004272460923,4.520004272460923,2.6999969482421875,2.1399993896484375,5.019996643066406,17.639999389648423,8.0,4.0,06-27,3.0037501653035448
05-14,0.2800006866455078,-0.9899978637695241,-0.7299995422363281,-0.14000320434571023,-3.904998779296875,3.9550018310546875,3.5699996948242188,-5.430000305175781,2.839996337890625,2.8600006103515625,3.970001220703111,15.90999603271483,7.0,5.0,06-28,1.8491663932800269
05-15,0.8199996948242188,-1.5850009918212855,-0.8300018310546875,0.6500015258789062,-3.7350006103515625,4.919998168945327,1.8899993896484233,-9.47000122070314,2.5099945068359233,2.0800018310546875,3.589996337890639,15.849998474121094,8.0,4.0,06-29,1.3908321062723787
05-16,-0.2550010681152344,-1.6150016784667969,-0.0800018310546875,0.8650016784667969,-3.2750015258789062,3.6100006103515625,2.545005798339858,-7.600006103515611,3.6599960327148438,1.6100006103515625,2.6100006103515625,10.290000915527344,7.0,5.0,06-30,1.0304161707560244
05-17,-0.1100006103515625,-2.5600013732910156,0.8600006103515625,2.31500244140625,-4.904998779296875,4.0050048828125,-0.48499298095703125,-4.520004272460966,5.589996337890625,0.6999969482421875,4.120002746582031,12.090003967285142,7.0,5.0,07-01,1.4250008265177374
05-18,-0.09000015258789062,-2.6099987030029332,0.029998779296875,2.970001220703118,-5.3249969482421875,7.0550003051757955,-0.7449951171875,-3.9000015258789205,5.680000305175781,0.7700042724609233,8.97000122070314,14.20999908447267,7.0,5.0,07-02,2.2512510617574057
05-19,-0.379999160766598,-1.9750003814697301,0.10499954223632812,3.290000915527351,-4.30999755859375,6.410003662109375,-0.27500152587892046,-3.1500015258789205,2.9199981689453125,-1.2999954223632812,10.889999389648438,12.83999633789064,6.0,6.0,07-03,2.08875020345052
05-20,-0.7999992370605469,-0.5750007629394602,0.5449981689453125,3.290000915527351,-4.30999755859375,6.584999084472656,0.2550048828125,-3.720001220703139,3.2300033569335938,-1.2999954223632812,10.889999389648438,10.069999694824247,7.0,5.0,07-04,2.0133342742919935
05-21,-0.06499862670898793,-1.1399993896484375,2.0649986267089844,2.579998016357422,-4.930000305175781,5.845001220703125,0.10500335693360796,-2.279998779296875,3.5400009155273438,-2.3499984741210938,9.089996337890625,10.97000122070314,7.0,5.0,07-05,1.952500343322756
05-22,-0.4250011444091726,-0.23999977111816762,2.5949974060058594,2.80999755859375,-4.2350006103515625,6.254997253417983,1.904998779296875,-1.910003662109375,4.19000244140625,-0.839996337890625,9.609992980957031,10.169998168945312,7.0,5.0,07-06,2.49041525522868
05-23,-1.4349994659423864,-0.4799995422363317,2.4149971008300852,2.039997100830078,-3.8899993896484375,4.724998474121094,2.5500030517578125,-3.779998779296875,3.9800033569335795,-0.7099990844726562,11.269996643066406,9.069999694824219,7.0,5.0,07-07,2.1462499300638824
05-24,-1.0,-0.4849987030029297,3.2900009155273366,0.3400001525878835,-3.6200027465820312,6.020004272460923,1.7399978637695312,-4.790000915527358,3.7399978637695455,-0.5,11.330001831054688,9.879997253417955,7.0,5.0,07-08,2.1620831489562953
05-25,-1.7000007629394531,0.4249992370605504,2.5900001525878835,1.154998779296882,-2.4550018310546875,5.130004882812472,1.6999969482422017,-5.349998474121094,3.7699966430664062,-0.590003967285142,10.449996948242173,8.419998168945312,8.0,4.0,07-09,1.9620822270711253
05-26,-1.6000003814697301,0.6049995422363281,2.7050018310546804,0.2350006103515625,-2.0500030517578125,4.340003967285142,-0.26000213623046875,-4.729995727539077,2.8100051879882812,1.9599990844726562,8.869995117187472,6.470001220703125,8.0,4.0,07-10,1.6129171053568465
05-27,-0.9950008392333984,-1.009998321533196,2.7849998474121165,-0.8649978637695241,-0.40000152587890625,4.850006103515611,-1.470001220703125,-5.569999694824219,4.519996643066406,2.8799972534179688,8.430000305175753,4.120002746582031,6.0,6.0,07-11,1.4395836194356264
05-28,-1.135000228881836,0.09000015258789062,1.710002899169929,-1.4799995422363281,-0.6450042724609375,3.785003662109375,-1.8100051879882812,-1.3600006103515625,4.5,3.7600021362304545,7.900001525878892,3.8300018310546875,7.0,5.0,07-12,1.5954168637593569
05-29,-1.1800003051757777,1.0400009155273438,0.7849998474121094,-2.1100006103515696,-0.5300064086914062,3.410003662109375,-1.8050003051757812,-1.0699996948242188,4.489997863769531,2.7099990844726562,8.230003356933594,3.410003662109375,7.0,5.0,07-13,1.4483334223429358
05-30,-2.0500011444091832,0.6199989318847692,0.5750007629394531,-0.69000244140625,-0.13500213623046875,2.8899993896484375,0.38500213623046875,1.0199966430664205,5.359992980957031,2.3199996948242188,8.170005798339858,3.6699981689452983,9.0,3.0,07-14,1.8445823987325045
05-31,-1.2350006103515625,1.3950004577636719,0.6150016784667969,-1.2800025939941548,2.2099990844726562,2.8499984741210938,2.0149993896484375,1.7900009155273438,5.4799957275390625,2.8300018310546875,11.349998474121094,6.009994506835909,10.0,2.0,07-15,2.835832277933753
06-01,-0.9549999237060582,0.9899978637695241,1.5849990844726634,0.8500022888183594,1.2949981689453125,2.8300018310547017,3.095001220703125,1.4899978637695312,2.67999267578125,1.829994201660142,9.260002136230469,8.34999847412108,11.0,1.0,07-16,2.7749988238016754
06-02,0.2349987030029368,-0.10500335693360796,1.8800010681152344,2.7849998474121094,0.9250030517578125,1.6149978637695312,2.8550033569335938,1.2700042724609233,1.9800033569335938,1.5599975585937358,9.930000305175781,8.10000610351564,11.0,1.0,07-17,2.7525010108947736
06-03,0.7500000000000036,0.2799987792968679,1.7599983215332031,2.180000305175774,-0.15000152587890625,2.0349960327148438,1.9850006103515483,0.959999084472642,4.440002441406236,-0.05999755859373579,10.069999694824219,3.940002441406264,10.0,2.0,07-18,2.3491665522257468
06-04,0.5499992370605504,1.404998779296882,2.7849998474121094,3.180000305175774,1.6500015258789062,0.964996337890625,2.595001220703111,1.1499938964843608,4.599998474121094,2.9800033569335938,4.900001525878906,4.5,12.0,0.0,07-19,2.604999542236326
06-05,2.1149997711181676,0.9699993133544886,2.3050003051757812,2.6000022888183594,3.43499755859375,1.3199996948242045,-2.495002746582017,1.1800003051757528,4.589996337890639,4.25,4.260002136230469,1.3100051879882812,11.0,1.0,07-20,2.15333334604899
06-06,2.6350002288818395,0.8150005340576101,2.569999694824226,1.19000244140625,2.7949981689453125,1.3850021362304688,-2.25,0.2599945068359091,5.220001220703139,2.8199996948242188,3.6200027465820455,-1.5200042724609517,10.0,2.0,07-21,1.628333091735839
06-07,3.0799999237060582,2.0599994659423793,1.8349990844726562,0.8050003051757884,2.5400009155273438,2.220001220703125,-3.2000045776367045,2.2600021362304688,5.75,3.660003662109375,3.010002136230483,-4.010002136230469,10.0,2.0,07-22,1.6675001780192087
06-08,3.0699996948242188,1.3350009918212926,2.450000762939453,4.1399993896484375,2.4449996948242188,1.8199996948242188,-5.840003967285142,-0.9199981689453267,5.680000305175781,2.2399978637695312,3.1200027465820455,-3.2399978637695312,9.0,3.0,07-23,1.3583334287007665
06-09,2.6149997711181605,1.4450016021728551,2.0449981689453196,5.944999694824219,2.7299957275390625,2.5,-6.535003662109375,-0.40000152587890625,-3.2099990844726562,1.0699996948242188,2.559997558593764,0.26000213623046875,9.0,3.0,07-24,0.9187491734822609
06-10,2.75,0.7400016784667969,2.9350013732910156,4.395000457763672,2.4300003051757812,2.2549972534179688,-7.850006103515611,-0.650001525878892,-3.769996643066392,0.48000335693359375,4.569999694824219,2.6399993896484375,9.0,3.0,07-25,0.9104166030883825
06-11,2.64999961853027,0.6100006103515554,2.5500030517578196,3.299999237060554,2.5900039672851562,2.3549957275390767,-8.90500640869142,-0.04000091552732954,-4.75,2.120002746582017,1.25,12.120002746582017,9.0,3.0,07-26,1.3208333651224764
06-12,3.6700000762939453,1.7900009155273366,2.3550033569335938,1.6699981689453196,3.06500244140625,3.3649978637695312,-10.995002746582045,-1.1000061035156108,-3.029998779296875,5.75,1.1100006103515767,9.200004577636733,9.0,3.0,07-27,1.404166698455813
06-13,4.290000915527347,2.0649986267089773,1.375,2.7899971008300852,0.904998779296875,2.875,-12.180000305175781,-0.9300003051757528,-4.819999694824219,5.979995727539077,1.1899948120117188,7.3600006103515625,9.0,3.0,07-28,0.9083321889241575
06-14,4.415000915527347,2.365001678466797,-0.25,2.8649978637695455,2.4499969482421875,2.9249954223632812,-13.040000915527344,-0.9900054931640625,-4.75,5.319999694824219,1.5899963378906392,7.030006408691392,8.0,4.0,07-29,0.8274990717570002
06-15,4.284999847412109,1.6299972534179616,0.5149993896484375,2.045001983642578,0.5,2.8249969482421733,-8.510002136230469,-0.5300064086914205,-4.569999694824219,5.2800064086914205,3.0100021362304545,5.380004882812486,9.0,3.0,07-30,0.9883333841959594
06-16,4.405000686645504,1.1499977111816335,0.44499969482421875,2.8199996948242188,2.529998779296875,0.9850006103515625,-7.430000305175781,-0.8700027465820312,-5.010002136230469,4.440002441406236,3.5,5.650001525878892,9.0,3.0,07-31,1.0512496630350716
06-17,4.319999694824215,1.3399963378906108,-0.09999847412109375,3.1049995422363352,2.470001220703125,0.9599990844726705,-8.099998474121094,-2.6999969482421875,-5.0800018310546875,4.739997863769517,4.029998779296875,5.5400009155273295,8.0,4.0,08-01,0.877083142598468
06-18,4.470001220703125,1.0799980163574148,-0.6150016784667969,2.3400001525878906,1.93499755859375,0.4199981689453125,-9.239997863769545,-3.7099990844726562,-5.8600006103515625,5.660003662109375,2.7099990844726562,5.9900054931640625,8.0,4.0,08-02,0.4316670099894188
06-19,5.795000076293942,1.3300018310546804,-0.7649993896484375,0.9399986267089915,3.1350021362304688,0.6049957275390625,-8.780006408691392,-3.75,-6.0,5.600006103515639,1.7299957275390625,4.479995727539077,8.0,4.0,08-03,0.35999917984009117
06-20,6.670000076293949,2.1550025939941406,-1.8549995422363281,1.0099983215332102,5.180000305175781,-3.1050033569335938,-9.790000915527358,-4.729995727539077,-4.569999694824219,4.590003967285156,2.1999969482422017,3.9800033569335938,7.0,5.0,08-04,0.14458386103312146
06-21,7.579999923706058,1.604999542236321,-2.545001983642578,2.819999694824226,6.930000305175781,-2.9899978637695455,-10.299995422363267,-3.7299957275390767,-4.470001220703125,5.4300003051757955,-0.40000152587890625,3.709999084472642,6.0,6.0,08-05,0.30333375930786044
06-22,7.690000534057621,2.6699981689453125,-2.549999237060554,1.7249984741210866,7.840003967285156,-1.875,-11.629997253417969,-3.4799957275390767,-4.3600006103515625,3.9000015258789062,-2.7300033569335938,4.120002746582031,6.0,6.0,08-06,0.11000076929727982
06-23,7.80000114440918,2.8899993896484304,-2.1850013732910085,3.93499755859375,7.605003356933594,-3.0799942016601705,-11.700004577636719,-6.8899993896484375,-6.010002136230469,5.839996337890639,-5.94000244140625,7.970001220703139,6.0,6.0,08-07,0.019582907358806523
06-24,7.069999694824222,3.884998321533203,-4.740001678466797,4.284999847412109,7.370002746582031,-2.0699996948242188,-11.3800048828125,1.3699951171875,-5.809997558593736,5.209999084472656,-5.9199981689453125,9.78000640869142,7.0,5.0,08-08,0.7541666030883816
06-25,6.635000228881836,3.64999961853027,-4.540000915527351,5.094997406005859,6.629997253417969,-2.7900009155273438,-11.150001525878892,5.7399978637695455,-5.680000305175781,4.849998474121094,-3.4099960327148438,8.890007019042969,7.0,5.0,08-09,1.159999847412111
06-26,6.295000076293942,3.3300018310546875,-7.005001068115234,4.135002136230469,6.0449981689453125,-1.845001220703125,-12.800003051757827,5.790000915527358,-7.4199981689453125,3.4199981689453125,-2.6699981689453125,9.300003051757798,7.0,5.0,08-10,0.5479168891906724
06-27,6.170000076293949,3.4399986267089773,-4.825000762939446,3.8149986267089844,6.029998779296875,-3.3649978637695312,-11.060005187988281,5.68000030517581,-7.119995117187472,4.1399993896484375,-3.029998779296875,9.76999664306642,7.0,5.0,08-11,0.8037495613098207
06-28,5.614999771118164,3.2249984741210866,-7.700000762939446,3.8050003051757812,7.709999084472656,-4.964996337890639,-8.370002746582031,4.130004882812472,-7.699996948242173,3.529998779296875,-0.05999755859375,11.799995422363281,7.0,5.0,08-12,0.9183335304260231
06-29,5.645000457763668,3.0250015258789062,-8.040000915527337,2.625,6.625,-5.485000610351577,-10.569999694824219,2.2000045776367188,-6.279998779296861,5.4799957275390625,-3.299995422363267,16.9499969482422,7.0,5.0,08-13,0.7395836512247748
06-30,5.814998626708988,3.320001602172855,-8.86500167846679,3.0600013732910156,6.4499969482421875,-5.309997558593764,-10.69000244140625,0.5400009155273295,-8.629997253417969,4.779998779296875,-6.079994201660156,14.930000305175753,7.0,5.0,08-14,-0.05666621526082712
07-01,5.875,3.000001907348633,-8.46999740600586,2.720001220703125,7.159996032714844,-3.4250030517578267,-12.470001220703125,0.2200012207031108,-9.879997253417969,3.4000015258789062,-5.5400009155273295,14.639999389648423,7.0,5.0,08-15,-0.23083321253458897
07-02,6.689998626708988,3.1399993896484446,-8.21500015258789,1.8900032043457031,6.644996643066406,-3.1500015258789205,-11.8800048828125,1.3399963378906108,-8.050003051757798,4.1699981689453125,-7.8699951171875,11.919998168945298,7.0,5.0,08-16,-0.28083451588948716
07-03,6.44000053405761,2.8749980926513636,-7.434997558593757,2.2750015258789134,6.3899993896484375,-4.075004577636733,-11.580001831054688,1.80999755859375,-7.669998168945327,5.029998779296875,-8.860000610351562,8.93000030517581,7.0,5.0,08-17,-0.4891672134399423
07-05,4.9750003814697195,3.5899982452392614,-8.094997406005866,1.970001220703118,3.1750030517578125,-3.055000305175753,-10.83999633789061,0.9399948120117188,-6.940002441406264,4.220001220703111,-8.33999633789061,9.040000915527358,7.0,5.0,08-19,-0.7799994150797506
07-06,4.965000152587891,3.3449993133544886,-8.604999542236321,2.2350006103515625,2.6800003051757812,-2.305000305175753,-10.529998779296875,0.6199951171875,-6.310005187988281,4.900001525878906,-5.6599960327148295,8.810005187988281,7.0,5.0,08-20,-0.4879164695739708
07-07,5.905000686645504,2.0900001525878906,-9.034999847412116,3.4399986267089773,1.7900009155273438,-1.875,-12.559997558593764,0.55999755859375,-8.319999694824219,4.5,-4.759994506835909,10.220001220703125,7.0,5.0,08-21,-0.6704160372416181
07-08,5.805000305175781,1.5,-10.854999542236335,2.8950004577636648,2.8700027465820312,-1.3600006103515625,-10.599998474121094,-2.5500030517578125,-8.900001525878906,5.810005187988281,-6.079994201660156,12.169998168945312,6.0,6.0,08-22,-0.7745825449625663
07-09,5.659999847412109,0.48499679565428977,-10.694999694824219,2.0499992370605398,1.2900009155273438,-1.8700027465820312,-10.139999389648438,-1.8799972534179688,-8.590003967285156,7.160003662109375,-5.240005493164034,13.55999755859375,6.0,6.0,08-23,-0.6841675440470366
07-10,5.605001449584961,0.810001373291005,-10.664997100830078,4.45500183105468,1.535003662109375,-1.654998779296875,-15.02999877929686,-1.4000015258789062,-6.44000244140625,5.7999954223632955,-4.710006713867173,11.199996948242173,6.0,6.0,08-24,-0.8745837211608878
07-11,5.489999771118164,0.6150016784667933,-9.564998626708984,5.085002899169922,0.5400009155273438,-1.4749984741210938,-19.31999969482422,-0.1699981689453267,-7.3400039672851705,6.849998474121094,-5.300003051757798,8.85000610351564,6.0,6.0,08-25,-1.311666011810303
07-12,5.29000091552734,0.21500015258788707,-8.979999542236328,5.194999694824212,1.2099990844726562,-1.7200012207031392,-24.269996643066392,-2.309997558593764,-8.20999908447267,6.760002136230469,-6.94000244140625,11.700004577636733,6.0,6.0,08-26,-1.8383324940999373
07-13,5.3600006103515625,-0.095001220703125,-9.020000457763672,2.8250007629394602,2.625,-0.8800048828125284,-25.479995727539077,-3.0800018310546875,-8.770004272460952,5.779998779296889,-11.169998168945312,10.440002441406264,5.0,7.0,08-27,-2.6220836639404315
07-14,4.805000305175785,0.31000137329102273,-8.279998779296875,3.510002136230476,1.6399993896484375,-0.7649993896484517,-24.51000213623047,-2.239997863769517,-9.090003967285142,8.25,-10.540000915527344,8.229995727539077,6.0,6.0,08-28,-2.3900003433227504
07-15,3.820001602172848,0.27000045776366477,-9.294998168945312,3.625,0.3849945068359375,-0.15999603271482954,-23.8800048828125,-2.5199966430664062,-9.239997863769531,8.759994506835909,-10.299995422363281,4.329994201660156,6.0,6.0,08-29,-2.850416978200279
07-16,2.235000610351559,1.4300003051757812,-8.185001373291016,3.3800010681152415,0.45999908447265625,-0.2749938964843608,-18.720001220703125,-3.5500030517577983,-8.80999755859375,7.5,-8.819999694824219,4.689994812011719,6.0,6.0,08-30,-2.388750076293943
07-17,2.8149986267089773,2.4749984741211044,-6.610000610351555,2.790000915527351,-0.5500030517578125,-1.2299957275390483,-16.610000610351562,-1.7000045776367045,-9.099998474121094,6.25,-7.5800018310546875,8.91000366210939,5.0,7.0,08-31,-1.678333600362137
07-18,2.7449989318847585,1.6650009155273544,-6.114997863769531,2.759998321533196,-2.1200027465820312,-2.154998779296861,-14.739997863769531,-2.0200042724609233,-9.139999389648438,4.910003662109375,-7.970001220703125,12.730003356933608,5.0,7.0,09-01,-1.6208330790201788
07-19,2.4750003814697195,1.8400001525878942,-6.32500076293946,-1.125,-1.7000045776367188,-1.654998779296875,-15.55999755859375,-2.5,-9.79000091552733,5.2700042724609375,-8.480003356933608,11.010002136230469,4.0,8.0,09-02,-2.211666584014894
07-20,1.8150005340576136,1.7600021362304759,-6.380001068115234,-2.0699996948242188,-1.7699966430664062,-1.4449996948242188,-19.5,-4.1500015258789205,-2.910003662109361,6.660003662109375,-6.809997558593764,14.610000610351562,4.0,8.0,09-03,-1.682499408721925
07-21,1.75,1.6800003051757884,-6.695003509521484,-1.1300010681152273,-1.7599945068359375,-1.779998779296875,-14.680000305175781,-2.7099990844726705,-2.5600051879882812,6.25,-6.159996032714858,15.819999694824219,4.0,8.0,09-04,-0.9979165395100923
07-22,1.5900001525878906,1.0800018310546946,-6.17500305175782,-0.3650016784667969,-1.2599945068359375,-3.2900009155273438,-14.55999755859375,-1.7700042724609517,-1.0699996948242188,6.129997253417969,-6.5199966430664205,14.300003051757812,4.0,8.0,09-05,-0.992499669392906
07-23,0.7299995422363317,0.2550010681152486,-6.760002136230469,-1.2900009155273438,-0.095001220703125,-3.3899993896484375,-12.09999847412108,-0.6099929809570312,-0.8000030517578125,5.4699935913085795,-7.44000244140625,15.150001525878906,4.0,8.0,09-06,-0.9066670735677068
07-24,0.6849994659423793,0.3600006103515696,-7.490001678466797,0.10499954223632102,0.9300003051757812,-3.2450027465820455,-9.720001220703125,0.45000457763671875,-1.9499969482422017,4.5499954223632955,-6.5800018310546875,15.42000579833983,7.0,5.0,09-07,-0.5404165585835802
07-25,0.6499996185302699,0.8900032043457173,-7.6750030517578125,0.6399993896484304,0.10500335693359375,-2.625,-8.409996032714844,1.0300064086914205,-2.910003662109361,1.3199996948242188,-6.620002746582031,12.55999755859375,7.0,5.0,09-08,-0.920416355133054
07-26,1.0399990081787074,0.04000091552735796,-5.789997100830085,0.26999664306640625,1.7300033569335938,-2.3549957275390625,-9.080001831054673,-0.02999877929688921,-2.5500030517577983,-0.06000518798828125,-4.600006103515611,12.379997253417969,5.0,7.0,09-09,-0.7504175504048639
07-27,1.2899990081787074,0.14999771118164773,-4.994998931884773,1.2900009155273438,-0.9599990844726562,-2.375,-5.989997863769531,0.6400070190429688,-1.9500045776367045,2.559997558593764,-2.6500015258789062,10.759994506835923,6.0,6.0,09-10,-0.185833772023518
07-28,1.9549999237060547,0.13000106811524859,-4.770000457763679,1.075000762939446,0.2350006103515625,-3.6049957275390625,-10.819999694824219,1.25,-2.019996643066392,1.770004272460966,-1.9199981689452983,16.759994506835938,7.0,5.0,09-11,0.003334204355880388
07-29,2.2899990081787145,0.1399993896484446,-4.680000305175781,2.400001525878899,1.2700042724609375,-1.2649993896484517,-12.470001220703125,0.590003967285142,-1.660003662109375,2.349998474121108,-1.160003662109375,14.92999267578125,7.0,5.0,09-12,0.22791592280069897
07-30,1.024999618530277,-0.0800018310546804,-5.400001525878906,2.44000244140625,1.68499755859375,-0.9849929809570312,-12.419998168945312,-3.80999755859375,0.6500015258789062,2.849998474121108,-1.279998779296875,17.139999389648423,6.0,6.0,09-13,0.15125068028767993
07-31,0.9950008392333984,-0.1750030517578125,-5.3899993896484375,3.154998779296875,1.9899978637695312,2.0500030517578125,-11.739997863769517,-1.9099960327148295,1.4400024414062358,1.3699951171875,0.29000091552734375,18.08999633789061,8.0,4.0,09-14,0.8470832506815592
08-01,0.23999977111816406,0.2599983215332031,-4.604999542236321,3.854999542236321,0.8300018310546875,1.5149993896484375,-11.15000152587892,-3.5099945068359375,-0.05000305175779829,2.2999954223632812,2.0100021362304688,19.72000122070314,8.0,4.0,09-15,0.9512499173482271
08-02,0.5450000762939418,0.10999679565429688,-2.8600006103515625,4.064998626708984,0.25499725341796875,-0.4700012207031392,-13.70999908447267,-3.0100021362304545,-1.150001525878892,2.7099990844726562,4.040000915527344,22.83000946044926,7.0,5.0,09-16,1.112916469573978
08-03,1.2950000762939418,0.8050003051757884,-3.3199996948242188,4.69000244140625,0.27500152587890625,-0.45499420166017046,-13.59000396728517,-3.6500015258789062,0.3899993896484517,2.0,8.419998168945298,22.54000091552733,8.0,4.0,09-17,1.6166669527689583
08-04,1.4249992370605469,0.375,-0.8400001525878906,4.469997406005859,1.654998779296875,-0.04999542236328125,-11.470001220703125,-3.4199981689453125,1.4700012207031108,1.8499984741210938,4.400001525878906,21.24999237060544,8.0,4.0,09-18,1.7595828374226852
08-05,1.3899993896484375,0.6899986267089844,-0.22999954223632102,4.299999237060547,1.7350006103515625,1.80999755859375,-11.519996643066406,-3.190002441406264,1.1600036621093608,2.6699981689452983,6.25,17.37998962402341,9.0,3.0,09-19,1.8704156875610298
08-06,1.8649997711181676,1.3400001525878906,2.845001220703125,3.7749977111816406,3.1949996948242188,1.470001220703125,-10.139999389648438,-4.2700042724609375,1.6600036621093608,2.9499969482421875,8.449996948242188,17.59999084472655,10.0,2.0,09-20,2.561665376027423
08-07,1.539999008178711,1.1400032043457102,2.3850021362304688,2.8600006103515696,3.3600006103515625,2.2549972534179688,-9.459999084472656,-3.4000015258789062,3.1999969482421875,5.090003967285142,6.569999694824219,15.540000915527344,10.0,2.0,09-21,2.59000031153361
08-08,2.2800006866455043,1.4450035095214915,2.2849998474121094,3.0649986267089915,2.9899978637695312,1.470001220703125,-13.419998168945327,-3.220001220703111,5.409996032714858,5.800003051757798,2.779998779296875,10.02999877929689,10.0,2.0,09-22,1.7429165840148946
08-09,2.2999992370605433,1.210002899169936,-1.8849983215332102,2.93499755859375,3.1500015258789062,1.81500244140625,-13.16000366210936,-1.9100036621093892,5.439994812011719,5.840003967285142,5.360000610351548,4.3400039672851705,9.0,3.0,09-23,1.286250114440917
08-10,2.514999389648441,1.3700027465820384,0.24000167846678977,3.7750015258789134,2.470001220703125,0.25,-14.989997863769517,-2.2300033569335795,7.479995727539077,8.459999084472656,6.709999084472685,5.080001831054702,10.0,2.0,09-24,1.7608334223429443
08-11,1.9499988555908239,2.5149993896484375,-0.6850013732910156,3.7249984741210938,1.0400009155273438,-0.4499969482421875,-14.470001220703125,-2.279998779296861,8.259994506835923,9.900001525878906,5.7999954223632955,-2.5699996948242188,7.0,5.0,09-25,1.0612492561340348
08-12,1.7600002288818324,2.6150016784667898,-2.479999542236328,3.3349990844726634,1.06500244140625,0.5049972534179688,-14.089996337890625,-0.8499984741210795,6.200004577636719,6.610000610351548,3.6800003051757955,-2.6699981689452983,8.0,4.0,09-26,0.4733344713846863
08-13,1.5749988555908239,2.5699996948242188,-3.9000015258789062,2.4449996948242188,0.94000244140625,-0.7350006103515483,-13.579994201660156,-1.19000244140625,6.600006103515611,5.459999084472656,3.57000732421875,-0.48999786376954546,7.0,5.0,09-27,0.27208471298217685
08-14,1.9699993133544957,3.204998016357422,-2.0900001525878835,3.05999755859375,1.1350021362304688,-0.5150070190429688,-16.58999633789064,-2.3199996948242188,5.950004577636719,3.5400009155273438,6.44000244140625,-0.03000640869139204,7.0,5.0,09-28,0.3129162788391122
08-15,2.3400001525878906,3.134998321533203,-1.0500030517578125,2.5849990844726562,2.93499755859375,-2.4300003051757955,-15.920005798339858,-2.0100021362304545,5.049995422363281,3.3600006103515625,7.0400009155273295,1.3300018310546875,8.0,4.0,09-29,0.5304152170817034
08-16,2.8949985504150426,3.3149986267089844,-1.8499984741210938,2.279998779296875,4.029998779296875,-2.660003662109389,-19.750000000000014,-0.0800018310546875,4.25,2.4899978637695312,5.94000244140625,2.8199996948242045,8.0,4.0,09-30,0.3066658973693815
08-17,2.8850002288818395,2.5800018310546804,-1.9000015258789062,2.490001678466797,4.230003356933594,-2.154998779296889,-18.310005187988295,-0.01999664306640625,5.309997558593736,0.5699996948242045,6.5999984741210795,1.410003662109375,8.0,4.0,10-01,0.307500362396234
08-18,2.629999160766598,2.825000762939453,0.5449981689453125,2.839996337890625,5.125,-3.5149993896484375,-16.87999725341797,-0.1999969482421875,6.769996643066406,-0.6000061035156392,6.8899993896484375,3.3899993896484517,8.0,4.0,10-02,0.8183325131734209
08-19,2.3899993896484375,3.6550025939941477,1.7350006103515625,3.1949996948242116,5.0,-6.7300033569335795,-14.80999755859375,-2.6700057983398295,6.2700042724609375,0.01999664306640625,5.25,3.44000244140625,9.0,3.0,10-03,0.5620832443237328
08-20,2.5299987792968786,3.7000007629394602,0.8600006103515625,2.7349967956542898,3.8349990844726562,-6.4550018310546875,-12.180000305175795,-1.8499984741210938,8.610000610351562,0.4799957275390625,4.110000610351577,3.8400039672851705,9.0,3.0,10-04,0.8512496948242202
08-21,1.005001068115238,4.039997100830078,-0.13000106811523438,4.569999694824219,3.7649993896484375,-6.9550018310546875,-7.080001831054702,-1.7699966430664205,9.59999847412108,-2.3499984741210938,3.7100067138671733,3.5499954223632812,7.0,5.0,10-05,0.9962498346964473
08-22,1.054998397827152,3.6149978637695384,0.8649978637695312,2.779998779296882,3.2450027465820312,-6.69000244140625,0.40000152587889204,-3.159996032714858,7.720001220703139,-1.8699951171875,4.310005187988281,2.1899948120117188,9.0,3.0,10-06,1.2050004005432131
08-23,1.6949996948242223,4.494998931884766,0.8100013732910085,3.8100013732910085,2.125,-7.189994812011719,2.329994201660142,-4.860000610351548,8.630004882812528,-1.0399932861328125,8.05999755859375,4.839996337890625,9.0,3.0,10-07,1.9754171371459976
08-24,1.9399986267089915,5.275001525878899,0.4350013732910085,3.93499755859375,5.314994812011719,-7.479995727539034,1.1399993896484233,-4.80999755859375,8.550003051757827,-2.160003662109389,9.450004577636733,3.470001220703111,9.0,3.0,10-08,2.088333765665691
08-25,1.7899990081787145,4.8100013732910085,0.8400001525878835,4.280002593994155,3.8199996948242188,-9.90499877929686,3.259994506835966,-5.1699981689453125,9.30999755859375,-3.1100006103515483,8.540000915527344,9.120002746582003,9.0,3.0,10-09,2.2987500826517766
08-26,2.064998626708988,4.720001220703118,0.6850013732910156,4.170001983642585,1.2699966430664062,-8.465003967285156,1.2099990844726705,-3.559997558593764,9.129997253417969,-1.549995422363267,5.180000305175781,8.99000549316402,9.0,3.0,10-10,1.9870837529500305
08-27,1.3400001525878977,3.7250022888183523,-1.0049972534179759,3.165000915527351,2.3600006103515625,-7.855003356933608,-0.8800048828124716,-13.8699951171875,8.489997863769531,-12.56999969482419,7.1699981689453125,8.150001525878878,7.0,5.0,10-11,-0.14833323160807174
08-28,1.6400012969970703,4.864997863769524,0.4750022888183594,3.2350006103515625,3.3600006103515625,-7.9550018310546875,-0.34000396728515625,-13.75,8.229995727539048,-10.270004272460952,5.5500030517578125,12.870002746582017,8.0,4.0,10-12,0.6591661771138467
08-29,2.1749992370605504,4.759998321533196,0.3600006103515554,2.825000762939453,3.1449966430664062,-9.915000915527344,0.6800003051757812,-15.299995422363295,8.550003051757812,-12.060005187988281,4.44000244140625,15.480003356933594,9.0,3.0,10-13,0.42833360036213985
08-30,2.3549995422363317,5.009998321533196,0.6399993896484304,3.4350013732910085,4.2599945068359375,-10.819999694824219,2.0499954223632812,-15.33999633789064,8.60000610351561,-11.060005187988281,4.870002746582031,15.650001525878878,9.0,3.0,10-14,0.8041664759317971
08-31,2.619998931884769,5.204998016357429,0.5850028991699148,2.720001220703125,4.769996643066406,-14.300003051757812,1.8899993896484375,-13.939994812011719,8.090003967285156,-14.16000366210939,8.739997863769531,13.170005798339872,9.0,3.0,10-15,0.4491669336954767
09-01,3.7249984741210973,4.039997100830078,1.3650016784667898,3.0300025939941406,4.459999084472656,-13.805000305175781,5.970001220703125,-14.040000915527358,8.810005187988281,-14.79000091552733,6.779998779296875,10.589996337890625,9.0,3.0,10-16,0.5112498601277666
09-02,3.7999992370605504,3.6599998474121165,2.049999237060547,3.9850006103515625,4.1349945068359375,-12.345001220703125,3.7900009155273438,-14.919998168945298,10.059997558593764,-13.729995727539048,7.779998779296875,8.609992980957031,9.0,3.0,10-17,0.5729157129923547
09-03,3.70999908447266,3.1749992370605398,3.2550010681152344,4.825000762939453,4.504997253417969,-11.514999389648438,3.339996337890625,-15.020004272460952,9.729995727539077,-11.699996948242173,8.529998779296875,11.799995422363281,9.0,3.0,10-18,1.2195819218953459
09-04,3.595001220703125,4.2449989318847585,2.3199996948242188,5.400001525878906,3.6399993896484375,-11.559997558593764,5.950004577636719,-14.95999908447267,9.51999664306642,-11.759994506835909,7.44000244140625,14.1300048828125,9.0,3.0,10-19,1.496668179829916
09-05,2.9549999237060547,4.299999237060533,3.765003204345703,5.100002288818359,2.8249969482421875,-11.06500244140625,4.339996337890611,-14.810005187988281,9.439994812011719,-12.479995727539048,5.620002746582031,16.170005798339858,9.0,3.0,10-20,1.3466664950052898
09-06,3.29000091552734,3.7449989318847585,2.8199996948242188,2.9850006103515625,7.6100006103515625,-8.334999084472656,4.779998779296875,-15.060005187988281,8.680000305175753,-13.879997253417955,5.459999084472642,13.330009460449261,9.0,3.0,10-21,1.2854172388712568
09-07,2.9099998474121094,4.5900001525878835,1.9149971008300852,2.9749984741210938,7.06500244140625,-6.370002746582031,4.979995727539048,-14.17000579833983,8.869995117187472,-12.520004272460966,7.720001220703111,13.640007019042983,9.0,3.0,10-22,1.800415356953934
09-08,2.1399993896484375,4.180000305175774,2.0,0.970001220703125,7.4850006103515625,-3.94000244140625,4.239997863769531,-12.740005493164034,10.72000122070314,-10.699996948242188,8.169998168945298,13.040000915527358,9.0,3.0,10-23,2.1304162343343127
09-09,1.6049995422363281,4.075000762939453,3.7900009155273438,0.9549980163574219,9.239997863769531,-3.875,4.540000915527344,-8.199996948242188,11.860000610351577,-10.42999267578125,8.759994506835923,8.69000244140625,9.0,3.0,10-24,2.584167162577311
09-10,1.3399982452392578,2.950000762939453,5.279998779296875,-0.125,7.3699951171875,-4.375,4.0,-10.380004882812528,10.989997863769531,-11.45999908447267,7.200004577636719,8.290000915527358,8.0,4.0,10-25,1.756666024525958
09-11,1.6900005340576172,2.395000457763672,5.6399993896484375,0.6499977111816335,7.0149993896484375,-3.8549957275390625,6.9000015258789205,-9.520004272460966,11.54000091552733,-14.80999755859375,6.790000915527344,6.599998474121122,9.0,3.0,10-26,1.7529168128967278
09-12,0.7150001525878942,2.845001220703125,4.704998016357422,0.7000007629394531,7.790000915527344,-2.3899993896484233,9.829994201660142,-11.540000915527358,11.02999877929689,-14.25,6.260002136230469,4.059997558593722,9.0,3.0,10-27,1.6462494532267231
09-13,0.149999618530277,2.8300018310546875,5.084999084472649,-0.7050018310546875,8.510002136230469,-1.9300003051757955,9.769996643066406,-8.640007019042969,12.66000366210936,-15.169998168945327,4.200004577636733,1.1199951171875,8.0,4.0,10-28,1.489999612172442
09-14,0.5450000762939489,2.7150001525878906,4.430000305175781,-0.8349990844726562,8.360000610351562,-3.5550003051757955,8.769996643066406,-8.160003662109375,11.239997863769531,-8.459999084472656,8.680000305175781,-2.8200073242187784,7.0,5.0,10-29,1.7424988746643033
09-15,-1.0799999237060511,2.5699996948242188,3.720001220703125,-0.6650009155273438,7.845001220703125,-2.160003662109375,10.050003051757812,-8.72000122070311,12.369995117187514,-10.15999603271483,8.349998474121094,-4.709999084472628,6.0,6.0,10-30,1.4508331616719625
09-16,-1.3199996948242188,2.2699966430664062,5.145000457763672,-1.2400016784667969,10.15499877929686,-4.235000610351577,9.260002136230469,-6.8600006103515625,11.129997253417983,-10.09999847412108,9.690002441406236,-3.829994201660128,6.0,6.0,10-31,1.6720835367838554
09-17,-1.014999389648441,2.2749977111816406,5.825000762939453,-1.1899986267089773,8.150001525878906,-4.8899993896484375,9.870002746582031,-8.209999084472642,9.360000610351577,-8.769996643066392,8.770004272460938,-4.040000915527344,6.0,6.0,11-01,1.3445844650268592
09-18,-0.6200008392333984,2.0199966430664062,4.345001220703125,-0.18499755859375,6.9250030517578125,-5.555000305175781,11.08999633789064,-7.950004577636733,9.439994812011719,-8.180000305175781,6.5500030517578125,2.3300094604492188,7.0,5.0,11-02,1.6841667493184407
09-19,-1.629999160766598,2.0049972534179688,3.4399986267089844,-0.07999801635742898,6.834999084472656,-5.229995727539077,10.810005187988281,-8.34000396728517,7.5800018310546875,-9.960006713867173,5.290000915527358,9.639999389648438,7.0,5.0,11-03,1.6966665585835772
09-20,-1.0999984741210902,2.4899978637695312,4.590000152587891,-0.645000457763679,8.150001525878906,2.0050048828125,10.550003051757798,-8.880004882812528,7.110000610351548,-10.830001831054688,5.8600006103515625,15.099990844726534,8.0,4.0,11-04,2.8666661580403576
09-21,-0.8549995422363246,2.8499984741210866,6.579998016357422,2.1050033569335866,9.665000915527344,0.3450012207031392,10.740005493164034,-10.080001831054702,6.9300003051757955,-9.240005493164077,7.090003967285142,16.779998779296875,9.0,3.0,11-05,3.57583363850911
09-22,-1.2299995422363352,2.904998779296875,8.29999923706054,1.5550003051757741,10.020004272460938,-0.6049957275390625,12.239997863769517,-10.760002136230483,7.400001525878892,-5.779998779296861,9.739997863769531,11.98999786376956,8.0,4.0,11-06,3.814583460489907
09-23,-0.6949996948242223,3.220001220703125,9.920001983642578,2.4850006103515554,9.950004577636719,3.4850006103515625,13.919998168945312,-11.519996643066406,7.3699951171875,-6.240005493164034,10.540000915527344,14.48999786376956,9.0,3.0,11-07,4.7437499364217155
09-24,-0.43000030517578836,3.104999542236321,8.034999847412095,3.19000244140625,9.665000915527344,2.3550033569335938,15.75,-9.330001831054673,7.17999267578125,-5.330001831054673,13.540000915527344,13.860000610351577,9.0,3.0,11-08,5.13249969482422
09-25,0.7699985504150391,3.4449996948242188,8.229999542236321,2.8050003051757812,9.080001831054688,3.9199981689453125,14.870002746582031,-7.790000915527344,7.17999267578125,-2.0100021362304688,13.110000610351562,18.009994506835938,10.0,2.0,11-09,5.968332131703694
09-26,0.020000457763671875,3.154998779296875,8.469997406005845,3.020000457763672,8.075004577636719,3.8199996948242188,18.48999786376953,-7.4000015258789205,7.6100006103515625,-0.8600006103515625,13.110000610351562,17.01999664306642,10.0,2.0,11-10,6.210832913716633
09-27,1.0550003051757848,2.7400016784667898,5.450000762939453,2.704998016357422,7.18499755859375,3.719993591308608,17.220001220703125,-7.159996032714858,8.130004882812528,0.540000915527358,11.610000610351591,20.129997253417983,11.0,1.0,11-11,6.110416730244961
09-28,1.1050014495849574,2.4399986267089844,6.959999084472656,1.3850021362304688,7.2550048828125,3.404998779296889,16.610000610351577,-8.279998779296875,7.270004272460952,-0.45999908447264204,10.409996032714801,21.080009460449233,10.0,2.0,11-12,5.765001455942792
09-29,1.2199993133544922,2.55999755859375,6.534999847412109,0.9149971008300781,7.5500030517578125,2.899993896484361,15.660003662109375,-6.7699966430664205,6.4699935913085795,-2.0400009155273438,10.689994812011733,22.319992065429688,10.0,2.0,11-13,5.667498111724851
09-30,1.4850006103515625,2.609996795654297,7.779998779296875,0.9599990844726634,7.7249984741210795,3.5799942016601562,13.919998168945312,-6.489997863769517,3.6699981689453125,-4.349998474121094,11.739997863769517,20.569992065429688,10.0,2.0,11-14,5.266664822896321
10-01,2.3099994659423793,2.5100021362304688,9.71500015258789,0.9499969482421946,8.90499877929689,6.3649978637695455,11.480003356933608,-7.6700057983398295,3.5500030517577983,-5.440002441406236,13.450004577636733,20.8699951171875,10.0,2.0,11-15,5.5829161008199115
10-02,1.9850006103515625,2.2700004577636648,9.305000305175781,0.8400001525879048,8.989997863769545,6.3649978637695455,6.549995422363281,-7.3899993896484375,3.3499984741210938,-4.8600006103515625,15.910003662109403,16.599998474121094,10.0,2.0,11-16,4.99291610717774
10-03,1.4099998474121094,2.3100013732910085,9.334999084472656,-0.15000152587889914,9.064994812011733,6.689994812011719,6.2400054931640625,-7.209999084472642,1.4000015258789205,-3.3800048828125,15.720008850097685,16.900009155273438,9.0,3.0,11-17,4.860834121704108
10-04,1.9449996948242188,1.670001983642571,7.130001068115234,-0.354999542236321,7.340003967285156,6.314994812011719,7.360000610351577,-5.690002441406236,1.1299972534179545,-3.1100006103515625,13.129997253417955,18.350006103515625,9.0,3.0,11-18,4.601250012715657
10-05,1.8599987030029297,1.0400009155273438,6.084999084472663,-1.345001220703132,8.494995117187514,7.029998779296861,7.120002746582031,-5.220001220703125,0.3600006103515625,-0.9399948120117188,13.790000915527344,17.350006103515625,9.0,3.0,11-19,4.635417143503825
10-06,1.2399997711181605,0.6599998474121165,5.6100006103515625,-1.0499992370605398,8.369995117187514,8.614997863769517,10.830001831054688,-5.830001831054673,0.730003356933608,-2.410003662109375,13.209999084472628,18.72000122070314,9.0,3.0,11-20,4.891249497731529
10-07,1.3199996948242152,0.7649993896484375,4.614997863769531,1.1650009155273366,8.424995422363267,12.120002746582031,9.92000579833983,2.8799972534179688,1.19000244140625,-1.8800048828124858,13.079994201660128,14.330001831054716,11.0,1.0,11-21,5.660832722981769
10-08,0.6449985504150426,1.1700019836425781,3.5799980163574148,1.1650009155273366,9.694999694824219,10.56500244140625,8.460006713867188,1.340003967285142,2.239997863769517,-1.8800048828124858,14.150001525878906,8.279998779296875,11.0,1.0,11-22,4.950833797454831
10-09,-0.13500022888183594,1.1899986267089773,2.6949996948242116,2.920001983642571,9.860000610351562,12.31500244140625,7.4000015258789205,2.340003967285142,2.239997863769517,7.31999969482419,11.919998168945312,7.3899993896484375,11.0,1.0,11-23,5.621250311533605
10-10,-0.43000030517578125,1.1749992370605469,2.6949996948242116,3.095001220703118,8.735000610351562,14.555000305175781,7.2800064086914205,2.340003967285142,2.9599990844726705,6.279998779296861,10.839996337890625,7.220001220703153,11.0,1.0,11-24,5.562083880106609
10-11,0.2099990844726598,1.1749992370605469,2.529998779296875,3.045001983642571,8.285003662109375,19.380004882812486,8.1300048828125,4.319999694824247,2.92999267578125,9.5,6.510002136230469,7.220001220703153,12.0,0.0,11-25,6.102917353312178
10-12,0.2099990844726598,0.20999908447265625,1.7549972534179759,3.759998321533203,8.824996948242188,19.490005493164062,8.1300048828125,4.68000030517581,1.9399948120117188,11.72000122070314,8.200004577636719,7.220001220703153,12.0,0.0,11-26,6.345000267028816
10-13,-0.3950004577636683,-0.15999984741211648,1.7999992370605469,3.615001678466804,9.029998779296875,19.490005493164062,8.309997558593736,4.5,1.7699966430664062,11.139999389648438,10.580001831054688,9.699996948242159,10.0,2.0,11-27,6.6149997711181605
10-14,-0.8400001525878906,-0.2050018310546875,-0.06999969482421875,3.4350013732910085,9.029998779296875,18.909996032714858,8.169998168945298,4.989997863769531,2.9300003051757812,11.189994812011719,10.580001831054688,8.680007934570312,9.0,3.0,11-28,6.399999618530273
10-15,-1.1150016784667933,0.5100021362304688,0.8050003051757812,3.125,9.825004577636705,17.4499969482422,6.229995727539034,5.4699935913085795,2.6800003051757812,9.650001525878892,11.50000762939456,6.529998779296875,11.0,1.0,11-29,6.05499998728434
10-16,-0.3150005340576172,0.375,2.3550033569335938,2.0400009155273438,9.455001831054673,16.784996032714858,5.720001220703139,4.689994812011719,4.1699981689453125,9.459999084472656,10.75000762939456,6.1100006103515625,11.0,1.0,11-30,5.966250260670983
10-17,-1.3199996948242152,0.460002899169929,2.6500015258789062,1.4650001525878906,5.330001831054673,14.849998474121094,5.029998779296875,5.339996337890625,4.050003051757827,9.519996643066392,8.470008850097699,8.949996948242159,11.0,1.0,12-01,5.399583816528321
10-18,-1.2700004577636683,0.5400009155273509,3.509998321533203,1.4050025939941406,4.3849945068359375,13.82000732421875,4.559997558593736,3.120002746582017,4.130004882812528,8.65000152587892,4.959999084472628,8.949996948242159,11.0,1.0,12-02,4.730000495910642
10-19,-1.0300006866455078,2.045001983642578,4.4550018310546875,2.454998016357422,3.7249984741210938,14.34500122070314,5.580001831054702,3.370002746582017,2.7000045776367188,7.0800018310546875,4.159996032714844,8.949996948242159,11.0,1.0,12-03,4.819583733876545
10-20,-0.3299999237060547,1.2000007629394531,3.5349998474121094,3.2849998474121094,3.5250015258789062,13.97500610351561,3.9599990844726705,3.2699966430664062,-0.9100036621093892,7.6699981689453125,3.8199996948242188,8.639999389648438,10.0,2.0,12-04,4.3033331235249825
10-21,0.4400005340576172,1.595001220703125,1.4350013732910156,1.6200027465820384,2.5250015258789062,13.610000610351548,4.6999969482421875,2.8600006103515625,-0.9599990844726562,7.6699981689453125,3.279998779296875,9.240005493164062,11.0,1.0,12-05,4.001250743865966
10-22,-0.06500053405761719,1.8800010681152415,0.2350006103515625,1.3050003051757884,1.4150009155273438,14.77499389648436,1.7199935913085795,1.3400039672851705,0.6699981689453267,8.89999389648439,3.8300094604492188,9.570007324218722,11.0,1.0,12-06,3.797916889190674
10-23,0.125,1.7350006103515625,0.3849983215332031,1.9599990844726562,2.25,14.180000305175753,0.31000518798828125,2.75,-0.1399993896484375,6.100006103515639,4.6300048828125,9.0,11.0,1.0,12-07,3.60708459218343
10-24,1.0850009918212855,1.30999755859375,0.520000457763679,1.1450004577636719,1.7449951171875,13.930000305175795,2.029998779296875,2.980003356933608,-1.25,8.950004577636719,5.5200042724609375,11.940002441406222,11.0,1.0,12-08,4.158750693003337
10-25,1.0600013732910156,1.55999755859375,1.0699996948242188,1.720001220703125,-0.06999969482421875,15.125,1.0599975585937358,6.959999084472656,-1.5299987792968892,3.0200042724609375,7.090003967285156,11.940002441406222,10.0,2.0,12-09,4.083750724792476
10-26,0.3150005340576172,1.2699966430664062,-0.095001220703125,3.5449981689453054,3.4749984741210938,15.119995117187514,-1.1800003051757812,5.660003662109375,-2.4799957275390767,2.9599990844726562,8.829994201660128,11.940002441406222,9.0,3.0,12-10,4.113332589467361
10-27,0.21999931335448863,1.5349998474121094,-2.1300010681152344,2.145000457763679,2.910003662109375,16.544998168945327,-1.379997253417983,4.8300018310546875,-1.8199996948242188,0.34000396728515625,9.269996643066406,15.8800048828125,9.0,3.0,12-11,4.028750896453857
10-28,1.0949993133544886,1.6199989318847656,-3.3700027465820384,3.3799972534179688,3.2300033569335795,12.73000335693358,-2.779998779296889,6.5400009155273295,-0.2400054931640625,0.5699996948242188,8.760002136230469,18.06000518798828,9.0,3.0,12-12,4.13291692733764
10-29,0.5149993896484375,1.6750030517578125,-1.2350006103515554,3.979999542236328,-1.5799942016601562,14.400001525878892,-2.7299957275390767,6.170005798339844,-0.48000335693359375,0.15000152587890625,7.25999450683598,15.169998168945312,8.0,4.0,12-13,3.607917467753094
10-30,1.3050003051757812,2.115001678466797,-1.9450035095214844,3.7350006103515554,0.3450012207031108,14.25,-3.3800048828125284,5.520004272460952,-0.2700042724609375,-0.7600021362304688,6.329994201660185,13.550003051757812,8.0,4.0,12-14,3.3995825449625645
10-31,0.5099983215332031,1.8950004577636719,-2.5250015258789062,3.7350006103515554,-0.11499786376954546,9.455001831054673,-5.269996643066406,3.9200057983398438,0.01000213623048296,-1.6299972534179688,7.189994812011733,8.090011596679716,8.0,4.0,12-15,2.105418523152671
11-01,1.0999984741210902,2.3300018310546875,-2.200000762939453,1.375,0.5849990844726562,9.72500610351561,-6.269996643066406,3.4300003051757955,0.3300018310546875,-3.279998779296861,8.319992065429702,8.090011596679716,9.0,3.0,12-16,1.961251258850102
11-02,0.6599998474121129,2.229999542236328,-3.25,2.645000457763672,-0.27500152587890625,8.870002746582017,-5.449996948242202,3.790000915527358,0.089996337890625,-6.010002136230469,4.9199981689453125,8.090011596679716,8.0,4.0,12-17,1.3591674168904637
11-03,0.649999618530277,2.104999542236328,-4.230003356933594,4.074996948242173,-0.530006408691392,8.145004272460923,-3.970001220703111,4.4199981689453125,-2.7099990844726562,-6.309997558593764,5.160003662109375,6.410003662109375,7.0,5.0,12-18,1.1012498537699373
11-04,0.8099994659423899,1.4850006103515696,-4.194999694824212,4.2099990844726705,0.0749969482421875,11.894996643066392,-3.6399993896484375,3.2900009155273295,-1.25,-9.319999694824247,5.010009765625,10.460006713867159,8.0,4.0,12-19,1.56916761398315
11-05,0.04500007629395242,0.8950004577636719,-4.0149993896484375,5.345001220703125,0.954994201660142,8.504997253417955,-2.9899978637695312,1.5699996948242188,-0.20999908447267046,-9.75,2.7599945068359375,5.010009765625,8.0,4.0,12-20,0.6766667366027802
11-06,-0.24499893188476207,1.4600028991699148,-4.885002136230476,4.010002136230476,1.2149963378906108,8.084999084472642,-4.760002136230483,1.8700027465820312,-0.02999877929686079,-10.930000305175781,1.8799896240234375,4.510009765625,7.0,5.0,12-21,0.18166669209797912
11-07,-1.5450000762939453,1.6350021362304688,-4.060001373291016,5.285003662109389,2.7949981689452983,10.055000305175753,-5.44000244140625,1.2900009155273438,-0.17999267578125,-13.099998474121094,1.819992065429659,1.4000091552734375,7.0,5.0,12-22,-0.0037490526835171067
11-08,-1.3199996948242223,1.6950035095214844,-3.6099967956542898,6.800003051757827,1.8649978637695312,10.814994812011719,-4.5,1.1300048828125284,0.04000091552732954,-12.239997863769531,3.5,1.4000091552734375,8.0,4.0,12-23,0.4645849863688178
11-09,-1.0,2.1100006103515696,-1.6299972534179688,8.505001068115241,2.2299957275390767,11.665000915527315,-2.970001220703111,0.5800018310547017,1.0300064086914205,-10.639999389648438,3.270004272460909,1.4000091552734375,8.0,4.0,12-24,1.2125018437703463
11-10,-1.0500011444091726,2.2300033569335938,-2.029998779296875,8.459999084472656,2.2299957275390767,11.665000915527315,-2.3600006103515625,-1.0,1.4900054931640625,-8.330001831054688,3.270004272460909,0.4499969482421875,7.0,5.0,12-25,1.2520836194356253
11-11,-1.1550006866455043,2.1850013732910156,-2.9749984741210938,7.894996643066406,1.6699981689453125,12.90500640869142,-2.8499984741210795,0.10000610351563921,1.629997253417983,-9.080001831054688,3.8099975585937216,0.6200103759765625,8.0,4.0,12-26,1.2295845349629746
11-12,-0.6800003051757777,2.9300003051757812,-2.4650001525878906,8.885002136230469,2.535003662109389,13.585006713867173,-0.4499969482421733,-1.0500030517577983,1.6399993896484375,-9.800003051757812,3.289993286132784,3.4000091552734375,7.0,5.0,12-27,1.818334261576335
11-13,-0.5300006866455078,2.970001220703125,-1.8899993896484446,8.645004272460938,1.4800033569335795,12.920005798339858,-0.5900039672851705,-1.3600006103515625,1.7299957275390767,-5.040000915527358,3.2199859619140057,0.4499969482421875,7.0,5.0,12-28,1.8337489763895605
11-14,-0.9300003051757812,3.079998016357422,-1.6650009155273438,9.21500396728515,1.0,13.610000610351562,-1.5599975585937642,-0.20000457763670454,2.1399993896484233,-6.0800018310546875,3.789993286132784,-1.0,6.0,6.0,12-29,1.7833325068155883
11-15,-0.8199996948242188,3.4949989318847656,-2.279998779296875,9.745002746582031,1.590003967285142,13.129997253417969,-2.0499954223632955,-1.5600051879882812,3.0999984741210795,-7.810005187988281,3.8600006103515625,-1.0,6.0,6.0,12-30,1.6166664759318
11-16,-1.0349998474121094,4.314998626708984,-1.0699996948242188,8.749996185302727,1.5650024414062358,13.56500244140625,-1.3699951171875142,-1.69000244140625,2.479995727539034,-5.75,4.389999389648494,-1.0,6.0,6.0,12-31,1.9291664759318028
11-17,-0.9499988555908203,4.064998626708984,0.04000091552734375,6.534996032714851,1.5650024414062358,13.56500244140625,-1.1299972534179688,-1.94000244140625,2.6599960327148295,-6.279998779296889,4.389999389648494,0.0,7.0,5.0,01-01,1.8766665458679217
11-18,-0.5749988555908203,3.329998016357422,-0.404998779296875,6.324996948242209,1.9100036621093608,11.580001831054688,-3.6500015258789062,-0.5200042724609233,2.290000915527358,-6.469993591308608,4.0,0.0,6.0,6.0,01-02,1.4845836957295753
11-19,-0.05999946594238281,3.2350006103515696,1.079998016357429,7.650001525878913,2.450004577636733,10.5,-2.790000915527358,-0.8800048828124716,1.9400024414062642,-5.469993591308608,4.700012207031278,0.0,7.0,5.0,01-03,1.8629183769226139
11-20,0.0049991607666015625,3.3600006103515625,0.829998016357429,8.499999999999993,3.7300033569335938,9.5,-4.850006103515639,-1.4300003051757528,3.1200027465820455,-4.189994812011719,6.9900054931640625,0.0,8.0,3.0,01-04,2.130417346954348
11-21,-0.9949989318847692,3.6700019836425852,1.6450004577636719,8.400001525878892,3.1699981689453125,7.899993896484403,-6.650001525878906,-0.9400024414062358,2.850006103515611,-5.119995117187528,7.810005187988281,0.0,7.0,4.0,01-05,1.8116674423217765
11-22,0.034999847412109375,3.0400009155273438,2.015003204345703,7.590000152587869,2.5800018310546875,6.914993286132827,-7.510002136230469,0.6499938964843608,2.9200057983398295,-5.599998474121108,6.19000244140625,0.0,9.0,2.0,01-06,1.5687500635782836
11-23,0.0550003051757777,3.990001678466797,2.865001678466797,7.189998626708977,2.6100006103515625,3.954994201660142,-7.160003662109361,-0.31999969482421875,2.090003967285142,-9.319999694824219,1.9000015258788778,0.0,8.0,3.0,01-07,0.6545832951863563
11-24,0.8700008392333949,3.0550003051757812,2.9250030517578125,8.229999542236335,1.665000915527358,3.67999267578125,-9.019996643066392,-0.8600006103515483,1.3700027465820312,-7.42999267578125,1.2999954223632812,0.0,8.0,3.0,01-08,0.4820837974548378
11-25,0.46000099182128906,3.135002136230476,2.545001983642578,7.6249961853027415,2.0449981689453125,4.2600021362304545,-9.989997863769531,-2.509994506835909,3.0699996948242188,-7.099998474121108,0.29000091552737217,0.0,8.0,3.0,01-09,0.31916761398315785
11-26,1.1299991607666016,2.9850006103515696,1.104999542236321,8.609996795654304,2.1699981689453267,3.4850006103515625,-9.739997863769531,-1.7600021362304688,2.8700027465820312,-6.269996643066406,-1.300003051757841,0.0,7.0,4.0,01-10,0.27374982833862244
11-27,1.2699985504150426,2.259998321533203,0.8899993896484375,9.504997253417969,2.4650039672851562,2.5499954223632812,-10.959999084472656,-1.0,2.3700027465820312,-4.300003051757798,-0.7799987792968466,0.0,7.0,4.0,01-11,0.35583289464315165
11-28,1.1599998474121094,2.3899993896484375,1.7949981689453125,9.749996185302734,2.7050018310546875,5.529998779296861,-11.25,-0.9599990844726562,-0.7299957275390625,-6.1399993896484375,-0.42999267578125,0.0,6.0,5.0,01-12,0.31833394368489465
11-29,1.125,2.1149978637695312,1.7299995422363281,9.379997253417969,3.035003662109361,3.5500030517577983,-11.290000915527315,-1.3700027465820455,-0.40000152587892046,-6.970001220703125,-0.17999267578125,0.0,6.0,5.0,01-13,0.06041685740152758
11-30,0.7000007629394531,2.525001525878899,-0.5750007629394531,8.750003814697266,3.4599990844726562,3.190002441406236,-10.619995117187472,0.6999969482421733,-0.23999786376953125,-6.680000305175781,-0.410003662109375,0.0,6.0,5.0,01-14,0.06666723887125592
12-01,0.7800006866455078,1.575000762939446,0.024997711181640625,10.58000183105468,2.049995422363267,3.5600051879882812,-13.709999084472685,1.3899993896484375,0.6800003051757812,-8.699996948242202,0.720001220703125,0.0,9.0,2.0,01-15,-0.08749945958455996
12-02,0.4600009918212855,1.4099998474120952,0.8649978637695312,10.044998168945305,3.6149978637695312,3.9199981689453267,-12.289993286132827,2.049995422363267,0.01000213623045454,-8.599998474121108,1.4299926757812216,0.0,9.0,2.0,01-16,0.242915948232007
12-03,0.9400005340576136,1.104999542236321,1.4150009155273438,9.599998474121087,4.519996643066406,1.855003356933608,-11.25,0.8800048828125284,0.6100006103515483,-9.559997558593764,2.7800064086914062,0.0,9.0,2.0,01-17,0.24125115076700818
12-04,0.5450000762939453,1.2950019836425781,1.1749992370605469,9.410003662109368,3.875,1.6299972534179688,-12.909996032714858,0.3300018310547017,-0.9199981689453267,-4.19000244140625,1.6399993896484375,0.0,8.0,3.0,01-18,0.15666723251342596
12-05,1.2299995422363281,1.595001220703125,1.4350013732910156,9.835002899169922,4.459999084472656,2.059997558593764,-11.419998168945298,-0.01999664306639204,-2.25,-3.25,-0.3899993896484375,0.0,6.0,5.0,01-19,0.2737506230672236
12-06,0.8599987030029297,1.6200027465820384,2.229999542236321,7.960002899169922,1.4300003051757812,1.6800003051757812,-13.08999633789061,0.4700012207031108,-1.6900024414062358,-3.25,-1.7999877929687216,0.0,7.0,4.0,01-20,-0.298331737518307
12-07,1.9500007629394602,1.1700019836425781,2.615001678466797,8.880001068115227,0.4799957275390625,3.7700042724609233,-13.389999389648423,-1.4899978637695455,-1.6100006103515625,-0.69000244140625,-5.5699920654296875,0.0,6.0,5.0,01-21,-0.3237489064534517
12-08,2.1450004577636683,1.4750022888183594,3.635002136230476,9.069999694824219,1.3849945068359233,2.660003662109375,-9.230003356933594,-2.720001220703139,2.4900054931640625,3.9000015258789062,-4.489990234375,0.0,8.0,3.0,01-22,0.8600012461344381
12-09,1.845001220703125,1.3699989318847656,1.9099998474120952,9.444999694824219,1.6449966430664062,1.1699981689453125,-8.030006408691392,-1.8000030517577983,2.7600021362304545,1.970001220703125,-7.089996337890625,0.0,8.0,3.0,01-23,0.43291600545247394
12-10,2.0450000762939418,0.22999954223632812,3.200000762939453,9.465003967285156,-0.09500122070311079,3.589996337890639,-7.360000610351548,0.34999847412109375,1.0999984741210938,0.8899993896484375,-6.30999755859375,0.0,8.0,3.0,01-24,0.5920831362406446
12-11,0.29500007629394887,0.845001220703125,2.9050025939941406,9.185001373291016,2.404998779296889,2.714996337890639,-6.810005187988281,1.5899963378906108,1.5699996948242188,-0.9899978637695455,-6.149993896484403,0.0,8.0,3.0,01-25,0.6299999554951965
12-12,0.11499977111816762,1.424999237060554,2.990001678466797,9.430000305175788,1.6200027465820312,5.764999389648423,-4.569999694824219,3.150001525878892,3.0500030517577983,-1.409996032714858,-7.5999908447265625,0.0,8.0,3.0,01-26,1.1637517611185677
12-13,0.6950016021728551,1.5600013732910156,4.029998779296875,9.10000228881836,1.9899978637695312,4.849998474121094,-6.620002746582031,4.029998779296889,2.690002441406236,1.150001525878892,-6.7499923706054545,0.0,9.0,2.0,01-27,1.3937506675720217
12-14,0.1400012969970703,1.7299995422363281,4.6100006103515625,7.0250015258789205,-0.3999938964844034,4.855003356933594,-5.150001525878906,4.910003662109375,5.120002746582017,2.0800018310546875,-7.440002441406236,0.0,8.0,3.0,01-28,1.4566680590311674
12-15,0.3499984741210902,1.345001220703125,4.649997711181641,7.005004882812486,0.3950042724609233,3.9250030517578125,-5.75,4.980003356933594,5.120002746582031,6.3700027465820455,-10.290000915527344,0.0,9.0,2.0,01-29,1.5083347956339503
12-16,0.11499977111816051,1.6650009155273438,3.979999542236328,4.900001525878892,0.01499938964842329,2.540000915527358,-7.419998168945327,5.930000305175781,5.3400039672851705,6.569999694824247,-9.220001220703125,0.0,9.0,2.0,01-30,1.2012505531311044
12-17,0.5999984741210902,0.954998016357429,4.965000152587905,5.430000305175767,-0.2050018310546875,-0.2599945068359091,-5.439994812011719,5.799995422363281,3.440002441406264,7.350006103515639,-9.680007934570312,0.0,7.0,4.0,01-31,1.079583485921229
12-18,0.6149997711181605,0.4350013732910156,5.170001983642585,3.8799972534179688,-1.0149993896484233,-2.634994506835909,-4.200004577636719,5.80999755859375,2.220001220703139,8.350006103515597,-8.229995727539062,0.0,7.0,4.0,02-01,0.8666675885518419
12-19,0.22500038146972656,0.9599990844726562,5.2250022888183665,4.509994506835923,-1.0500030517578125,-1.094993591308608,-2.1100006103515483,3.790000915527358,2.4200057983398295,8.620002746582017,-8.999999999999972,0.0,7.0,4.0,02-02,1.0412507057189948
12-20,0.6450004577636754,1.825000762939446,5.040000915527344,2.9199981689453125,-0.974998474121108,-3.3600006103515625,-1.6400070190429688,4.919998168945327,2.5699996948242188,7.9800033569335795,-9.360000610351562,0.0,7.0,4.0,02-03,0.8804162343343084
12-21,0.8549995422363246,1.3349990844726562,4.349998474121094,2.3050003051757812,-1.5699996948242188,-2.9350051879882812,-4.19000244140625,4.689994812011719,2.5500030517578125,9.120002746582017,-13.169998168945312,0.0,7.0,4.0,02-04,0.2783327102661118
12-22,0.17000007629394176,1.2550010681152344,4.25,2.659996032714858,-4.31500244140625,-1.3500061035155966,-3.6500015258789205,5.559997558593764,1.4300003051758097,10.169998168945312,-11.669998168945312,0.0,7.0,4.0,02-05,0.37583208084107006
12-23,-0.04500007629394531,1.1749992370605469,3.145000457763679,1.8499984741210795,-4.129997253417969,-1.8100051879882812,-5.1299972534179545,5.889999389648452,-0.6699981689453125,10.66000366210939,-10.479995727539062,0.0,5.0,6.0,02-06,0.037917296091718455
12-24,-0.18000030517578125,1.2900009155273438,3.6300010681152344,1.5649948120117188,-5.180000305175781,-1.8349990844726705,-5.279998779296875,5.090003967285142,-4.299995422363281,11.41000366210939,-8.679992675781222,0.0,5.0,6.0,02-07,-0.20583184560139856
12-26,-0.7250003814697266,1.5349998474121094,3.654998779296875,1.7949981689453125,-5.430000305175781,-0.6100006103515483,-7.029998779296861,4.160003662109389,-2.1500015258789205,6.8300018310546875,-8.5,0.0,5.0,6.0,02-09,-0.5391666094462053
12-27,-1.0550003051757812,1.8550033569335938,3.825000762939453,2.6050033569335938,-4.430000305175781,-0.8000030517578125,-10.25,4.25,-2.3600006103515625,4.680000305175781,-8.949996948242216,0.0,5.0,6.0,02-10,-0.8858327865600609
12-28,-0.31500053405762074,1.3199996948242259,4.409999847412109,2.6350021362304545,-2.9650039672851562,-2.8199996948242188,-8.91000366210939,5.430000305175781,-3.040000915527358,3.6199951171875,-10.309997558593722,0.0,5.0,6.0,02-11,-0.9120841026306161
12-29,0.19499969482421875,1.1399993896484446,3.8100013732910085,1.7649993896484375,-2.2700042724609375,-2.1100006103515483,-9.240005493164062,4.7900009155273295,-6.5199966430664205,2.6299972534179688,-12.029998779296847,0.0,6.0,5.0,02-12,-1.4866673151652006
12-30,0.24500083923339844,1.3199996948242259,4.270000457763665,2.0,-1.654998779296875,-1.720001220703125,-8.430000305175781,5.369995117187472,-5.6299972534179545,2.4899978637695312,-10.970001220703082,0.0,6.0,5.0,02-13,-1.0591670672098772
12-31,0.6049995422363281,1.7249984741210938,2.854999542236328,0.5499954223632955,-1.950004577636733,-1.4649963378906392,-7.480003356933594,5.290000915527344,-4.019996643066406,5.379997253417969,-11.1300048828125,0.0,6.0,5.0,02-14,-0.8033345540364595
