,2009,2010,2011,2012,2013,2014,2015,2016,2017,2018,2019,2020
01-02,35.19499969482422,,,,61.84000015258789,82.51000213623047,92.23999786376953,,,109.30000305175781,90.61000061035156,84.13999938964844
01-03,,,46.17499923706055,50.724998474121094,62.09000015258789,82.27999877929688,,,103.54000091552734,110.93000030517578,89.97000122070312,84.98999786376953
01-04,,50.189998626708984,46.06999969482422,50.79499816894531,62.900001525878906,,,69.68000030517578,103.62000274658203,110.94999694824219,93.91999816894531,
01-05,35.334999084472656,49.57500076293945,46.165000915527344,51.07500076293945,,,86.68000030517578,70.12999725341797,104.18000030517578,112.16999816894531,,
01-06,35.560001373291016,49.7400016784668,46.40999984741211,51.21500015258789,,82.01000213623047,84.20999908447266,67.31999969482422,105.20999908447266,,,88.44000244140625
01-07,34.334999084472656,49.275001525878906,47.130001068115234,,62.994998931884766,83.42500305175781,83.68000030517578,65.45999908447266,,,94.51000213623047,89.29000091552734
01-08,34.80500030517578,49.525001525878906,,,62.06999969482422,83.38999938964844,86.87999725341797,65.5199966430664,,112.70999908447266,95.5199966430664,87.33999633789062
01-09,33.27000045776367,,,51.084999084472656,62.314998626708984,83.5,87.45999908447266,,103.0199966430664,111.70999908447266,99.19000244140625,88.25
01-10,,,47.474998474121094,52.7599983215332,63.04999923706055,83.40499877929688,,,103.4000015258789,112.01000213623047,99.12000274658203,86.2699966430664
01-11,,49.06999969482422,48.3650016784668,51.584999084472656,62.814998626708984,,,63.66999816894531,104.91999816894531,115.13999938964844,96.87000274658203,
01-12,31.78499984741211,47.709999084472656,49.244998931884766,51.939998626708984,,,84.51000213623047,62.91999816894531,105.37000274658203,115.69999694824219,,
01-13,33.540000915527344,48.880001068115234,48.93000030517578,51.52000045776367,,81.7300033569336,85.05999755859375,64.16999816894531,105.38999938964844,,,85.5199966430664
01-14,31.69499969482422,49.0,50.290000915527344,,62.33000183105469,84.30000305175781,87.73999786376953,65.26000213623047,,,98.51000213623047,86.33000183105469
01-15,32.0099983215332,48.435001373291016,,,62.54999923706055,85.18000030517578,86.52999877929688,62.970001220703125,,,98.58999633789062,86.73999786376953
01-16,31.864999771118164,,,,62.685001373291016,85.05000305175781,90.30999755859375,,,113.38999938964844,98.66999816894531,87.0199966430664
01-17,,,,51.86000061035156,63.01499938964844,84.4800033569336,,,105.4800033569336,113.52999877929688,99.05000305175781,85.30999755859375
01-18,,,51.439998626708984,52.685001373291016,63.39500045776367,,,,105.4000015258789,114.23999786376953,101.05000305175781,
01-19,,48.67499923706055,50.720001220703125,52.540000915527344,,,,60.97999954223633,105.19000244140625,114.37000274658203,,
01-20,30.364999771118164,48.165000915527344,50.68000030517578,51.58000183105469,,,89.33000183105469,60.2400016784668,105.47000122070312,,,
01-21,32.65999984741211,48.29499816894531,50.86000061035156,,,84.61499786376953,90.54000091552734,63.75,,,,84.04000091552734
01-22,31.860000610351562,47.025001525878906,,,63.25,85.86000061035156,90.36000061035156,66.0199966430664,,116.81999969482422,96.86000061035156,83.08999633789062
01-23,33.28499984741211,,,52.79999923706055,62.375,84.58499908447266,90.79000091552734,,103.45999908447266,117.83999633789062,96.56999969482422,81.83000183105469
01-24,,,50.8650016784668,52.275001525878906,62.494998931884766,82.76499938964844,,,103.68000030517578,118.47000122070312,97.23999786376953,79.8499984741211
01-25,,47.48500061035156,49.935001373291016,53.404998779296875,62.6349983215332,,,61.59000015258789,103.9000015258789,117.44999694824219,99.0999984741211,
01-26,34.0,46.56999969482422,51.13999938964844,52.375,,,92.33000183105469,66.02999877929688,104.38999938964844,117.76000213623047,,
01-27,33.33000183105469,46.19499969482422,51.625,52.060001373291016,,81.05000305175781,93.0,66.06999969482422,102.9000015258789,,,76.63999938964844
01-28,34.97999954223633,45.755001068115234,51.26499938964844,,62.099998474121094,83.61000061035156,88.0999984741211,68.62999725341797,,,98.0999984741211,77.05000305175781
01-29,34.28499984741211,45.209999084472656,,,63.470001220703125,82.32499694824219,88.91000366210938,71.0199966430664,,116.58000183105469,98.87000274658203,75.13999938964844
01-30,33.8849983215332,,,52.654998779296875,63.15999984741211,83.06500244140625,89.02999877929688,,101.19999694824219,115.16999816894531,99.44999694824219,75.81999969482422
01-31,,,53.19499969482422,53.06999969482422,62.4900016784668,82.62000274658203,,,101.58000183105469,115.0,99.19999694824219,72.91000366210938
02-01,,47.775001525878906,53.689998626708984,52.95000076293945,64.30000305175781,,,69.08999633789062,101.0,116.5199966430664,98.8499984741211,
02-02,33.369998931884766,48.51499938964844,53.619998931884766,53.2400016784668,,,92.5199966430664,67.16000366210938,99.70999908447266,112.83000183105469,,
02-03,33.94499969482422,48.599998474121094,53.525001525878906,54.54499816894531,,80.87000274658203,96.30999755859375,70.19000244140625,100.94000244140625,,,71.37000274658203
02-04,34.290000915527344,46.45000076293945,53.38999938964844,,63.64500045776367,84.29000091552734,95.19000244140625,68.44000244140625,,,99.37999725341797,73.62000274658203
02-05,34.54499816894531,46.43000030517578,,,64.41000366210938,83.74500274658203,96.19000244140625,67.05999755859375,,109.55999755859375,98.3499984741211,77.05000305175781
02-06,34.20500183105469,,,55.029998779296875,64.83499908447266,86.625,95.79000091552734,,99.69999694824219,108.2699966430664,96.18000030517578,75.87000274658203
02-07,,,52.79499816894531,55.564998626708984,64.88500213623047,88.25,,,97.19000244140625,105.77999877929688,92.98999786376953,74.3499984741211
02-08,,45.790000915527344,52.380001068115234,55.709999084472656,66.63999938964844,,,68.43000030517578,98.13999938964844,101.04000091552734,92.5,
02-09,35.369998931884766,47.27000045776367,51.974998474121094,56.224998474121094,,,95.94999694824219,65.58999633789062,99.80999755859375,100.06999969482422,,
02-10,33.20000076293945,44.119998931884766,52.119998931884766,55.915000915527344,,87.0999984741211,95.26000213623047,65.79000091552734,101.44000244140625,,,73.69999694824219
02-11,32.18000030517578,45.529998779296875,51.650001525878906,,66.66999816894531,87.36499786376953,93.19999694824219,65.55999755859375,,,94.20999908447266,74.79000091552734
02-12,32.04999923706055,45.4900016784668,,,67.05000305175781,87.55500030517578,94.80000305175781,67.69999694824219,,103.13999938964844,95.62999725341797,75.37999725341797
02-13,31.860000610351562,,,56.689998626708984,66.80000305175781,87.73500061035156,96.91999816894531,,100.3499984741211,102.47000122070312,96.75,75.68000030517578
02-14,,,52.45000076293945,56.875,66.66500091552734,88.4800033569336,,,101.2300033569336,106.76000213623047,96.95999908447266,74.91999816894531
02-15,,,51.775001525878906,57.41999816894531,64.59500122070312,,,,100.75,107.69000244140625,100.25,
02-16,,46.40999984741211,51.494998931884766,58.810001373291016,,,,67.88999938964844,100.16999816894531,107.63999938964844,,
02-17,28.1200008392334,46.43000030517578,52.11000061035156,57.17499923706055,,,96.48999786376953,70.81999969482422,99.02999877929688,,,
02-18,28.309999465942383,47.16999816894531,54.44499969482422,,,89.95999908447266,95.30999755859375,69.45999908447266,,,,74.52999877929688
02-19,27.90999984741211,47.31999969482422,,,65.69999694824219,89.43000030517578,93.80000305175781,69.70999908447266,,,99.70999908447266,77.27999877929688
02-20,27.55500030517578,,,,63.69499969482422,90.01499938964844,91.08000183105469,,,107.95999908447266,98.77999877929688,75.98999786376953
02-21,,,,57.82500076293945,62.02000045776367,89.0,,,99.47000122070312,105.80999755859375,95.3499984741211,74.20999908447266
02-22,,46.05500030517578,54.15999984741211,57.83000183105469,62.66999816894531,,,72.20999908447266,97.52999877929688,107.08999633789062,95.52999877929688,
02-23,25.489999771118164,44.95500183105469,57.19499969482422,58.25,,,91.93000030517578,68.0199966430664,97.56999969482422,108.83000183105469,,
02-24,26.665000915527344,46.34000015258789,55.084999084472656,58.775001525878906,,90.19999694824219,91.61000061035156,69.5199966430664,96.30000305175781,,,69.91000366210938
02-25,26.014999389648438,46.61000061035156,55.875,,60.8849983215332,92.0,93.02999877929688,68.5,,,94.75,66.98999786376953
02-26,25.704999923706055,47.025001525878906,,,61.75,93.22000122070312,90.12999725341797,67.5,,109.48999786376953,93.91000366210938,63.20000076293945
02-27,25.020000457763672,,,57.810001373291016,63.459999084472656,93.73500061035156,89.72000122070312,,97.91000366210938,106.94000244140625,95.04000091552734,60.0
02-28,,,56.154998779296875,58.30500030517578,62.85499954223633,94.70999908447266,,,96.98999786376953,101.41999816894531,94.0,63.2599983215332
02-29,,,,56.93000030517578,,,,64.73999786376953,,,,
03-01,,47.32500076293945,53.96500015258789,58.45500183105469,61.5,,,65.0199966430664,100.05000305175781,101.18000030517578,96.41999816894531,
03-02,22.795000076293945,47.415000915527344,54.345001220703125,56.95000076293945,,,89.05999755859375,67.0,98.47000122070312,101.44999694824219,,62.86000061035156
03-03,24.020000457763672,47.90999984741211,55.54499816894531,,,94.6449966430664,90.37000274658203,69.25,98.56999969482422,,,62.43000030517578
03-04,25.549999237060547,47.599998474121094,54.689998626708984,,60.89500045776367,95.77999877929688,90.48999786376953,71.41000366210938,,,96.80999755859375,64.08000183105469
03-05,25.920000076293945,48.689998626708984,,56.599998474121094,62.349998474121094,95.24500274658203,89.58999633789062,,,101.80999755859375,95.5,61.869998931884766
03-06,26.03499984741211,,,56.36000061035156,62.79999923706055,95.52999877929688,88.56999969482422,,100.06999969482422,101.01000213623047,91.94000244140625,55.29999923706055
03-07,,,54.290000915527344,56.56999969482422,63.779998779296875,94.95999908447266,,75.47000122070312,99.52999877929688,100.87000274658203,91.3499984741211,
03-08,,48.685001373291016,53.099998474121094,57.20500183105469,64.33999633789062,,,70.55999755859375,94.83000183105469,100.58999633789062,86.44000244140625,
03-09,25.209999084472656,49.025001525878906,52.900001525878906,57.4900016784668,,,87.72000122070312,72.26000213623047,95.69999694824219,102.80000305175781,,37.599998474121094
03-10,26.454999923706055,49.41999816894531,51.415000915527344,,,94.5250015258789,86.19000244140625,72.2699966430664,94.79000091552734,,,41.599998474121094
03-11,27.0,48.88999938964844,52.82500076293945,,64.33000183105469,92.80000305175781,86.55000305175781,75.18000030517578,,,86.26000213623047,38.86000061035156
03-12,29.405000686645508,48.790000915527344,,56.8650016784668,65.04000091552734,92.56500244140625,85.70999908447266,,,100.6500015258789,86.9800033569336,32.5
03-13,29.4950008392334,,,58.42499923706055,64.94000244140625,91.45500183105469,85.38999938964844,,94.94999694824219,100.05000305175781,88.56999969482422,34.79999923706055
03-14,,,53.26499938964844,57.34000015258789,65.91500091552734,92.98500061035156,,74.77999877929688,94.58999633789062,99.88999938964844,89.69000244140625,
03-15,,48.44499969482422,52.720001220703125,57.814998626708984,65.20999908447266,,,73.61000061035156,97.05999755859375,98.6500015258789,88.8499984741211,
03-16,30.760000228881836,48.2400016784668,52.244998931884766,58.38999938964844,,,87.9000015258789,75.04000091552734,95.83000183105469,100.44999694824219,,31.100000381469727
03-17,31.549999237060547,47.904998779296875,54.34000015258789,,,93.61499786376953,86.80000305175781,76.5,96.43000030517578,,,30.889999389648438
03-18,31.0049991607666,46.63999938964844,53.96500015258789,,64.46499633789062,94.58000183105469,90.66000366210938,75.62999725341797,,,91.91999816894531,29.760000228881836
03-19,31.6200008392334,45.849998474121094,,58.69499969482422,63.6349983215332,93.76499938964844,89.52999877929688,,,98.47000122070312,92.87999725341797,33.220001220703125
03-20,30.975000381469727,,,57.35499954223633,63.119998931884766,95.16500091552734,90.68000030517578,,96.22000122070312,101.33000183105469,95.88999938964844,34.88999938964844
03-21,,,55.70000076293945,56.904998779296875,61.95000076293945,95.81999969482422,,75.95999908447266,94.52999877929688,104.77999877929688,96.87000274658203,
03-22,,45.75,56.68000030517578,55.17499923706055,62.4900016784668,,,75.9000015258789,94.6500015258789,104.29000091552734,93.68000030517578,
03-23,33.040000915527344,47.06999969482422,57.03499984741211,55.8650016784668,,,89.0,74.33999633789062,94.80999755859375,105.86000061035156,,34.540000915527344
03-24,32.040000915527344,46.28499984741211,57.775001525878906,,,94.80000305175781,88.83999633789062,74.30000305175781,94.86000061035156,,,39.79999923706055
03-25,31.719999313354492,44.709999084472656,58.77000045776367,,61.959999084472656,95.78500366210938,89.95999908447266,,,,92.77999877929688,39.689998626708984
03-26,30.9950008392334,44.79499816894531,,56.08000183105469,64.44999694824219,96.05999755859375,91.36000061035156,,,107.56999969482422,94.7699966430664,39.529998779296875
03-27,29.655000686645508,,,55.63999938964844,64.0999984741211,96.7300033569336,90.55999755859375,,93.37999725341797,106.33000183105469,94.58999633789062,36.0
03-28,,,59.220001220703125,54.814998626708984,64.03500366210938,98.58000183105469,,74.52999877929688,95.29000091552734,103.81999969482422,95.23999786376953,
03-29,,46.47999954223633,59.834999084472656,54.5099983215332,,,,75.44999694824219,97.0,105.2699966430664,95.18000030517578,
03-30,28.329999923706055,46.66999816894531,59.595001220703125,55.54999923706055,,,92.13999938964844,73.66000366210938,97.16999816894531,,,34.97999954223633
03-31,27.3799991607666,46.470001220703125,59.255001068115234,,,98.08499908447266,91.69000244140625,72.58000183105469,97.55000305175781,,,35.91999816894531
04-01,28.565000534057617,47.790000915527344,59.19499969482422,,64.25499725341797,98.9800033569336,91.22000122070312,72.04000091552734,,,96.94000244140625,34.599998474121094
04-02,30.165000915527344,,,56.67499923706055,64.5250015258789,99.11000061035156,92.70999908447266,,,102.93000030517578,96.05000305175781,38.29999923706055
04-03,31.56999969482422,,,56.779998779296875,63.04999923706055,100.6500015258789,,,96.95999908447266,105.06999969482422,93.93000030517578,39.88999938964844
04-04,,,59.185001373291016,55.2599983215332,61.43000030517578,99.7699966430664,,70.30999755859375,98.25,104.16999816894531,93.66999816894531,
04-05,,48.8849983215332,58.459999084472656,54.59000015258789,62.375,,,70.54000091552734,97.58000183105469,104.37999725341797,98.62999725341797,
04-06,30.350000381469727,48.689998626708984,57.404998779296875,,,,94.87000274658203,71.22000122070312,98.05000305175781,101.93000030517578,,39.43000030517578
04-07,28.985000610351562,51.869998931884766,57.33000183105469,,,97.93000030517578,94.2699966430664,71.44999694824219,97.36000061035156,,,41.33000183105469
04-08,29.524999618530273,53.47999954223633,57.33000183105469,,63.44499969482422,98.70999908447266,94.04000091552734,73.47000122070312,,,99.4800033569336,45.290000915527344
04-09,30.674999237060547,52.3849983215332,,53.720001220703125,64.125,98.94999694824219,95.70999908447266,,,103.37999725341797,98.56999969482422,44.81999969482422
04-10,,,,52.0,64.30999755859375,98.11000061035156,96.58999633789062,,98.56999969482422,107.66000366210938,98.7300033569336,
04-11,,,56.334999084472656,51.474998474121094,64.12999725341797,98.62999725341797,,74.01000213623047,97.87999725341797,109.4000015258789,98.7300033569336,
04-12,,53.59000015258789,54.6150016784668,52.61000061035156,62.064998626708984,,,77.51000213623047,97.48999786376953,109.9800033569336,105.30999755859375,
04-13,30.985000610351562,53.689998626708984,55.30500030517578,51.665000915527344,,,94.69000244140625,77.77999877929688,95.63999938964844,111.0199966430664,,43.290000915527344
04-14,30.260000228881836,54.64500045776367,55.36000061035156,,,99.95999908447266,96.45999908447266,77.80999755859375,,,,42.22999954223633
04-15,29.6200008392334,55.25,55.52000045776367,,58.095001220703125,101.11000061035156,97.95999908447266,75.70999908447266,,,102.12000274658203,39.88999938964844
04-16,29.290000915527344,53.73500061035156,,51.3849983215332,59.57500076293945,101.01000213623047,98.0,,,111.0199966430664,102.3499984741211,36.52000045776367
04-17,30.040000915527344,,,52.400001525878906,57.40999984741211,102.44999694824219,97.2300033569336,,95.73999786376953,111.1500015258789,101.83999633789062,41.84000015258789
04-18,,,54.935001373291016,52.084999084472656,57.654998779296875,,,77.44000244140625,94.83000183105469,112.8499984741211,103.87000274658203,
04-19,,53.994998931884766,54.73500061035156,51.97999954223633,56.720001220703125,,,79.12999725341797,93.29000091552734,114.04000091552734,,
04-20,27.985000610351562,55.755001068115234,55.90999984741211,51.51499938964844,,,97.73999786376953,79.37000274658203,93.30000305175781,113.97000122070312,,41.16999816894531
04-21,28.454999923706055,55.935001373291016,55.935001373291016,,,103.52999877929688,96.58999633789062,79.16000366210938,93.58000183105469,,,40.5
04-22,28.18000030517578,56.505001068115234,,,58.20000076293945,102.33999633789062,97.69999694824219,80.91999816894531,,,107.06999969482422,43.150001525878906
04-23,30.059999465942383,56.86000061035156,,51.79999923706055,58.5,105.08000183105469,98.2699966430664,,,114.83999633789062,106.5999984741211,44.220001220703125
04-24,31.584999084472656,,,52.224998474121094,59.96500015258789,103.4800033569336,96.72000122070312,,93.73999786376953,114.58999633789062,103.94000244140625,43.36000061035156
04-25,,,55.16999816894531,53.21500015258789,60.93000030517578,99.04000091552734,,79.76000213623047,95.2699966430664,115.4000015258789,102.08000183105469,
04-26,,56.2400016784668,55.86000061035156,54.2599983215332,59.560001373291016,,,82.77999877929688,94.30999755859375,117.62000274658203,97.87999725341797,
04-27,31.209999084472656,54.314998626708984,55.880001068115234,54.5099983215332,,,97.36000061035156,84.51000213623047,93.0,116.79000091552734,,44.540000915527344
04-28,31.69499969482422,54.709999084472656,55.9900016784668,,,98.05999755859375,98.45999908447266,81.88999938964844,92.5,,,44.97999954223633
04-29,32.869998931884766,55.630001068115234,56.525001525878906,,60.96500015258789,99.62000274658203,99.73999786376953,82.62000274658203,,,97.0,47.720001220703125
04-30,31.739999771118164,56.060001373291016,,54.904998779296875,60.58000183105469,98.0,98.94999694824219,,,118.16999816894531,96.05000305175781,47.5099983215332
05-01,33.040000915527344,,,55.6150016784668,59.415000915527344,97.12000274658203,98.9000015258789,,92.02999877929688,117.55999755859375,91.88999938964844,44.56999969482422
05-02,,,55.470001220703125,54.63999938964844,59.834999084472656,97.05999755859375,,82.77999877929688,91.87000274658203,116.6500015258789,89.16999816894531,
05-03,,56.779998779296875,54.07500076293945,53.85499954223633,61.9900016784668,,,80.62999725341797,91.76000213623047,116.01000213623047,90.9000015258789,
05-04,36.02000045776367,55.119998931884766,53.13999938964844,52.64500045776367,,,99.38999938964844,79.33999633789062,88.5999984741211,114.66000366210938,,46.7400016784668
05-05,35.505001068115234,52.584999084472656,52.17499923706055,,,99.25,94.54000091552734,81.26000213623047,90.87999725341797,,,46.04999923706055
05-06,38.76499938964844,51.185001373291016,53.720001220703125,,63.02000045776367,103.62999725341797,95.08000183105469,78.68000030517578,,,91.23999786376953,45.84000015258789
05-07,36.7599983215332,50.41999816894531,,52.3849983215332,67.84500122070312,104.79000091552734,93.5,,,113.88999938964844,91.77999877929688,48.310001373291016
05-08,38.435001373291016,,,51.994998931884766,68.94999694824219,101.7300033569336,93.5,,91.69000244140625,115.29000091552734,94.02999877929688,51.45000076293945
05-09,,,55.65999984741211,52.54999923706055,68.04000091552734,102.27999877929688,,78.63999938964844,91.63999938964844,117.79000091552734,94.23999786376953,
05-10,,53.244998931884766,55.42499923706055,53.255001068115234,66.79000091552734,,,79.7300033569336,94.54000091552734,118.94999694824219,95.0,
05-11,36.8650016784668,52.369998931884766,53.345001220703125,52.1150016784668,,,91.61000061035156,80.31999969482422,94.27999877929688,117.41000366210938,,49.84000015258789
05-12,36.625,54.189998626708984,52.7599983215332,,,103.63999938964844,93.41000366210938,80.5,94.69999694824219,,,49.720001220703125
05-13,35.15999984741211,54.040000915527344,52.720001220703125,,66.83000183105469,105.16999816894531,91.5999984741211,78.6500015258789,,,93.5,48.20000076293945
05-14,35.68000030517578,53.04499816894531,,50.52000045776367,68.33499908447266,103.9000015258789,90.7300033569336,,,118.68000030517578,94.33999633789062,47.560001373291016
05-15,34.125,,,49.60499954223633,67.34500122070312,102.73999786376953,90.47000122070312,,94.7300033569336,120.2300033569336,94.36000061035156,47.68000030517578
05-16,,,52.349998474121094,49.474998474121094,66.61000061035156,102.5,,80.69000244140625,93.83000183105469,121.5,95.18000030517578,
05-17,,51.6150016784668,52.80500030517578,48.66999816894531,67.625,,,81.56999969482422,92.94999694824219,126.1500015258789,93.0199966430664,
05-18,35.525001525878906,51.41999816894531,53.310001373291016,48.154998779296875,,,91.80000305175781,80.41000366210938,91.69000244140625,125.79000091552734,,52.439998626708984
05-19,36.0099983215332,51.1150016784668,52.994998931884766,,,102.30000305175781,90.26000213623047,80.08000183105469,93.80999755859375,,,50.65999984741211
05-20,36.220001220703125,48.14500045776367,53.42499923706055,,67.80500030517578,101.88999938964844,90.45999908447266,80.91999816894531,,,93.68000030517578,52.650001525878906
05-21,34.875,50.29499816894531,,50.099998474121094,67.13999938964844,104.16000366210938,91.48999786376953,,,127.44999694824219,95.62999725341797,52.31999969482422
05-22,34.595001220703125,,,50.665000915527344,65.46499633789062,103.68000030517578,90.26000213623047,,93.11000061035156,123.76000213623047,92.91000366210938,52.279998779296875
05-23,,,52.125,50.849998474121094,65.69999694824219,103.97000122070312,,81.2699966430664,92.52999877929688,122.9800033569336,88.8499984741211,
05-24,,48.68000030517578,53.029998779296875,50.39500045776367,65.41500091552734,,,82.48999786376953,92.66999816894531,119.9800033569336,87.16000366210938,
05-25,,49.35499954223633,53.599998474121094,50.875,,,,83.08000183105469,91.0199966430664,117.76000213623047,,
05-26,34.6349983215332,49.869998931884766,53.6150016784668,,,,89.1500015258789,82.30000305175781,91.22000122070312,,,51.439998626708984
05-27,34.1349983215332,53.255001068115234,54.07500076293945,,,104.7300033569336,89.0,81.56999969482422,,,,52.72999954223633
05-28,36.30500030517578,52.41999816894531,,,65.55999755859375,105.19000244140625,89.1500015258789,,,,87.11000061035156,51.63999938964844
05-29,36.595001220703125,,,52.43000030517578,66.41500091552734,106.66999816894531,88.69000244140625,,,116.20999908447266,86.43000030517578,50.970001220703125
05-30,,,,50.494998931884766,66.34500122070312,105.80000305175781,,,89.62000274658203,119.76000213623047,83.95999908447266,
05-31,,,54.56999969482422,49.650001525878906,64.55000305175781,,,81.36000061035156,90.30999755859375,117.80999755859375,81.87999725341797,
06-01,38.36000061035156,50.415000915527344,54.095001220703125,45.834999084472656,,,88.76000213623047,80.75,90.4000015258789,118.3499984741211,,51.810001373291016
06-02,38.10499954223633,53.875,55.45500183105469,,,105.37999725341797,89.7699966430664,80.48999786376953,89.68000030517578,,,54.810001373291016
06-03,36.28499984741211,54.8650016784668,55.279998779296875,,65.875,106.66000366210938,89.01000213623047,79.70999908447266,,,82.94999694824219,55.369998931884766
06-04,36.60499954223633,51.494998931884766,,45.20000076293945,66.08000183105469,106.37000274658203,87.37999725341797,,,118.66999816894531,84.27999877929688,55.150001525878906
06-05,36.755001068115234,,,45.935001373291016,64.26000213623047,107.9000015258789,89.68000030517578,,89.19999694824219,116.58000183105469,82.02999877929688,59.310001373291016
06-06,,,54.529998779296875,47.459999084472656,65.31999969482422,109.31999969482422,,81.2699966430664,90.83000183105469,116.13999938964844,84.2699966430664,
06-07,,50.56999969482422,54.025001525878906,47.724998474121094,66.33999633789062,,,85.41999816894531,88.1500015258789,117.93000030517578,84.5999984741211,
06-08,36.849998474121094,52.68000030517578,54.470001220703125,46.939998626708984,,,89.11000061035156,85.36000061035156,88.11000061035156,117.66999816894531,,62.11000061035156
06-09,37.32500076293945,51.904998779296875,55.38999938964844,,,109.51000213623047,89.08999633789062,84.58000183105469,90.08000183105469,,,59.470001220703125
06-10,37.625,54.3849983215332,53.834999084472656,,65.80999755859375,108.69000244140625,90.41000366210938,81.55999755859375,,,85.19999694824219,55.630001068115234
06-11,38.54499816894531,54.93000030517578,,45.96500015258789,64.55500030517578,110.69999694824219,90.6500015258789,,,118.01000213623047,86.5,51.150001525878906
06-12,38.810001373291016,,,47.084999084472656,64.81500244140625,111.62999725341797,89.52999877929688,,89.87999725341797,118.47000122070312,85.02999877929688,52.56999969482422
06-13,,,52.35499954223633,46.349998474121094,66.66500091552734,114.0199966430664,,81.38999938964844,90.55999755859375,118.25,86.48999786376953,
06-14,,54.474998474121094,52.51499938964844,47.22999954223633,65.87000274658203,,,82.9800033569336,88.93000030517578,117.52999877929688,85.16999816894531,
06-15,38.125,55.18000030517578,51.435001373291016,48.31999969482422,,,89.22000122070312,82.44000244140625,87.04000091552734,114.18000030517578,,52.209999084472656
06-16,36.93000030517578,55.19499969482422,50.80500030517578,,,114.02999877929688,90.08000183105469,80.18000030517578,88.5199966430664,,,54.599998474121094
06-17,36.625,55.029998779296875,51.125,,66.66500091552734,112.38999938964844,89.0199966430664,80.88999938964844,,,85.47000122070312,52.47999954223633
06-18,36.04999923706055,55.11000061035156,,47.3650016784668,67.51000213623047,113.54000091552734,88.80999755859375,,,116.62000274658203,88.30000305175781,52.93000030517578
06-19,34.959999084472656,,,47.974998474121094,67.79499816894531,115.80000305175781,88.2699966430664,,88.06999969482422,117.08000183105469,88.6500015258789,52.29999923706055
06-20,,,50.45000076293945,46.470001220703125,65.49500274658203,117.9800033569336,,83.19000244140625,87.8499984741211,119.43000030517578,91.44999694824219,
06-21,,55.30500030517578,51.095001220703125,43.2400016784668,65.19999694824219,,,84.91000366210938,87.12000274658203,116.5999984741211,92.37000274658203,
06-22,33.7400016784668,53.224998474121094,50.66999816894531,43.810001373291016,,,88.08000183105469,83.5999984741211,87.69000244140625,118.51000213623047,,52.41999816894531
06-23,33.64500045776367,53.41999816894531,50.08000183105469,,,117.41000366210938,88.79000091552734,84.5,87.79000091552734,,,52.459999084472656
06-24,33.65999984741211,52.29499816894531,49.1349983215332,,63.70500183105469,113.0199966430664,88.33999633789062,81.05999755859375,,,90.55999755859375,48.95000076293945
06-25,34.314998626708984,54.88999938964844,,42.45000076293945,65.07499694824219,116.0199966430664,87.6500015258789,,,116.83000183105469,90.04000091552734,50.72999954223633
06-26,33.779998779296875,,,41.97999954223633,65.92500305175781,115.41999816894531,88.05999755859375,,87.38999938964844,119.68000030517578,93.08999633789062,48.7599983215332
06-27,,,50.165000915527344,42.8650016784668,65.50499725341797,115.83999633789062,,78.58999633789062,88.0,123.93000030517578,92.11000061035156,
06-28,,52.709999084472656,51.20500183105469,42.58000183105469,65.83999633789062,,,81.75,89.0199966430664,123.5,93.16000366210938,
06-29,33.47999954223633,50.119998931884766,51.54999923706055,45.05500030517578,,,86.25,83.44000244140625,90.0,124.43000030517578,,49.650001525878906
06-30,33.959999084472656,49.185001373291016,52.275001525878906,,,116.86000061035156,87.55000305175781,83.41999816894531,90.5199966430664,,,50.65999984741211
07-01,33.52000045776367,49.540000915527344,51.540000915527344,,67.65499877929688,116.55000305175781,85.7699966430664,84.77999877929688,,,93.08999633789062,49.86000061035156
07-02,32.1150016784668,49.16999816894531,,44.470001220703125,68.94000244140625,116.2300033569336,85.66999816894531,,,122.4000015258789,87.55999755859375,50.52000045776367
07-03,,,,47.44499969482422,69.08999633789062,116.75,,,92.37000274658203,122.43000030517578,87.19999694824219,
07-05,,,51.619998931884766,46.0,70.19999694824219,,,82.76000213623047,90.30000305175781,123.22000122070312,88.56999969482422,
07-06,31.315000534057617,49.92499923706055,51.1349983215332,45.31999969482422,,,85.08999633789062,82.76000213623047,88.62999725341797,124.3499984741211,,50.40999984741211
07-07,30.290000915527344,51.900001525878906,51.775001525878906,,,115.7300033569336,86.72000122070312,81.61000061035156,88.44000244140625,,,48.11000061035156
07-08,30.885000228881836,53.11000061035156,50.959999084472656,,69.87999725341797,115.9800033569336,84.48999786376953,82.54000091552734,,,90.1500015258789,47.439998626708984
07-09,31.309999465942383,52.78499984741211,,45.744998931884766,71.11000061035156,116.55999755859375,85.30000305175781,,,126.12999725341797,89.1500015258789,44.34000015258789
07-10,31.25,,,44.67499923706055,71.13500213623047,114.95999908447266,84.54000091552734,,89.62000274658203,126.97000122070312,90.66000366210938,45.400001525878906
07-11,,,49.505001068115234,45.939998626708984,71.7750015258789,113.6500015258789,,82.9000015258789,90.62999725341797,124.66000366210938,90.83999633789062,
07-12,,52.77000045776367,49.44499969482422,45.525001525878906,72.3550033569336,,,85.13999938964844,90.56999969482422,124.13999938964844,90.9000015258789,
07-13,31.915000915527344,53.404998779296875,49.470001220703125,46.46500015258789,,,84.20999908447266,83.83999633789062,91.80999755859375,125.95999908447266,,44.95000076293945
07-14,32.334999084472656,53.31999969482422,48.35499954223633,,,115.69000244140625,85.2300033569336,84.62999725341797,91.87000274658203,,,47.279998779296875
07-15,33.2400016784668,53.095001220703125,50.595001220703125,,71.7699966430664,113.44000244140625,83.25,84.0999984741211,,,88.75,47.459999084472656
07-16,34.625,51.13999938964844,,46.619998931884766,72.27999877929688,117.0999984741211,82.4000015258789,,,124.61000061035156,87.0,47.81999969482422
07-17,34.79499816894531,,,47.619998931884766,72.91500091552734,115.55000305175781,80.5,,91.9000015258789,124.31999969482422,85.19000244140625,47.15999984741211
07-18,,,50.7599983215332,48.349998474121094,73.5,116.04000091552734,,83.25,91.69999694824219,123.58000183105469,85.43000030517578,
07-19,,51.005001068115234,52.01499938964844,49.125,74.33499908447266,,,82.04000091552734,94.30999755859375,122.38999938964844,87.04000091552734,
07-20,36.150001525878906,52.07500076293945,51.904998779296875,49.6150016784668,,,77.93000030517578,82.11000061035156,93.66000366210938,122.3499984741211,,47.70000076293945
07-21,36.29499816894531,51.209999084472656,52.779998779296875,,,116.1500015258789,77.33000183105469,81.48999786376953,92.91000366210938,,,50.41999816894531
07-22,35.70000076293945,51.599998474121094,53.28499984741211,,74.74500274658203,116.55000305175781,76.08999633789062,80.9800033569336,,,87.20999908447266,50.189998626708984
07-23,36.904998779296875,51.165000915527344,,48.599998474121094,74.31999969482422,115.94999694824219,76.31999969482422,,,122.86000061035156,87.58999633789062,48.849998474121094
07-24,37.345001220703125,,,47.75,72.03500366210938,116.19999694824219,75.16000366210938,,93.30999755859375,125.62000274658203,87.68000030517578,49.040000915527344
07-25,,,53.10499954223633,47.845001220703125,73.68499755859375,114.81999969482422,,78.75,94.87000274658203,128.3800048828125,85.47000122070312,
07-26,,51.86000061035156,53.28499984741211,48.709999084472656,72.87000274658203,,,80.44999694824219,94.75,128.86000061035156,84.29000091552734,
07-27,37.150001525878906,50.279998779296875,52.03499984741211,50.505001068115234,,,73.19000244140625,79.77999877929688,95.9800033569336,129.14999389648438,,48.560001373291016
07-28,36.720001220703125,50.279998779296875,51.71500015258789,,,113.38999938964844,76.8499984741211,79.9000015258789,95.41999816894531,,,47.27000045776367
07-29,35.45000076293945,50.290000915527344,51.0,,72.3550033569336,114.23999786376953,77.73999786376953,81.69999694824219,,,83.91999816894531,48.5
07-30,36.45000076293945,48.75,,49.779998779296875,72.05000305175781,113.62999725341797,78.54000091552734,,,129.89999389648438,86.05999755859375,46.58000183105469
07-31,37.01499938964844,,,49.005001068115234,72.74500274658203,109.44000244140625,77.19000244140625,,95.13999938964844,128.94000244140625,85.8499984741211,46.849998474121094
08-01,,,50.810001373291016,50.224998474121094,76.03500366210938,108.04000091552734,,78.69999694824219,94.45999908447266,125.56999969482422,81.06999969482422,
08-02,,51.255001068115234,49.60499954223633,48.060001373291016,76.51499938964844,,,79.88999938964844,92.31999969482422,125.93000030517578,82.45999908447266,
08-03,38.32500076293945,50.849998474121094,48.9900016784668,53.375,,,76.44000244140625,82.37000274658203,88.9000015258789,122.41000366210938,,46.369998931884766
08-04,38.724998474121094,51.5,46.064998626708984,,,111.80999755859375,76.73999786376953,84.23999786376953,90.44999694824219,,,48.459999084472656
08-05,39.0099983215332,51.220001220703125,47.959999084472656,,77.08999633789062,108.62999725341797,76.08999633789062,90.16000366210938,,,79.0,50.75
08-06,39.11000061035156,49.630001068115234,,52.869998931884766,76.61000061035156,106.63999938964844,77.68000030517578,,,123.9000015258789,78.27999877929688,50.88999938964844
08-07,37.3650016784668,,,54.369998931884766,78.11000061035156,106.05999755859375,73.76000213623047,,89.66999816894531,124.43000030517578,77.55000305175781,48.810001373291016
08-08,,,44.29999923706055,53.95000076293945,79.29000091552734,107.77999877929688,,90.66000366210938,91.1500015258789,122.7699966430664,80.36000061035156,
08-09,,49.970001220703125,45.43000030517578,54.70500183105469,79.41999816894531,,,90.37999725341797,90.3499984741211,122.30999755859375,79.37000274658203,
08-10,38.099998474121094,50.349998474121094,43.494998931884766,54.994998931884766,,,76.2699966430664,89.41999816894531,89.12000274658203,122.7699966430664,,50.459999084472656
08-11,36.880001068115234,48.57500076293945,46.56999969482422,,,108.30000305175781,77.30000305175781,90.27999877929688,88.52999877929688,,,49.41999816894531
08-12,37.095001220703125,47.68000030517578,47.07500076293945,,79.37999725341797,106.69000244140625,79.93000030517578,91.19999694824219,,,77.91999816894531,49.09000015258789
08-13,37.78499984741211,47.084999084472656,,54.650001525878906,79.12000274658203,106.3499984741211,79.68000030517578,,,121.5,78.5199966430664,47.41999816894531
08-14,37.345001220703125,,,55.17499923706055,78.19999694824219,103.93000030517578,79.93000030517578,,87.98999786376953,123.06999969482422,75.0199966430664,47.970001220703125
08-15,,,48.14500045776367,54.90999984741211,78.29499816894531,106.08999633789062,,90.55000305175781,87.0199966430664,115.44000244140625,74.94000244140625,
08-16,,47.04499816894531,47.290000915527344,55.494998931884766,77.74500274658203,,,90.26000213623047,84.9800033569336,115.91000366210938,75.91999816894531,
08-17,35.91999816894531,47.58000183105469,47.0,55.595001220703125,,,80.01000213623047,90.22000122070312,83.37999725341797,114.7699966430664,,46.540000915527344
08-18,36.165000915527344,46.67499923706055,43.814998626708984,,,105.43000030517578,80.41000366210938,91.7300033569336,84.08999633789062,,,46.349998474121094
08-19,36.90999984741211,45.7599983215332,43.78499984741211,,76.34500122070312,107.02999877929688,77.06999969482422,91.76000213623047,,,77.80999755859375,45.61000061035156
08-20,36.779998779296875,45.709999084472656,,54.78499984741211,77.30999755859375,107.27999877929688,76.7300033569336,,,114.7699966430664,76.69000244140625,44.099998474121094
08-21,37.89500045776367,,,54.3849983215332,75.91999816894531,107.19000244140625,74.86000061035156,,83.69000244140625,115.48999786376953,77.22000122070312,43.38999938964844
08-22,,,43.17499923706055,54.45500183105469,77.19999694824219,106.2699966430664,,91.16999816894531,84.23999786376953,117.31999969482422,75.51000213623047,
08-23,,45.8650016784668,44.48500061035156,53.505001068115234,78.30999755859375,,,91.20999908447266,85.11000061035156,116.4000015258789,71.75,
08-24,37.915000915527344,44.30500030517578,44.959999084472656,54.45500183105469,,,69.26000213623047,90.7300033569336,84.62000274658203,117.45999908447266,,44.33000183105469
08-25,37.20500183105469,43.72999954223633,44.130001068115234,,,107.94000244140625,68.36000061035156,90.25,84.51000213623047,,,44.380001068115234
08-26,36.9900016784668,43.310001373291016,44.92499923706055,,78.55500030517578,109.4000015258789,70.98999786376953,90.18000030517578,,,72.25,43.2599983215332
08-27,36.47999954223633,44.70000076293945,,54.584999084472656,78.1449966430664,108.61000061035156,75.79000091552734,,,118.6500015258789,71.66000366210938,44.95000076293945
08-28,36.625,,,54.40999984741211,79.7300033569336,108.38999938964844,77.30999755859375,,83.4000015258789,117.97000122070312,72.52999877929688,46.209999084472656
08-29,,,45.775001525878906,54.025001525878906,78.54499816894531,109.87999725341797,,91.13999938964844,83.1500015258789,118.77999877929688,74.4800033569336,
08-30,,43.779998779296875,46.099998474121094,52.94499969482422,78.5250015258789,,,90.06999969482422,83.66999816894531,118.91000366210938,74.19000244140625,
08-31,36.0,43.435001373291016,46.29499816894531,54.150001525878906,,,78.30999755859375,88.48999786376953,84.98999786376953,118.2300033569336,,45.34000015258789
09-01,35.310001373291016,44.970001220703125,45.709999084472656,,,,76.0199966430664,88.55000305175781,85.6500015258789,,,45.209999084472656
09-02,34.959999084472656,44.744998931884766,44.17499923706055,,,107.70999908447266,77.70999908447266,88.91000366210938,,,,43.70000076293945
09-03,34.880001068115234,45.165000915527344,,,79.21499633789062,107.73999786376953,77.44999694824219,,,,74.12999725341797,43.130001068115234
09-04,35.23500061035156,,,54.65999984741211,80.26499938964844,104.61000061035156,76.88999938964844,,,117.68000030517578,75.56999969482422,43.13999938964844
09-05,,,,54.27000045776367,80.71499633789062,105.18000030517578,,,85.87000274658203,117.88999938964844,75.5999984741211,
09-06,,,43.47999954223633,56.20500183105469,80.86000061035156,,,94.83000183105469,87.8499984741211,115.5,76.44000244140625,
09-07,,44.35499954223633,45.334999084472656,56.439998626708984,,,,94.31999969482422,88.5999984741211,114.47000122070312,,
09-08,36.81999969482422,45.1349983215332,44.625,,,101.41000366210938,77.66000366210938,95.43000030517578,86.77999877929688,,,40.83000183105469
09-09,37.220001220703125,44.685001373291016,42.65999984741211,,81.82499694824219,101.30999755859375,76.93000030517578,92.6500015258789,,,80.0,41.86000061035156
09-10,38.40999984741211,46.099998474121094,,56.20000076293945,81.75,102.01000213623047,78.05999755859375,,,114.31999969482422,80.0999984741211,38.0
09-11,37.974998474121094,,,56.21500015258789,83.57499694824219,103.05999755859375,77.1500015258789,,87.93000030517578,116.22000122070312,81.02999877929688,39.04999923706055
09-12,,,43.05500030517578,56.4900016784668,83.99500274658203,101.31999969482422,,92.9800033569336,88.47000122070312,116.94000244140625,79.68000030517578,
09-13,,46.14500045776367,43.375,57.59000015258789,83.22000122070312,,,90.4000015258789,91.0999984741211,116.62000274658203,79.38999938964844,
09-14,38.54499816894531,46.099998474121094,43.875,58.810001373291016,,,76.43000030517578,88.44999694824219,91.77999877929688,117.81999969482422,,39.16999816894531
09-15,39.93000030517578,45.790000915527344,45.20000076293945,,,101.91000366210938,77.25,90.94999694824219,93.22000122070312,,,38.59000015258789
09-16,41.6150016784668,45.5,45.08000183105469,,82.9000015258789,105.22000122070312,79.94000244140625,90.97000122070312,,,85.63999938964844,40.86000061035156
09-17,41.28499984741211,44.55500030517578,,58.20000076293945,83.88500213623047,105.19000244140625,79.66000366210938,,,117.54000091552734,81.22000122070312,41.189998626708984
09-18,40.93000030517578,,,57.939998626708984,85.8949966430664,104.9800033569336,76.26000213623047,,93.05000305175781,119.44999694824219,81.31999969482422,40.709999084472656
09-19,,,43.880001068115234,56.78499984741211,85.36499786376953,104.37000274658203,,90.05000305175781,93.12999725341797,120.16999816894531,81.61000061035156,
09-20,,43.8650016784668,43.560001373291016,56.775001525878906,84.43499755859375,,,90.4000015258789,94.18000030517578,119.20999908447266,81.0,
09-21,40.63999938964844,44.810001373291016,41.71500015258789,56.974998474121094,,,76.5199966430664,93.5199966430664,93.88999938964844,119.45999908447266,,38.810001373291016
09-22,42.01499938964844,45.18000030517578,38.375,,,101.73999786376953,75.22000122070312,92.61000061035156,94.55000305175781,,,38.45000076293945
09-23,41.10499954223633,44.834999084472656,36.86000061035156,,84.43000030517578,100.83999633789062,73.04000091552734,89.75,,,80.12999725341797,36.380001068115234
09-24,40.025001525878906,46.05500030517578,,56.60499954223633,86.04499816894531,102.13999938964844,73.26000213623047,,,123.98999786376953,78.55999755859375,36.650001525878906
09-25,39.470001220703125,,,56.209999084472656,85.69000244140625,100.36000061035156,72.79000091552734,,96.29000091552734,125.63999938964844,76.7699966430664,37.45000076293945
09-26,,,38.34000015258789,55.29999923706055,86.04499816894531,101.87999725341797,,89.26000213623047,96.87000274658203,125.30999755859375,75.08999633789062,
09-27,,45.625,39.30500030517578,56.599998474121094,85.36499786376953,,,88.55999755859375,97.31999969482422,127.0,74.9800033569336,
09-28,40.064998626708984,45.88999938964844,37.14500045776367,56.025001525878906,,,69.43000030517578,93.95999908447266,96.81999969482422,127.56999969482422,,37.439998626708984
09-29,40.81999969482422,46.90999984741211,36.88999938964844,,,101.87000274658203,70.12999725341797,95.05000305175781,96.73999786376953,,,36.189998626708984
09-30,41.755001068115234,46.48500061035156,35.505001068115234,,84.63999938964844,99.0199966430664,72.80000305175781,96.70999908447266,,,74.22000122070312,35.939998626708984
10-01,40.525001525878906,48.084999084472656,,57.095001220703125,86.07499694824219,96.8499984741211,73.58999633789062,,,129.49000549316406,71.58000183105469,34.86000061035156
10-02,40.380001068115234,,,57.56999969482422,86.18000030517578,97.05999755859375,77.05999755859375,,97.18000030517578,130.0,69.80000305175781,34.810001373291016
10-03,,,34.20500183105469,55.540000915527344,85.9000015258789,96.56999969482422,,96.11000061035156,96.5,130.3800048828125,70.83999633789062,
10-04,,47.86000061035156,36.83000183105469,55.709999084472656,87.29499816894531,,,95.13999938964844,96.33000183105469,130.22999572753906,70.91999816894531,
10-05,41.255001068115234,48.665000915527344,38.400001525878906,54.95500183105469,,,80.6500015258789,97.37999725341797,96.55000305175781,131.0500030517578,,36.459999084472656
10-06,42.290000915527344,49.2599983215332,39.27000045776367,,,95.08999633789062,82.83999633789062,97.13999938964844,96.19000244140625,,,35.9900016784668
10-07,42.35499954223633,49.279998779296875,37.45000076293945,,86.41500091552734,93.61000061035156,83.7699966430664,96.44000244140625,,,69.76000213623047,36.709999084472656
10-08,44.845001220703125,49.72999954223633,,54.90999984741211,85.7300033569336,94.55999755859375,87.04000091552734,,,129.8300018310547,68.7300033569336,37.66999816894531
10-09,44.79999923706055,,,55.525001525878906,85.76000213623047,91.95999908447266,87.30000305175781,,96.5,132.35000610351562,68.58999633789062,37.560001373291016
10-10,,,39.70500183105469,54.75,87.43000030517578,89.83000183105469,,97.29000091552734,96.77999877929688,126.47000122070312,68.91000366210938,
10-11,,49.779998779296875,40.06999969482422,54.915000915527344,89.49500274658203,,,96.05000305175781,96.93000030517578,121.62000274658203,69.25,
10-12,45.290000915527344,49.45500183105469,40.474998474121094,54.38999938964844,,,86.02999877929688,96.30000305175781,96.6500015258789,122.18000030517578,,38.209999084472656
10-13,44.814998626708984,49.375,40.11000061035156,,,83.76000213623047,85.27999877929688,95.5,96.62000274658203,,,38.63999938964844
10-14,45.720001220703125,49.505001068115234,41.9900016784668,,90.52999877929688,83.83999633789062,85.77999877929688,94.4800033569336,,,68.19000244140625,37.619998931884766
10-15,46.56999969482422,50.02000045776367,,55.125,89.98500061035156,88.16999816894531,87.13999938964844,,,122.56999969482422,69.25,38.08000183105469
10-16,46.404998779296875,,,56.869998931884766,91.1449966430664,91.2699966430664,87.5,,97.20999908447266,122.26000213623047,68.18000030517578,37.41999816894531
10-17,,,40.70500183105469,57.619998931884766,90.69499969482422,91.22000122070312,,93.77999877929688,97.44999694824219,120.13999938964844,66.7699966430664,
10-18,,50.665000915527344,43.0099983215332,57.375,91.8949966430664,,,93.12999725341797,96.66000366210938,118.55000305175781,64.44000244140625,
10-19,47.17499923706055,49.7400016784668,43.935001373291016,56.53499984741211,,,84.80999755859375,95.05999755859375,95.76000213623047,117.66999816894531,,36.189998626708984
10-20,47.20500183105469,50.060001373291016,43.66999816894531,,,92.76000213623047,84.87000274658203,94.91000366210938,96.83999633789062,,,36.279998779296875
10-21,46.470001220703125,49.400001525878906,45.310001373291016,,92.16000366210938,96.02999877929688,83.77999877929688,93.87999725341797,,,67.66000366210938,35.119998931884766
10-22,45.724998474121094,48.654998779296875,,56.05500030517578,92.57499694824219,92.06999969482422,85.80000305175781,,,116.25,69.56999969482422,36.93000030517578
10-23,44.58000183105469,,,55.08000183105469,89.22000122070312,93.4000015258789,85.43000030517578,,96.97000122070312,111.12000274658203,71.94000244140625,37.5099983215332
10-24,,,45.540000915527344,55.349998474121094,90.71499633789062,92.0999984741211,,93.62000274658203,96.4800033569336,106.13999938964844,71.97000122070312,
10-25,,48.72999954223633,43.7599983215332,56.209999084472656,91.72000122070312,,,92.66999816894531,96.1500015258789,107.12000274658203,72.4800033569336,
10-26,43.43000030517578,47.875,43.709999084472656,57.04499816894531,,,83.38999938964844,92.13999938964844,96.91999816894531,106.55999755859375,,34.93000030517578
10-27,43.3849983215332,47.880001068115234,46.41999816894531,,,88.43000030517578,82.69999694824219,91.73999786376953,98.47000122070312,,,34.58000183105469
10-28,42.1349983215332,47.470001220703125,47.59000015258789,,91.20999908447266,91.5,84.79000091552734,90.80000305175781,,,71.05000305175781,32.5099983215332
10-29,42.91999816894531,47.86000061035156,,,92.54000091552734,93.12999725341797,85.5199966430664,,,102.04000091552734,71.80999755859375,33.970001220703125
10-30,40.83000183105469,,,,90.16500091552734,92.22000122070312,85.8499984741211,,99.52999877929688,105.51000213623047,69.62000274658203,34.2400016784668
10-31,,,44.71500015258789,58.244998931884766,89.19999694824219,95.05000305175781,,90.41999816894531,99.87000274658203,105.33999633789062,69.30999755859375,
11-01,,48.03499984741211,42.939998626708984,58.439998626708984,89.48999786376953,,,91.16000366210938,102.29000091552734,106.88999938964844,71.1500015258789,
11-02,40.98500061035156,48.869998931884766,48.02000045776367,57.599998474121094,,,86.06999969482422,90.94000244140625,102.94999694824219,102.3499984741211,,35.150001525878906
11-03,41.5,44.31999969482422,50.01499938964844,,,93.31999969482422,88.44999694824219,92.08000183105469,104.5,,,35.02000045776367
11-04,42.650001525878906,44.14500045776367,50.84000015258789,,91.7300033569336,90.27999877929688,86.47000122070312,91.80000305175781,,,73.69000244140625,36.040000915527344
11-05,44.01499938964844,44.30500030517578,,58.404998779296875,89.86499786376953,96.0999984741211,86.47000122070312,,,106.3499984741211,74.01000213623047,35.599998474121094
11-06,45.17499923706055,,,60.9900016784668,88.31999969482422,98.97000122070312,85.2699966430664,,106.95999908447266,107.33000183105469,71.41999816894531,34.58000183105469
11-07,,,50.584999084472656,60.0,85.79000091552734,99.55000305175781,,93.43000030517578,106.08999633789062,109.1500015258789,74.73999786376953,
11-08,,44.72999954223633,50.95500183105469,57.8849983215332,85.4800033569336,,,93.36000061035156,104.33000183105469,104.8499984741211,74.69999694824219,
11-09,46.20000076293945,45.994998931884766,49.1150016784668,57.2599983215332,,,85.37000274658203,93.43000030517578,104.77999877929688,105.51000213623047,,40.310001373291016
11-10,45.59000015258789,46.939998626708984,50.02000045776367,,,98.5,86.58000183105469,92.62999725341797,104.58000183105469,,,42.189998626708984
11-11,45.125,47.05500030517578,52.005001068115234,,85.7249984741211,98.75,83.31999969482422,91.41000366210938,,,73.81999969482422,41.90999984741211
11-12,44.43000030517578,46.025001525878906,,57.380001068115234,83.55000305175781,97.55999755859375,81.69000244140625,,,101.25,73.29000091552734,40.4900016784668
11-13,44.25,,,57.63999938964844,84.7300033569336,95.8499984741211,82.25,,104.45999908447266,98.5199966430664,72.61000061035156,42.66999816894531
11-14,,,51.8849983215332,56.68000030517578,84.83499908447266,98.16000366210938,,92.68000030517578,102.47000122070312,98.06999969482422,72.3499984741211,
11-15,,46.21500015258789,51.18000030517578,58.08000183105469,85.69000244140625,,,94.56999969482422,101.36000061035156,101.58999633789062,73.4800033569336,
11-16,45.26499938964844,45.525001525878906,50.345001220703125,58.334999084472656,,,84.79000091552734,95.22000122070312,101.43000030517578,105.19999694824219,,45.349998474121094
11-17,44.9900016784668,45.084999084472656,48.5099983215332,,,96.3499984741211,82.9800033569336,92.33999633789062,101.63999938964844,,,45.66999816894531
11-18,44.369998931884766,46.05500030517578,48.91999816894531,,84.26000213623047,97.66999816894531,85.1500015258789,93.1500015258789,,,71.26000213623047,46.95500183105469
11-19,43.459999084472656,46.47999954223633,,59.30500030517578,83.94499969482422,98.33000183105469,82.6500015258789,,,105.70999908447266,70.4000015258789,
11-20,43.23500061035156,,,58.70000076293945,83.45999908447266,99.44000244140625,82.62999725341797,,101.44000244140625,102.36000061035156,72.05999755859375,
11-21,,,48.005001068115234,59.06999969482422,84.65499877929688,101.73999786376953,,95.66999816894531,101.66000366210938,106.0,73.31999969482422,
11-22,,46.25,47.4900016784668,,85.07499694824219,,,95.2699966430664,101.58999633789062,,72.98999786376953,
11-23,44.09000015258789,44.349998474121094,45.80500030517578,59.494998931884766,,,82.56999969482422,97.0,,100.69999694824219,,
11-24,44.275001525878906,44.900001525878906,,,,99.55999755859375,85.13999938964844,,101.66000366210938,,,
11-25,44.85499954223633,,45.435001373291016,,84.59500122070312,96.73999786376953,83.52999877929688,95.9800033569336,,,73.5199966430664,
11-26,,44.459999084472656,,58.32500076293945,84.5999984741211,94.06999969482422,,,,102.54000091552734,71.91000366210938,
11-27,43.6150016784668,,,57.540000915527344,83.21499633789062,,82.0199966430664,,99.81999969482422,101.94999694824219,72.3499984741211,
11-28,,,47.79499816894531,58.17499923706055,,86.72000122070312,,93.47000122070312,99.83999633789062,103.7699966430664,,
11-29,,44.61000061035156,49.1150016784668,58.81999969482422,82.5,,,92.44000244140625,100.5,105.47000122070312,70.9000015258789,
11-30,43.244998931884766,44.474998474121094,51.869998931884766,58.810001373291016,,,83.43000030517578,102.5199966430664,102.31999969482422,103.30999755859375,,
12-01,44.14500045776367,45.814998626708984,51.26499938964844,,,87.23999786376953,84.05000305175781,104.75,102.91000366210938,,,
12-02,43.54499816894531,46.93000030517578,51.279998779296875,,82.5,90.30000305175781,80.86000061035156,103.73999786376953,,,70.79000091552734,
12-03,43.43000030517578,46.869998931884766,,58.619998931884766,82.73999786376953,91.80000305175781,80.98999786376953,,,108.11000061035156,68.77999877929688,
12-04,43.53499984741211,,,58.59000015258789,83.56500244140625,93.0,80.48999786376953,,101.05000305175781,104.06999969482422,72.05000305175781,
12-05,,,51.05500030517578,59.36000061035156,82.69000244140625,90.75,,104.45999908447266,100.9000015258789,,70.58999633789062,
12-06,,47.189998626708984,52.44499969482422,59.18000030517578,80.0199966430664,,,103.97000122070312,98.86000061035156,102.12999725341797,73.95999908447266,
12-07,43.6349983215332,46.35499954223633,51.51499938964844,58.67499923706055,,,76.19000244140625,103.52999877929688,99.72000122070312,103.61000061035156,,
12-08,42.625,46.099998474121094,50.314998626708984,,,88.19000244140625,77.11000061035156,104.93000030517578,100.38999938964844,,,
12-09,42.845001220703125,46.1150016784668,51.875,,79.06999969482422,89.1500015258789,78.37999725341797,106.44999694824219,,,74.51000213623047,
12-10,43.334999084472656,45.375,,58.8650016784668,79.65499877929688,86.79000091552734,78.18000030517578,,,101.70999908447266,74.83999633789062,
12-11,43.025001525878906,,,59.3650016784668,78.12999725341797,86.86000061035156,74.88999938964844,,101.20999908447266,102.06999969482422,74.66999816894531,
12-12,,,50.525001525878906,60.369998931884766,79.18000030517578,86.37000274658203,,105.83000183105469,100.27999877929688,103.93000030517578,76.70999908447266,
12-13,,45.349998474121094,49.25,59.255001068115234,79.51000213623047,,,108.01000213623047,99.94000244140625,102.83000183105469,75.48999786376953,
12-14,45.19499969482422,45.82500076293945,46.584999084472656,59.494998931884766,,,76.86000061035156,104.20999908447266,99.63999938964844,100.08000183105469,,
12-15,45.900001525878906,45.060001373291016,47.220001220703125,,,85.33999633789062,77.30000305175781,103.91999816894531,98.55000305175781,,,
12-16,46.654998779296875,45.255001068115234,48.84000015258789,,79.87000274658203,85.47000122070312,75.80000305175781,104.0,,,77.91000366210938,
12-17,46.26499938964844,45.834999084472656,,60.48500061035156,79.82499694824219,91.13999938964844,73.30000305175781,,,96.20999908447266,78.80999755859375,
12-18,46.474998474121094,,,61.959999084472656,81.0,92.44999694824219,71.43000030517578,,99.91000366210938,94.01000213623047,80.58999633789062,
12-19,,,47.78499984741211,61.224998474121094,82.66500091552734,95.0199966430664,,103.4800033569336,101.43000030517578,92.9800033569336,81.25,
12-20,,45.72999954223633,48.98500061035156,62.185001373291016,84.26000213623047,,,103.16000366210938,103.54000091552734,89.73999786376953,82.66000366210938,
12-21,47.345001220703125,45.82500076293945,49.09000015258789,61.78499984741211,,,70.25,102.55000305175781,106.3499984741211,87.26000213623047,,
12-22,48.8849983215332,46.099998474121094,49.165000915527344,,,95.05999755859375,69.80999755859375,103.12999725341797,107.11000061035156,,,
12-23,49.94499969482422,45.724998474121094,49.1349983215332,,83.80999755859375,96.41000366210938,73.69000244140625,102.02999877929688,,,83.37999725341797,
12-24,50.290000915527344,,,61.3849983215332,84.12999725341797,94.05000305175781,73.41999816894531,,,82.86000061035156,83.80999755859375,
12-26,,,,60.775001525878906,84.01000213623047,93.81999969482422,,,109.41000366210938,88.98999786376953,83.6500015258789,
12-27,,45.060001373291016,49.505001068115234,60.814998626708984,84.58000183105469,,,102.54000091552734,108.36000061035156,88.79000091552734,83.13999938964844,
12-28,49.96500015258789,44.9900016784668,48.220001220703125,59.30500030517578,,,70.48999786376953,101.6500015258789,108.44999694824219,87.5199966430664,,
12-29,49.6349983215332,45.595001220703125,49.025001525878906,,,94.33000183105469,71.08999633789062,101.27999877929688,107.91000366210938,,,
12-30,49.404998779296875,45.875,49.255001068115234,,83.67500305175781,92.69999694824219,70.61000061035156,101.0999984741211,,,82.38999938964844,
12-31,48.650001525878906,45.70500183105469,,60.39500045776367,83.91999816894531,92.06999969482422,70.79000091552734,,,87.20999908447266,83.76000213623047,
