,2009,2010,2011,2012,2013,2014,2015,2016,2017,2018,2019,2020
01-02,21.774999618530273,,,,69.2750015258789,94.47000122070312,114.69999694824219,,,118.0,101.69000244140625,131.60000610351562
01-03,,,42.345001220703125,42.560001373291016,68.875,94.70500183105469,,,95.25,118.19000244140625,97.97000122070312,129.69000244140625
01-04,,30.299999237060547,41.71500015258789,42.650001525878906,69.73500061035156,,,97.95999908447266,97.2699966430664,117.47000122070312,99.91000366210938,
01-05,21.639999389648438,30.31999969482422,41.95000076293945,42.27000045776367,,,111.73999786376953,98.30999755859375,95.62000274658203,118.91999816894531,,
01-06,22.514999389648438,30.795000076293945,41.79999923706055,42.380001068115234,,93.76000213623047,111.46499633789062,96.47000122070312,95.58999633789062,,,129.08999633789062
01-07,21.56999969482422,30.934999465942383,41.15999984741211,,69.12999725341797,94.13999938964844,111.95999908447266,95.25,,,100.23999786376953,128.0800018310547
01-08,22.094999313354492,30.875,,,70.11499786376953,94.73500061035156,114.94000244140625,94.48999786376953,,118.72000122070312,101.06999969482422,128.41000366210938
01-09,21.655000686645508,,,42.165000915527344,70.69999694824219,95.06500244140625,113.48500061035156,,96.3499984741211,118.22000122070312,101.5,128.66000366210938
01-10,,,41.290000915527344,43.06999969482422,70.88500213623047,95.29000091552734,,,96.38999938964844,116.61000061035156,102.6500015258789,128.08999633789062
01-11,,30.84000015258789,41.01499938964844,43.29999923706055,71.05000305175781,,,94.44999694824219,96.62999725341797,117.56999969482422,101.86000061035156,
01-12,21.290000915527344,30.415000915527344,41.505001068115234,44.0,,,113.125,95.12000274658203,96.87000274658203,118.16999816894531,,
01-13,20.850000381469727,30.735000610351562,41.27000045776367,43.7599983215332,,93.87999725341797,113.49500274658203,93.05000305175781,96.31999969482422,,,129.22000122070312
01-14,20.135000228881836,31.395000457763672,41.56999969482422,,70.51499938964844,95.44499969482422,113.48500061035156,93.56999969482422,,,101.95999908447266,129.92999267578125
01-15,20.704999923706055,31.024999618530273,,,70.06999969482422,95.3499984741211,113.0999984741211,91.9000015258789,,,101.0,130.74000549316406
01-16,20.71500015258789,,,,69.56500244140625,93.83499908447266,115.19000244140625,,,116.63999938964844,102.54000091552734,127.41000366210938
01-17,,,,44.02000045776367,70.98999786376953,94.73999786376953,,,95.97000122070312,114.5,107.36000061035156,128.49000549316406
01-18,,,41.595001220703125,44.95000076293945,71.36499786376953,,,,96.69000244140625,118.41000366210938,105.43000030517578,
01-19,,32.1150016784668,41.39500045776367,43.880001068115234,,,,91.5999984741211,97.5,118.44000244140625,,
01-20,19.799999237060547,31.565000534057617,40.68000030517578,44.459999084472656,,,114.08000183105469,93.5199966430664,99.0,,,
01-21,20.229999542236328,29.549999237060547,41.07500076293945,,,95.0,114.01499938964844,91.91999816894531,,,,125.88999938964844
01-22,19.645000457763672,29.959999084472656,,,71.38500213623047,93.58000183105469,115.67500305175781,93.16000366210938,,116.77999877929688,104.3499984741211,126.16000366210938
01-23,19.604999542236328,,,44.165000915527344,71.70500183105469,93.44499969482422,113.90499877929688,,100.23999786376953,117.25,102.05000305175781,126.26000213623047
01-24,,,41.654998779296875,44.25,71.98999786376953,90.80000305175781,,,101.80000305175781,118.94000244140625,102.22000122070312,125.80999755859375
01-25,,30.540000915527344,41.790000915527344,44.709999084472656,72.1050033569336,,,91.11000061035156,101.08000183105469,120.20999908447266,103.5,
01-26,19.424999237060547,29.985000610351562,42.39500045776367,44.415000915527344,,,113.91000366210938,92.58000183105469,101.8499984741211,121.47000122070312,,
01-27,19.565000534057617,29.7549991607666,41.959999084472656,44.529998779296875,,91.59500122070312,112.9800033569336,92.80000305175781,102.0199966430664,,,122.95999908447266
01-28,20.454999923706055,29.5049991607666,41.6150016784668,,70.0,91.21499633789062,110.87000274658203,92.08999633789062,,,103.69999694824219,124.02999877929688
01-29,19.690000534057617,29.34000015258789,,,70.52999877929688,91.5999984741211,112.8550033569336,95.12000274658203,,119.56999969482422,104.4800033569336,123.41999816894531
01-30,18.790000915527344,,,44.73500061035156,70.11499786376953,92.33499908447266,111.44000244140625,,102.02999877929688,118.3499984741211,105.05000305175781,123.11000061035156
01-31,,,42.13999938964844,44.790000915527344,68.93499755859375,91.18000030517578,,,100.01000213623047,118.7300033569336,105.44000244140625,119.83999633789062
02-01,,29.760000228881836,43.005001068115234,45.43000030517578,70.27999877929688,,,95.58999633789062,100.55999755859375,117.62000274658203,105.7699966430664,
02-02,18.7450008392334,29.969999313354492,42.57500076293945,44.900001525878906,,,111.86499786376953,93.04000091552734,100.58000183105469,115.61000061035156,,
02-03,18.5,29.604999542236328,42.79999923706055,45.61000061035156,,88.43499755859375,113.44999694824219,95.11000061035156,100.94000244140625,,,121.33999633789062
02-04,18.235000610351562,28.864999771118164,42.92499923706055,,69.47000122070312,88.62000274658203,113.7249984741211,95.69999694824219,,,106.26000213623047,122.52999877929688
02-05,18.829999923706055,29.170000076293945,,,69.18499755859375,88.61000061035156,115.18499755859375,92.87000274658203,,111.9800033569336,107.01000213623047,124.86000061035156
02-06,19.559999465942383,,,45.439998626708984,69.16500091552734,89.45999908447266,115.43000030517578,,99.91999816894531,113.95999908447266,106.0999984741211,124.36000061035156
02-07,,,43.04499816894531,45.6349983215332,68.98500061035156,91.2699966430664,,,100.01000213623047,114.12999725341797,104.8499984741211,122.61000061035156
02-08,,28.84000015258789,43.3650016784668,45.80500030517578,69.44000244140625,,,89.6500015258789,100.0999984741211,110.30000305175781,104.86000061035156,
02-09,19.6299991607666,29.579999923706055,43.244998931884766,46.01499938964844,,,113.41000366210938,90.98999786376953,100.12999725341797,112.37000274658203,,
02-10,18.69499969482422,29.875,43.7599983215332,45.415000915527344,,91.96499633789062,114.12000274658203,91.33999633789062,100.54000091552734,,,120.88999938964844
02-11,18.68000030517578,30.114999771118164,44.189998626708984,,69.67500305175781,92.58000183105469,114.11000061035156,89.2699966430664,,,104.72000122070312,121.94999694824219
02-12,18.459999084472656,30.18000030517578,,,68.2249984741211,92.87999725341797,116.51499938964844,91.77999877929688,,113.9800033569336,107.61000061035156,122.36000061035156
02-13,18.104999542236328,,,45.540000915527344,69.55500030517578,93.61499786376953,118.38500213623047,,100.80999755859375,114.55999755859375,107.88999938964844,120.45999908447266
02-14,,,44.244998931884766,45.2599983215332,69.5,94.44999694824219,,,101.56999969482422,116.31999969482422,107.26000213623047,120.1500015258789
02-15,,,44.17499923706055,44.970001220703125,69.69499969482422,,,,101.5,116.19000244140625,109.11000061035156,
02-16,,30.709999084472656,44.349998474121094,45.70000076293945,,,,93.62000274658203,101.7699966430664,116.16000366210938,,
02-17,17.190000534057617,30.905000686645508,44.724998474121094,46.060001373291016,,,117.92500305175781,95.0,102.37000274658203,,,
02-18,17.045000076293945,31.05500030517578,45.06999969482422,,,93.29499816894531,118.12000274658203,94.69000244140625,,,,119.33000183105469
02-19,16.71500015258789,31.239999771118164,,,67.8550033569336,93.52999877929688,117.75,95.62999725341797,,,108.7300033569336,119.5199966430664
02-20,16.334999084472656,,,,65.75499725341797,94.375,118.31999969482422,,,115.4000015258789,109.73999786376953,119.36000061035156
02-21,,,,45.98500061035156,65.04000091552734,94.93499755859375,,,103.0,115.62000274658203,110.12999725341797,118.91000366210938
02-22,,31.03499984741211,43.529998779296875,45.900001525878906,66.16000366210938,,,96.72000122070312,102.80999755859375,115.86000061035156,111.44000244140625,
02-23,15.539999961853027,30.725000381469727,43.275001525878906,46.099998474121094,,,118.24500274658203,94.87000274658203,102.5999984741211,117.45999908447266,,
02-24,16.239999771118164,31.049999237060547,42.974998474121094,45.834999084472656,,94.26000213623047,118.38500213623047,95.68000030517578,103.30999755859375,,,115.2699966430664
02-25,15.989999771118164,30.530000686645508,43.71500015258789,,65.1500015258789,95.38500213623047,117.83499908447266,97.01000213623047,,,112.31999969482422,109.62999725341797
02-26,15.720000267028809,30.770000457763672,,,66.33999633789062,96.56500244140625,117.91999816894531,98.16000366210938,,117.52999877929688,111.47000122070312,109.08999633789062
02-27,15.529999732971191,,,46.470001220703125,67.33000183105469,96.84500122070312,117.69000244140625,,102.44999694824219,115.30999755859375,112.16999816894531,103.58999633789062
02-28,,,44.189998626708984,46.46500015258789,67.33000183105469,98.91000366210938,,,102.43000030517578,112.44000244140625,111.97000122070312,104.44999694824219
02-29,,,,45.625,,,,96.52999877929688,,,,
03-01,,31.190000534057617,43.869998931884766,46.33000183105469,67.40499877929688,,,99.58000183105469,103.29000091552734,111.11000061035156,112.76000213623047,
03-02,15.020000457763672,31.299999237060547,44.005001068115234,46.25,,,118.8499984741211,99.33000183105469,102.37999725341797,110.25,,105.30999755859375
03-03,14.899999618530273,31.469999313354492,44.869998931884766,,,98.52999877929688,117.2699966430664,100.30000305175781,102.05999755859375,,,104.38999938964844
03-04,15.460000038146973,31.454999923706055,44.28499984741211,,67.79499816894531,100.09500122070312,117.66999816894531,102.48999786376953,,,111.36000061035156,107.95999908447266
03-05,14.239999771118164,31.645000457763672,,45.810001373291016,68.11000061035156,99.7699966430664,117.7249984741211,,,112.76000213623047,110.75,102.6500015258789
03-06,14.710000038146973,,,45.20500183105469,67.7249984741211,100.06999969482422,115.98500061035156,,101.19999694824219,115.06999969482422,110.55000305175781,101.44999694824219
03-07,,,43.7599983215332,45.275001525878906,67.73500061035156,100.03500366210938,,103.37000274658203,100.77999877929688,115.0199966430664,109.83999633789062,
03-08,,31.774999618530273,44.415000915527344,46.470001220703125,68.66999816894531,,,101.51000213623047,106.83000183105469,115.4000015258789,109.62999725341797,
03-09,14.75,31.46500015258789,44.025001525878906,46.3849983215332,,,116.1449966430664,102.27999877929688,102.93000030517578,117.6500015258789,,97.41000366210938
03-10,16.344999313354492,31.850000381469727,43.224998474121094,,,100.1500015258789,113.83499908447266,102.91000366210938,102.08999633789062,,,101.9800033569336
03-11,16.454999923706055,31.645000457763672,43.75,,68.88999938964844,98.75499725341797,112.58999633789062,105.01000213623047,,,111.30000305175781,96.97000122070312
03-12,17.170000076293945,32.08000183105469,,46.54499816894531,69.56999969482422,98.6050033569336,114.8499984741211,,,116.45999908447266,111.1500015258789,89.9000015258789
03-13,16.5,,,47.154998779296875,70.76000213623047,97.45500183105469,113.95500183105469,,102.68000030517578,116.06999969482422,111.33000183105469,94.19000244140625
03-14,,,43.91999816894531,46.84000015258789,71.11499786376953,97.29000091552734,,104.73999786376953,101.7300033569336,115.04000091552734,109.68000030517578,
03-15,,32.244998931884766,43.400001525878906,46.81999969482422,70.6500015258789,,,104.76000213623047,104.04000091552734,114.27999877929688,110.02999877929688,
03-16,16.469999313354492,32.31999969482422,42.7599983215332,46.79499816894531,,,115.04000091552734,106.61000061035156,103.62000274658203,114.93000030517578,,82.41999816894531
03-17,16.985000610351562,32.95000076293945,43.58000183105469,,,97.9800033569336,113.62999725341797,109.4000015258789,104.48999786376953,,,82.62000274658203
03-18,17.4950008392334,32.369998931884766,43.72999954223633,,70.55000305175781,98.9800033569336,114.81999969482422,108.9000015258789,,,110.94999694824219,72.91999816894531
03-19,17.549999237060547,32.46500015258789,,47.22999954223633,70.43499755859375,97.58000183105469,113.08499908447266,,,113.22000122070312,110.9000015258789,76.55999755859375
03-20,17.354999542236328,,,46.96500015258789,70.50499725341797,97.37000274658203,114.52999877929688,,105.56999969482422,113.8499984741211,110.81999969482422,79.72000122070312
03-21,,,44.279998779296875,47.06999969482422,68.6449966430664,97.55999755859375,,108.88999938964844,104.4800033569336,113.94999694824219,112.63999938964844,
03-22,,32.7400016784668,44.04499816894531,46.47999954223633,67.98500061035156,,,109.83999633789062,104.25,111.30999755859375,106.69000244140625,
03-23,18.5,33.025001525878906,44.13999938964844,46.82500076293945,,,113.21499633789062,109.13999938964844,104.62000274658203,109.4800033569336,,72.5
03-24,18.295000076293945,32.71500015258789,44.34000015258789,,,96.6050033569336,112.74500274658203,108.94999694824219,103.79000091552734,,,82.05000305175781
03-25,18.440000534057617,32.345001220703125,44.720001220703125,,66.94499969482422,96.43499755859375,111.2300033569336,,,,107.05999755859375,85.70999908447266
03-26,19.354999542236328,33.03499984741211,,47.70500183105469,67.0199966430664,95.20500183105469,110.6500015258789,,,111.93000030517578,108.36000061035156,89.76000213623047
03-27,18.399999618530273,,,47.869998931884766,66.70999908447266,94.76499938964844,111.4800033569336,,103.81999969482422,111.91000366210938,110.08000183105469,85.0
03-28,,,44.689998626708984,47.38999938964844,66.97000122070312,95.40499877929688,,109.4000015258789,104.97000122070312,109.97000122070312,111.72000122070312,
03-29,,32.880001068115234,45.29499816894531,47.845001220703125,,,,110.56999969482422,105.7699966430664,111.5999984741211,112.87000274658203,
03-30,18.434999465942383,33.025001525878906,47.96500015258789,47.900001525878906,,,112.24500274658203,111.9000015258789,105.2300033569336,,,85.91999816894531
03-31,18.450000762939453,32.70000076293945,47.60499954223633,,,96.7300033569336,112.7699966430664,111.48999786376953,105.08000183105469,,,83.5999984741211
04-01,19.735000610351562,33.25,47.54999923706055,,67.08000183105469,98.31999969482422,112.2300033569336,113.11000061035156,,,114.22000122070312,79.88999938964844
04-02,21.024999618530273,,,48.84000015258789,66.84500122070312,98.62999725341797,111.79000091552734,,,108.26000213623047,114.23999786376953,80.7300033569336
04-03,22.280000686645508,,,47.84000015258789,66.36000061035156,98.68499755859375,,,105.08000183105469,110.18000030517578,114.58000183105469,80.43000030517578
04-04,,,48.244998931884766,46.959999084472656,66.94999694824219,98.87999725341797,,112.19000244140625,104.7699966430664,110.79000091552734,115.0,
04-05,,33.459999084472656,48.17499923706055,48.14500045776367,65.86499786376953,,,111.43000030517578,105.0,111.66999816894531,114.95999908447266,
04-06,22.135000228881836,33.79999923706055,48.20500183105469,,,,112.11000061035156,112.08000183105469,105.2699966430664,109.38999938964844,,86.62999725341797
04-07,21.399999618530273,33.724998474121094,48.03499984741211,,,96.53500366210938,112.44999694824219,110.61000061035156,106.05000305175781,,,91.08999633789062
04-08,21.434999465942383,33.96500015258789,47.66999816894531,,65.7249984741211,96.25,113.06500244140625,111.83000183105469,,,114.4000015258789,93.3499984741211
04-09,22.485000610351562,34.34000015258789,,47.125,66.32499694824219,97.84500122070312,114.16999816894531,,,109.61000061035156,114.27999877929688,97.16999816894531
04-10,,,,46.04499816894531,67.33000183105469,94.9800033569336,114.75,,105.79000091552734,110.36000061035156,114.9000015258789,
04-11,,,47.470001220703125,47.27000045776367,68.80500030517578,93.91000366210938,,111.68000030517578,106.05999755859375,109.27999877929688,114.5199966430664,
04-12,,34.44499969482422,46.880001068115234,48.415000915527344,68.125,,,112.94000244140625,105.05999755859375,110.04000091552734,115.5999984741211,
04-13,22.565000534057617,34.665000915527344,46.1349983215332,47.86000061035156,,,114.79499816894531,114.2300033569336,104.41999816894531,110.0,,93.68000030517578
04-14,22.065000534057617,34.755001068115234,46.244998931884766,,,94.27999877929688,113.9800033569336,114.51000213623047,,,,92.79000091552734
04-15,22.219999313354492,34.8650016784668,46.32500076293945,,65.72000122070312,94.26499938964844,113.63500213623047,115.3499984741211,,,116.47000122070312,88.4800033569336
04-16,23.05500030517578,34.58000183105469,,48.45000076293945,67.2750015258789,95.81500244140625,113.375,,,111.7699966430664,118.4000015258789,88.9000015258789
04-17,22.645000457763672,,,49.16999816894531,66.19999694824219,99.7300033569336,113.30500030517578,,105.38999938964844,113.08000183105469,117.38999938964844,93.30999755859375
04-18,,,45.69499969482422,49.23500061035156,70.32499694824219,,,115.75,104.73999786376953,113.19000244140625,119.86000061035156,
04-19,,35.099998474121094,46.56999969482422,50.5,70.79499816894531,,,116.55000305175781,105.0,109.63999938964844,,
04-20,21.594999313354492,35.20500183105469,47.27000045776367,50.64500045776367,,,113.83999633789062,116.06999969482422,106.37000274658203,108.87000274658203,,91.0999984741211
04-21,21.81999969482422,35.244998931884766,47.31999969482422,,,98.2699966430664,113.5250015258789,110.26000213623047,105.94000244140625,,,88.01000213623047
04-22,22.040000915527344,35.125,,,71.7750015258789,98.18000030517578,113.19999694824219,113.19000244140625,,,117.23999786376953,90.06999969482422
04-23,21.725000381469727,35.6349983215332,,50.505001068115234,72.4000015258789,98.1500015258789,112.94000244140625,,,108.87999725341797,117.62000274658203,90.5199966430664
04-24,22.729999542236328,,,51.0,72.48999786376953,97.25499725341797,111.65499877929688,,108.01000213623047,105.7699966430664,116.63999938964844,92.73999786376953
04-25,,,46.71500015258789,52.084999084472656,73.45500183105469,96.48999786376953,,112.5999984741211,110.81999969482422,107.87999725341797,115.52999877929688,
04-26,,35.36000061035156,46.98500061035156,52.61000061035156,72.46499633789062,,,113.55000305175781,110.4800033569336,107.69999694824219,117.80999755859375,
04-27,22.014999389648438,34.47999954223633,46.79999923706055,52.83000183105469,,,110.42500305175781,112.98999786376953,111.29000091552734,107.97000122070312,,96.0
04-28,21.6200008392334,34.959999084472656,47.06999969482422,,,95.73500061035156,110.37999725341797,112.7699966430664,109.83999633789062,,,91.48999786376953
04-29,22.059999465942383,35.619998931884766,47.334999084472656,,73.51000213623047,96.5,111.08499908447266,110.38999938964844,,,117.11000061035156,95.87999725341797
04-30,22.024999618530273,35.185001373291016,,52.619998931884766,73.56999969482422,96.80999755859375,110.77999877929688,,,105.87999725341797,117.5,90.83000183105469
05-01,22.010000228881836,,,53.52000045776367,72.5999984741211,96.31999969482422,112.2750015258789,,109.45999908447266,106.91999816894531,115.47000122070312,88.0
05-02,,,47.064998626708984,53.595001220703125,74.23999786376953,97.58999633789062,,111.23999786376953,109.47000122070312,105.70999908447266,116.76000213623047,
05-03,,35.63999938964844,46.04999923706055,53.599998474121094,76.13999938964844,,,109.5,109.19999694824219,104.95999908447266,117.62999725341797,
05-04,23.25,34.23500061035156,45.19499969482422,52.834999084472656,,,112.51499938964844,108.58999633789062,109.88999938964844,106.4000015258789,,86.83000183105469
05-05,22.885000228881836,33.73500061035156,45.119998931884766,,,97.94499969482422,110.79000091552734,108.58000183105469,110.55999755859375,,,88.2699966430664
05-06,22.96500015258789,32.375,45.19499969482422,,75.87999725341797,97.73500061035156,111.0250015258789,108.30999755859375,,,116.29000091552734,88.80000305175781
05-07,21.864999771118164,31.895000457763672,,53.45000076293945,76.61000061035156,99.37000274658203,112.45500183105469,,,106.20999908447266,114.45999908447266,90.36000061035156
05-08,22.360000610351562,,,53.255001068115234,77.56999969482422,98.13999938964844,114.5250015258789,,108.43000030517578,106.68000030517578,114.0199966430664,91.9800033569336
05-09,,,45.63999938964844,52.970001220703125,76.95999908447266,98.30999755859375,,107.44000244140625,107.8499984741211,107.05000305175781,112.87999725341797,
05-10,,33.54499816894531,45.88999938964844,52.8650016784668,77.06500244140625,,,108.7300033569336,107.8499984741211,106.11000061035156,112.23999786376953,
05-11,21.770000457763672,33.21500015258789,44.994998931884766,52.595001220703125,,,113.66500091552734,107.41999816894531,107.45999908447266,100.43000030517578,,90.41999816894531
05-12,21.844999313354492,33.81999969482422,44.85499954223633,,,99.70500183105469,112.24500274658203,107.48999786376953,107.12000274658203,,,87.62999725341797
05-13,20.94499969482422,33.38999938964844,44.23500061035156,,76.6050033569336,98.86499786376953,112.69999694824219,106.69999694824219,,,111.25,84.23999786376953
05-14,21.204999923706055,32.54499816894531,,51.560001373291016,78.40499877929688,98.27999877929688,114.4000015258789,,,102.97000122070312,111.55999755859375,85.97000122070312
05-15,21.100000381469727,,,51.09000015258789,78.23500061035156,97.31500244140625,115.8499984741211,,107.9800033569336,103.02999877929688,111.94000244140625,86.91999816894531
05-16,,,44.310001373291016,50.875,77.7750015258789,97.68000030517578,,108.16000366210938,107.41000366210938,103.5,112.91999816894531,
05-17,,33.060001373291016,43.709999084472656,49.42499923706055,79.41999816894531,,,107.01000213623047,105.4800033569336,104.41000366210938,111.7699966430664,
05-18,22.040000915527344,32.814998626708984,44.540000915527344,48.779998779296875,,,115.46499633789062,106.38999938964844,105.38999938964844,104.94999694824219,,91.8499984741211
05-19,22.329999923706055,32.18000030517578,44.46500015258789,,,98.0199966430664,114.99500274658203,105.63999938964844,106.7300033569336,,,93.22000122070312
05-20,22.75,30.780000686645508,44.025001525878906,,78.52999877929688,97.84500122070312,114.46499633789062,106.20999908447266,,,107.73999786376953,95.98999786376953
05-21,22.014999389648438,31.344999313354492,,49.77000045776367,79.47000122070312,98.58499908447266,114.61499786376953,,,105.02999877929688,109.0,95.08999633789062
05-22,22.315000534057617,,,49.630001068115234,78.7750015258789,98.17500305175781,114.59500122070312,,106.41999816894531,102.83999633789062,108.4800033569336,96.18000030517578
05-23,,,43.33000183105469,50.400001525878906,78.43000030517578,99.43000030517578,,106.43000030517578,106.69999694824219,102.70999908447266,106.81999969482422,
05-24,,30.764999389648438,42.96500015258789,52.099998474121094,78.41500091552734,,,107.76000213623047,106.94000244140625,102.5,107.75,
05-25,,31.110000610351562,43.665000915527344,51.59000015258789,,,,108.31999969482422,106.91000366210938,103.4000015258789,,
05-26,22.510000228881836,30.93000030517578,43.54999923706055,,,,113.36000061035156,107.69999694824219,107.23999786376953,,,100.0
05-27,21.905000686645508,32.54499816894531,43.900001525878906,,,99.05999755859375,114.56999969482422,108.5999984741211,,,,102.3499984741211
05-28,22.045000076293945,32.03499984741211,,,78.66500091552734,100.125,114.91000366210938,,,,107.51000213623047,102.63999938964844
05-29,22.235000610351562,,,52.54999923706055,78.55000305175781,100.5,114.44499969482422,,,101.04000091552734,107.18000030517578,101.66999816894531
05-30,,,,51.130001068115234,78.15499877929688,100.80500030517578,,,106.4800033569336,101.43000030517578,107.23999786376953,
05-31,,,44.349998474121094,51.720001220703125,76.80500030517578,,,107.68000030517578,106.36000061035156,100.91999816894531,104.6500015258789,
06-01,23.020000457763672,31.270000457763672,43.380001068115234,49.47999954223633,,,114.51499938964844,107.9800033569336,109.16000366210938,102.01000213623047,,103.37000274658203
06-02,22.815000534057617,32.3650016784668,43.084999084472656,,,101.16500091552734,114.125,108.19999694824219,110.41999816894531,,,107.5199966430664
06-03,22.299999237060547,31.979999542236328,42.46500015258789,,77.56999969482422,100.86000061035156,114.99500274658203,107.66999816894531,,,107.77999877929688,111.68000030517578
06-04,22.5,30.895000457763672,,48.8849983215332,76.77999877929688,101.93000030517578,114.38500213623047,,,102.43000030517578,111.70999908447266,111.12000274658203
06-05,22.520000457763672,,,49.494998931884766,74.99500274658203,101.57499694824219,114.31500244140625,,108.36000061035156,102.5,112.3499984741211,113.94999694824219
06-06,,,42.04999923706055,50.904998779296875,75.63500213623047,102.46499633789062,,108.12000274658203,108.37999725341797,103.93000030517578,112.98999786376953,
06-07,,30.260000228881836,42.84000015258789,51.290000915527344,77.45999908447266,,,107.7699966430664,107.8499984741211,103.08999633789062,113.98999786376953,
06-08,22.145000457763672,31.065000534057617,42.224998474121094,51.84000015258789,,,114.05000305175781,110.94999694824219,107.91999816894531,104.1500015258789,,113.4000015258789
06-09,22.760000228881836,30.954999923706055,42.630001068115234,,,102.55500030517578,114.625,110.43000030517578,109.93000030517578,,,111.41999816894531
06-10,22.625,31.65999984741211,42.05500030517578,,77.13500213623047,102.9000015258789,115.94000244140625,109.23999786376953,,,114.38999938964844,109.04000091552734
06-11,22.725000381469727,32.38999938964844,,50.97999954223633,75.94999694824219,102.80000305175781,116.99500274658203,,,103.93000030517578,116.8499984741211,99.55999755859375
06-12,22.565000534057617,,,52.07500076293945,75.4749984741211,101.79000091552734,116.625,,110.13999938964844,103.52999877929688,116.98999786376953,101.62999725341797
06-13,,,41.91999816894531,50.95500183105469,77.63500213623047,102.13500213623047,,107.69000244140625,111.56999969482422,103.30000305175781,116.91000366210938,
06-14,,32.03499984741211,42.75,50.880001068115234,76.91500091552734,,,107.08000183105469,111.5,103.95999908447266,116.55000305175781,
06-15,21.989999771118164,32.790000915527344,41.98500061035156,52.06999969482422,,,115.43000030517578,106.62000274658203,111.31999969482422,105.37999725341797,,103.19999694824219
06-16,21.53499984741211,33.27000045776367,42.05500030517578,,,101.51000213623047,116.0,106.95999908447266,111.16000366210938,,,104.76000213623047
06-17,21.6200008392334,33.08000183105469,42.375,,78.05500030517578,101.25499725341797,116.66999816894531,108.18000030517578,,,114.93000030517578,104.87000274658203
06-18,21.469999313354492,33.33000183105469,,52.38999938964844,78.28500366210938,101.79499816894531,117.80999755859375,,,105.0,114.68000030517578,104.41999816894531
06-19,21.40999984741211,,,53.09000015258789,77.08499908447266,101.61000061035156,117.30000305175781,,111.11000061035156,104.12999725341797,115.66000366210938,103.72000122070312
06-20,,,42.71500015258789,53.02000045776367,75.04000091552734,102.28500366210938,,108.41999816894531,110.77999877929688,105.13999938964844,115.19000244140625,
06-21,,33.404998779296875,43.8650016784668,51.209999084472656,74.44999694824219,,,108.05999755859375,110.68000030517578,104.30000305175781,116.06999969482422,
06-22,20.829999923706055,32.77000045776367,43.869998931884766,52.095001220703125,,,118.16999816894531,107.80999755859375,110.56999969482422,105.41999816894531,,103.66999816894531
06-23,20.7549991607666,32.54999923706055,43.505001068115234,,,102.18499755859375,118.29000091552734,111.22000122070312,110.68000030517578,,,103.69000244140625
06-24,21.485000610351562,31.55500030517578,43.58000183105469,,73.33999633789062,101.51499938964844,117.97000122070312,102.7300033569336,,,116.9000015258789,101.87999725341797
06-25,21.920000076293945,31.475000381469727,,50.665000915527344,73.91500091552734,102.23500061035156,117.73999786376953,,,105.11000061035156,116.2699966430664,102.7699966430664
06-26,21.78499984741211,,,51.41999816894531,74.5,101.29000091552734,118.01000213623047,,110.81999969482422,105.83000183105469,115.52999877929688,102.13999938964844
06-27,,,43.47999954223633,51.7400016784668,74.51499938964844,102.0250015258789,,98.69000244140625,110.48999786376953,105.11000061035156,115.88999938964844,
06-28,,31.44499969482422,44.22999954223633,51.75,73.20500183105469,,,100.55999755859375,111.06999969482422,105.72000122070312,116.70999908447266,
06-29,21.93000030517578,30.5,44.56999969482422,53.060001373291016,,,114.9800033569336,102.48999786376953,109.6500015258789,103.7300033569336,,103.94000244140625
06-30,21.950000762939453,30.204999923706055,45.39500045776367,,,105.07499694824219,114.72000122070312,104.1500015258789,109.95999908447266,,,106.05999755859375
07-01,21.889999389648438,30.524999618530273,45.92499923706055,,74.22000122070312,104.43000030517578,116.5,104.5199966430664,,,118.62999725341797,106.3499984741211
07-02,21.075000762939453,30.28499984741211,,52.349998474121094,74.54000091552734,104.15499877929688,115.91000366210938,,,102.68000030517578,118.08999633789062,109.06999969482422
07-03,,,,52.439998626708984,74.79499816894531,105.08000183105469,,,110.61000061035156,102.0,119.08000183105469,
07-05,,,45.744998931884766,52.744998931884766,76.20999908447266,,,102.6500015258789,110.68000030517578,102.80999755859375,117.95999908447266,
07-06,21.510000228881836,30.280000686645508,46.255001068115234,52.78499984741211,,,115.0999984741211,102.97000122070312,110.05000305175781,103.0,,109.87999725341797
07-07,20.809999465942383,31.53499984741211,46.685001373291016,,,104.19000244140625,115.05999755859375,103.02999877929688,111.0,,,108.41999816894531
07-08,20.90999984741211,32.125,46.060001373291016,,76.61499786376953,103.4000015258789,113.0999984741211,106.31999969482422,,,116.37999725341797,106.47000122070312
07-09,21.05500030517578,32.310001373291016,,51.685001373291016,78.26499938964844,103.91000366210938,112.63999938964844,,,103.91999816894531,115.94000244140625,105.08000183105469
07-10,20.969999313354492,,,51.06999969482422,78.0199966430664,103.69499969482422,114.9000015258789,,110.9800033569336,104.80000305175781,115.41000366210938,107.04000091552734
07-11,,,45.1349983215332,50.439998626708984,79.01499938964844,104.01499938964844,,106.61000061035156,110.97000122070312,103.75,116.0,
07-12,,31.889999389648438,44.92499923706055,50.33000183105469,78.86499786376953,,,108.69999694824219,111.83999633789062,103.83999633789062,117.04000091552734,
07-13,21.78499984741211,32.665000915527344,44.96500015258789,51.66999816894531,,,116.52999877929688,109.47000122070312,112.4000015258789,103.98999786376953,,109.37999725341797
07-14,22.065000534057617,32.2599983215332,44.224998474121094,,,103.99500274658203,117.61000061035156,108.62999725341797,112.80000305175781,,,111.72000122070312
07-15,23.049999237060547,32.29999923706055,44.834999084472656,,78.49500274658203,102.77999877929688,116.9800033569336,109.2699966430664,,,117.70999908447266,115.62000274658203
07-16,24.635000228881836,31.229999542236328,,51.064998626708984,77.41999816894531,102.8949966430664,111.81999969482422,,,102.37000274658203,117.8499984741211,115.26000213623047
07-17,24.780000686645508,,,52.064998626708984,78.43000030517578,103.8499984741211,111.80000305175781,,112.95999908447266,105.41000366210938,116.61000061035156,111.87999725341797
07-18,,,44.35499954223633,52.095001220703125,80.0,104.7750015258789,,109.30000305175781,112.94999694824219,106.75,117.0,
07-19,,31.075000762939453,44.619998931884766,55.97999954223633,79.58000183105469,,,108.37999725341797,113.5999984741211,106.38999938964844,117.51000213623047,
07-20,25.225000381469727,32.31999969482422,44.67499923706055,56.92499923706055,,,110.8499984741211,110.02999877929688,106.72000122070312,105.0,,109.38999938964844
07-21,25.21500015258789,32.400001525878906,44.9900016784668,,,104.375,108.20999908447266,108.58999633789062,106.37000274658203,,,110.16000366210938
07-22,25.375,33.0,44.470001220703125,,79.86499786376953,105.05500030517578,108.08999633789062,107.6500015258789,,,116.94999694824219,111.68000030517578
07-23,26.235000610351562,33.82500076293945,,55.375,79.56500244140625,105.15499877929688,105.62999725341797,,,104.41000366210938,118.95999908447266,110.83000183105469
07-24,26.280000686645508,,,54.279998779296875,78.54000091552734,105.01000213623047,103.25,,105.38999938964844,106.05000305175781,118.0999984741211,110.55999755859375
07-25,,,44.275001525878906,53.744998931884766,79.36499786376953,104.43499755859375,,106.58999633789062,107.11000061035156,109.27999877929688,118.13999938964844,
07-26,,34.099998474121094,43.29499816894531,54.1150016784668,78.55500030517578,,,106.76000213623047,106.75,110.66000366210938,117.94000244140625,
07-27,26.405000686645508,34.400001525878906,42.5,55.209999084472656,,,102.38999938964844,106.08999633789062,106.1500015258789,109.44000244140625,,110.2300033569336
07-28,26.274999618530273,34.41999816894531,42.275001525878906,,,104.33499908447266,106.91999816894531,105.4800033569336,106.02999877929688,,,108.58000183105469
07-29,25.940000534057617,34.40999984741211,42.099998474121094,,80.58499908447266,102.49500274658203,108.56999969482422,104.70999908447266,,,118.43000030517578,110.41000366210938
07-30,27.204999923706055,34.73500061035156,,55.494998931884766,80.5250015258789,102.21499633789062,108.5199966430664,,,109.73999786376953,118.95999908447266,108.19999694824219
07-31,27.5,,,54.72999954223633,80.22000122070312,99.18000030517578,108.37999725341797,,105.25,110.66000366210938,117.38999938964844,107.6500015258789
08-01,,,41.95000076293945,54.029998779296875,81.37999725341797,99.19499969482422,,104.66999816894531,105.11000061035156,109.7300033569336,115.66999816894531,
08-02,,35.560001373291016,40.86000061035156,53.81999969482422,81.18000030517578,,,103.69000244140625,106.20999908447266,109.31999969482422,114.16999816894531,
08-03,28.40999984741211,35.0099983215332,41.31999969482422,54.599998474121094,,,107.87000274658203,104.33000183105469,104.66999816894531,110.94999694824219,,107.37999725341797
08-04,28.520000457763672,35.439998626708984,38.84000015258789,,,100.30999755859375,106.54000091552734,104.0999984741211,105.01000213623047,,,107.79000091552734
08-05,28.55500030517578,35.125,38.939998626708984,,80.94499969482422,99.1050033569336,106.58999633789062,104.43000030517578,,,110.95999908447266,111.66000366210938
08-06,28.079999923706055,34.775001525878906,,54.95000076293945,80.70999908447266,99.44499969482422,105.20999908447266,,,110.31999969482422,110.9800033569336,111.44000244140625
08-07,28.100000381469727,,,55.7599983215332,80.54499816894531,98.66000366210938,103.91999816894531,,105.13999938964844,109.95999908447266,112.86000061035156,113.70999908447266
08-08,,,36.474998474121094,55.55500030517578,80.91500091552734,100.11000061035156,,104.4800033569336,103.4000015258789,109.25,116.6500015258789,
08-09,,34.8849983215332,38.654998779296875,55.685001373291016,80.84500122070312,,,104.37000274658203,103.37000274658203,109.20999908447266,115.33000183105469,
08-10,27.545000076293945,34.66999816894531,36.529998779296875,55.40999984741211,,,106.61000061035156,104.69000244140625,101.33000183105469,107.45999908447266,,115.73999786376953
08-11,27.575000762939453,33.525001525878906,37.45500183105469,,,99.58999633789062,104.41000366210938,104.73999786376953,100.7300033569336,,,120.88999938964844
08-12,27.764999389648438,33.42499923706055,37.529998779296875,,80.66999816894531,99.76499938964844,104.02999877929688,103.98999786376953,,,112.55000305175781,120.98999786376953
08-13,27.950000762939453,33.154998779296875,,55.06999969482422,81.37999725341797,101.00499725341797,103.5199966430664,,,106.08000183105469,113.08999633789062,118.80999755859375
08-14,27.290000915527344,,,54.2400016784668,81.18499755859375,100.78500366210938,104.69999694824219,,102.55999755859375,106.8499984741211,110.22000122070312,118.9800033569336
08-15,,,38.310001373291016,54.71500015258789,79.38500213623047,101.13500213623047,,104.45999908447266,102.94000244140625,107.02999877929688,109.62000274658203,
08-16,,33.255001068115234,37.599998474121094,55.02000045776367,79.29499816894531,,,103.6500015258789,103.73999786376953,107.9000015258789,110.72000122070312,
08-17,26.485000610351562,33.869998931884766,37.650001525878906,55.125,,,104.26000213623047,103.58999633789062,102.68000030517578,108.41999816894531,,118.91999816894531
08-18,26.475000381469727,33.625,35.20500183105469,,,101.88500213623047,104.56999969482422,103.7699966430664,102.08000183105469,,,118.69000244140625
08-19,26.71500015258789,32.79499816894531,34.439998626708984,,78.40499877929688,102.31500244140625,102.5,104.7300033569336,,,111.62000274658203,118.63999938964844
08-20,26.575000762939453,32.70000076293945,,54.58000183105469,79.48500061035156,102.04000091552734,99.87000274658203,,,109.7300033569336,110.30000305175781,118.23999786376953
08-21,27.274999618530273,,,53.73500061035156,79.55500030517578,102.54000091552734,97.20999908447266,,102.38999938964844,111.08000183105469,110.69999694824219,118.2300033569336
08-22,,,34.470001220703125,55.525001525878906,80.07499694824219,102.2750015258789,,105.20999908447266,104.54000091552734,110.5999984741211,110.0999984741211,
08-23,,32.505001068115234,35.56999969482422,54.494998931884766,81.12000274658203,,,106.44000244140625,103.62999725341797,109.7699966430664,106.54000091552734,
08-24,27.075000762939453,32.10499954223633,35.94499969482422,54.57500076293945,,,92.26000213623047,106.38999938964844,103.70999908447266,110.62000274658203,,121.08000183105469
08-25,27.145000457763672,32.56999969482422,35.540000915527344,,,103.11499786376953,91.05000305175781,106.75,103.72000122070312,,,119.81999969482422
08-26,26.8700008392334,32.65999984741211,36.16999816894531,,80.13500213623047,103.2300033569336,93.0999984741211,105.75,,,107.16999816894531,119.94999694824219
08-27,27.594999313354492,33.54999923706055,,54.689998626708984,78.87999725341797,102.62000274658203,95.19000244140625,,,111.12999725341797,107.41000366210938,120.79000091552734
08-28,27.969999313354492,,,54.44499969482422,77.87999725341797,102.72000122070312,96.11000061035156,,104.1500015258789,109.87000274658203,109.02999877929688,122.12000274658203
08-29,,,37.744998931884766,54.85499954223633,78.09500122070312,102.93000030517578,,107.5999984741211,103.86000061035156,111.66000366210938,110.13999938964844,
08-30,,32.7400016784668,38.2400016784668,54.244998931884766,78.1050033569336,,,107.27999877929688,103.80999755859375,110.66000366210938,110.79000091552734,
08-31,27.700000762939453,32.915000915527344,38.29499816894531,55.0099983215332,,,95.29000091552734,105.87999725341797,104.31999969482422,110.54000091552734,,120.4000015258789
09-01,27.040000915527344,34.08000183105469,37.51499938964844,,,,91.3499984741211,105.9800033569336,104.58999633789062,,,124.0
09-02,26.96500015258789,34.459999084472656,36.78499984741211,,,102.59500122070312,93.52999877929688,107.04000091552734,,,,125.9800033569336
09-03,27.05500030517578,34.9900016784668,,,78.6050033569336,101.76499938964844,93.9800033569336,,,,110.43000030517578,122.79000091552734
09-04,27.44499969482422,,,54.084999084472656,79.47000122070312,101.80999755859375,93.30999755859375,,,109.87999725341797,111.5199966430664,122.61000061035156
09-05,,,,54.3849983215332,80.28500366210938,101.9800033569336,,,103.44000244140625,110.5999984741211,113.33999633789062,
09-06,,,36.599998474121094,56.5,79.625,,,107.62000274658203,104.19999694824219,112.0,115.77999877929688,
09-07,,34.13999938964844,37.505001068115234,56.56999969482422,,,,106.7300033569336,104.01000213623047,111.51000213623047,,
09-08,27.69499969482422,34.54999923706055,37.41999816894531,,,101.95999908447266,96.4000015258789,105.30000305175781,103.58999633789062,,,120.98999786376953
09-09,28.229999542236328,34.654998779296875,36.54999923706055,,80.81999969482422,100.7300033569336,96.0999984741211,100.86000061035156,,,116.51000213623047,125.33999633789062
09-10,28.4950008392334,35.3849983215332,,57.89500045776367,81.8550033569336,101.2300033569336,96.63999938964844,,,112.08999633789062,117.2699966430664,125.73999786376953
09-11,28.649999618530273,,,57.935001373291016,82.20999908447266,100.70999908447266,96.72000122070312,,105.9000015258789,112.58999633789062,117.68000030517578,127.0999984741211
09-12,,,36.560001373291016,57.8849983215332,81.43499755859375,99.83999633789062,,102.76000213623047,106.69000244140625,112.02999877929688,118.20999908447266,
09-13,,35.81999969482422,37.345001220703125,59.290000915527344,81.22000122070312,,,101.16000366210938,105.05999755859375,112.94999694824219,119.37999725341797,
09-14,28.954999923706055,35.66999816894531,38.0,59.41999816894531,,,94.16000366210938,100.68000030517578,106.4800033569336,112.16999816894531,,130.2100067138672
09-15,29.704999923706055,35.814998626708984,38.709999084472656,,,99.8550033569336,94.27999877929688,101.23999786376953,106.30000305175781,,,129.9199981689453
09-16,29.94499969482422,36.1150016784668,39.31999969482422,,82.5999984741211,100.26000213623047,95.06999969482422,100.20999908447266,,,115.36000061035156,129.0399932861328
09-17,29.639999389648438,36.025001525878906,,59.25,82.68000030517578,100.91500091552734,94.45999908447266,,,112.98999786376953,117.20999908447266,129.25
09-18,29.825000762939453,,,58.724998474121094,83.90499877929688,101.58000183105469,93.19000244140625,,106.80000305175781,113.2699966430664,119.43000030517578,125.7699966430664
09-19,,,38.86000061035156,58.619998931884766,83.99500274658203,101.40499877929688,,101.08000183105469,108.33999633789062,115.05000305175781,120.69000244140625,
09-20,,36.33000183105469,38.7599983215332,59.185001373291016,83.13999938964844,,,101.26000213623047,108.80999755859375,115.91999816894531,119.26000213623047,
09-21,29.844999313354492,36.095001220703125,36.77000045776367,58.79499816894531,,,93.44999694824219,102.45999908447266,108.98999786376953,115.9800033569336,,120.08000183105469
09-22,30.059999465942383,36.040000915527344,35.04999923706055,,,99.83999633789062,91.62000274658203,103.13999938964844,108.76000213623047,,,120.81999969482422
09-23,29.524999618530273,35.724998474121094,34.40999984741211,,81.70999908447266,99.13999938964844,89.94000244140625,103.2699966430664,,,118.3499984741211,118.31999969482422
09-24,29.260000228881836,36.459999084472656,,58.404998779296875,81.73500061035156,100.2699966430664,88.11000061035156,,,112.69000244140625,116.2300033569336,118.94999694824219
09-25,28.825000762939453,,,57.51499938964844,82.31999969482422,98.70500183105469,88.33999633789062,,109.16000366210938,111.54000091552734,116.66000366210938,120.25
09-26,,,36.220001220703125,57.29999923706055,83.32499694824219,99.2249984741211,,102.13999938964844,108.51000213623047,110.38999938964844,116.66000366210938,
09-27,,36.38999938964844,37.2599983215332,57.6150016784668,82.63500213623047,,,102.44999694824219,107.98999786376953,108.98999786376953,118.22000122070312,
09-28,29.3799991607666,36.56999969482422,35.75,57.41999816894531,,,84.51000213623047,103.56999969482422,108.8499984741211,109.12999725341797,,121.73999786376953
09-29,29.3700008392334,36.45000076293945,36.17499923706055,,,99.7300033569336,85.94999694824219,102.05999755859375,108.66000366210938,,,120.33000183105469
09-30,29.104999542236328,36.400001525878906,35.33000183105469,,83.52999877929688,98.37000274658203,87.69000244140625,103.36000061035156,,,118.51000213623047,122.08000183105469
10-01,28.280000686645508,36.54499816894531,,57.775001525878906,83.40499877929688,95.58499908447266,90.12999725341797,,,109.75,116.87000274658203,121.77999877929688
10-02,28.1299991607666,,,57.314998626708984,83.31999969482422,95.58499908447266,92.66000366210938,,111.0,110.20999908447266,114.41000366210938,123.2699966430664
10-03,,,34.34000015258789,58.30500030517578,83.24500274658203,95.92500305175781,,103.44000244140625,111.98999786376953,108.7300033569336,114.5999984741211,
10-04,,36.119998931884766,35.334999084472656,58.5099983215332,85.44999694824219,,,102.05000305175781,112.26000213623047,108.45999908447266,116.62000274658203,
10-05,28.770000457763672,37.0,36.380001068115234,58.970001220703125,,,94.58999633789062,101.58000183105469,113.02999877929688,108.0199966430664,,125.91999816894531
10-06,29.014999389648438,37.380001068115234,36.85499954223633,,,95.63500213623047,93.4000015258789,102.19000244140625,113.27999877929688,,,124.55000305175781
10-07,28.934999465942383,37.275001525878906,36.7400016784668,,83.95500183105469,93.20999908447266,94.30999755859375,93.7300033569336,,,115.70999908447266,128.94000244140625
10-08,29.610000610351562,37.60499954223633,,58.86000061035156,81.40499877929688,94.76499938964844,95.7699966430664,,,109.58000183105469,112.3499984741211,134.99000549316406
10-09,29.875,,,57.85499954223633,81.23999786376953,93.01499938964844,95.97000122070312,,112.63999938964844,98.55999755859375,114.58000183105469,135.8800048828125
10-10,,,38.220001220703125,57.68000030517578,82.36499786376953,91.7750015258789,,93.8499984741211,112.37999725341797,99.5999984741211,115.66000366210938,
10-11,,37.5,38.10499954223633,57.72999954223633,83.375,,,92.30000305175781,112.41000366210938,96.37999725341797,119.16999816894531,
10-12,30.05500030517578,37.75,38.880001068115234,57.1150016784668,,,97.33999633789062,91.94000244140625,113.4000015258789,95.08999633789062,,136.0500030517578
10-13,30.31999969482422,38.119998931884766,38.834999084472656,,,88.29499816894531,97.18000030517578,92.12000274658203,113.5,,,133.57000732421875
10-14,30.764999389648438,38.165000915527344,39.85499954223633,,83.06500244140625,88.79000091552734,97.31999969482422,92.5999984741211,,,117.20999908447266,134.58999633789062
10-15,31.040000915527344,38.3849983215332,,58.06999969482422,82.73999786376953,90.25,99.26000213623047,,,96.1500015258789,118.20999908447266,136.74000549316406
10-16,30.649999618530273,,,58.90999984741211,83.11000061035156,90.91500091552734,100.73999786376953,,113.16999816894531,98.18000030517578,118.95999908447266,137.16000366210938
10-17,,,38.91999816894531,59.48500061035156,87.23500061035156,93.625,,92.66000366210938,112.95999908447266,98.12000274658203,121.23999786376953,
10-18,,38.439998626708984,40.3650016784668,59.54499816894531,87.88500213623047,,,92.80999755859375,112.87999725341797,98.98999786376953,124.2300033569336,
10-19,30.985000610351562,37.8849983215332,39.41999816894531,58.8650016784668,,,101.18000030517578,92.55999755859375,114.30999755859375,101.38999938964844,,134.32000732421875
10-20,30.604999542236328,38.72999954223633,40.34000015258789,,,95.58999633789062,101.37999725341797,92.66000366210938,117.76000213623047,,,134.6300048828125
10-21,29.834999084472656,38.334999084472656,41.84000015258789,,88.30500030517578,98.0199966430664,100.63999938964844,92.37999725341797,,,124.68000030517578,134.02999877929688
10-22,30.34000015258789,38.21500015258789,,58.849998474121094,90.05999755859375,96.8550033569336,103.62000274658203,,,101.66000366210938,125.2699966430664,133.6999969482422
10-23,29.670000076293945,,,57.77000045776367,89.2249984741211,97.44999694824219,103.98999786376953,,116.88999938964844,100.62999725341797,124.47000122070312,134.27000427246094
10-24,,,42.20000076293945,58.584999084472656,89.7300033569336,97.92500305175781,,93.23999786376953,117.44000244140625,97.77999877929688,123.58000183105469,
10-25,,38.665000915527344,41.26499938964844,58.0099983215332,90.95999908447266,,,91.22000122070312,117.72000122070312,103.70999908447266,124.04000091552734,
10-26,29.104999542236328,38.650001525878906,42.43000030517578,58.060001373291016,,,103.93000030517578,92.5199966430664,118.66999816894531,102.83000183105469,,131.3300018310547
10-27,29.5,38.3849983215332,44.46500015258789,,,96.30000305175781,102.93000030517578,93.3499984741211,117.93000030517578,,,127.38999938964844
10-28,28.625,38.29999923706055,44.685001373291016,,90.44499969482422,97.69499969482422,104.33000183105469,92.87000274658203,,,123.70999908447266,125.20999908447266
10-29,29.204999923706055,38.349998474121094,,,92.75499725341797,96.0250015258789,104.27999877929688,,,102.88999938964844,125.05000305175781,128.10000610351562
10-30,28.21500015258789,,,,90.83000183105469,96.17500305175781,104.26000213623047,,116.16000366210938,104.22000122070312,125.9800033569336,129.72000122070312
10-31,,,43.20500183105469,58.540000915527344,91.29000091552734,101.84500122070312,,93.12999725341797,116.23999786376953,105.08999633789062,125.12000274658203,
11-01,,38.334999084472656,42.29999923706055,60.900001525878906,91.375,,,92.73999786376953,115.91999816894531,106.73999786376953,125.44000244140625,
11-02,28.7450008392334,38.81999969482422,43.349998474121094,59.959999084472656,,,104.0,92.37999725341797,116.16000366210938,106.91000366210938,,135.17999267578125
11-03,28.989999771118164,38.94499969482422,44.33000183105469,,,100.18499755859375,104.19000244140625,91.75,116.52999877929688,,,136.86000061035156
11-04,28.829999923706055,39.564998626708984,44.255001068115234,,91.7300033569336,99.23500061035156,103.86000061035156,92.80999755859375,,,128.08999633789062,132.80999755859375
11-05,29.594999313354492,39.834999084472656,,60.88999938964844,91.66000366210938,102.625,103.20999908447266,,,106.44999694824219,128.88999938964844,138.25999450683594
11-06,29.399999618530273,,,61.595001220703125,91.4000015258789,103.04499816894531,103.0,,116.33999633789062,107.36000061035156,129.77000427246094,138.75999450683594
11-07,,,44.45000076293945,60.31999969482422,89.81999969482422,103.44999694824219,,94.3499984741211,116.33999633789062,109.52999877929688,129.8300018310547,
11-08,,39.54499816894531,44.689998626708984,58.80500030517578,90.78500366210938,,,94.73999786376953,116.12000274658203,108.66999816894531,128.9199981689453,
11-09,30.434999465942383,39.130001068115234,42.709999084472656,58.689998626708984,,,101.7300033569336,95.29000091552734,115.12999725341797,107.70999908447266,,141.8699951171875
11-10,30.485000610351562,39.0099983215332,43.11000061035156,,,103.13500213623047,101.12000274658203,96.87000274658203,114.66999816894531,,,142.82000732421875
11-11,30.59000015258789,39.05500030517578,44.05500030517578,,91.08000183105469,102.62999725341797,101.61000061035156,95.7699966430664,,,129.1999969482422,142.64999389648438
11-12,30.114999771118164,38.38999938964844,,58.73500061035156,91.25499725341797,101.94999694824219,99.20999908447266,,,105.4000015258789,130.25,139.8699951171875
11-13,30.18000030517578,,,58.724998474121094,92.30999755859375,102.61499786376953,100.83000183105469,,114.55000305175781,104.30999755859375,130.32000732421875,142.82000732421875
11-14,,,43.64500045776367,58.154998779296875,92.79000091552734,101.94999694824219,,96.05000305175781,114.3499984741211,105.3499984741211,129.75,
11-15,,38.43000030517578,43.67499923706055,57.625,92.44999694824219,,,96.2300033569336,113.38999938964844,107.08000183105469,129.5,
11-16,30.71500015258789,37.790000915527344,42.46500015258789,57.810001373291016,,,101.94999694824219,96.36000061035156,114.01000213623047,107.16999816894531,,144.27000427246094
11-17,30.6299991607666,38.040000915527344,41.35499954223633,,,102.66500091552734,101.70999908447266,96.61000061035156,113.83000183105469,,,143.27000427246094
11-18,30.2549991607666,38.775001525878906,41.79999923706055,,92.32499694824219,104.25,104.2300033569336,95.19000244140625,,,128.9199981689453,142.8000030517578
11-19,29.739999771118164,38.689998626708984,,60.025001525878906,92.37999725341797,105.33000183105469,103.37000274658203,,,107.69999694824219,128.7899932861328,142.9600067138672
11-20,29.625,,,60.775001525878906,91.0999984741211,106.33000183105469,104.62000274658203,,114.87999725341797,105.87999725341797,126.5,
11-21,,,40.915000915527344,60.875,91.66000366210938,107.67500305175781,,96.19000244140625,115.33999633789062,106.80999755859375,125.68000030517578,
11-22,,38.67499923706055,40.6349983215332,,91.88999938964844,,,96.62000274658203,115.2699966430664,,125.41000366210938,
11-23,30.264999389648438,37.959999084472656,39.78499984741211,61.685001373291016,,,105.47000122070312,97.58999633789062,,107.29000091552734,,
11-24,29.924999237060547,38.89500045776367,,,,107.78500366210938,105.48999786376953,,116.0999984741211,,,
11-25,30.334999084472656,,39.724998474121094,,92.09500122070312,107.69999694824219,106.45999908447266,98.12999725341797,,,127.79000091552734,
11-26,,38.814998626708984,,61.505001068115234,92.56500244140625,108.4749984741211,,,,107.33999633789062,129.7100067138672,
11-27,29.665000915527344,,,61.19499969482422,92.2699966430664,,106.20999908447266,,115.8499984741211,105.80000305175781,129.19000244140625,
11-28,,,41.275001525878906,60.95000076293945,,109.41000366210938,,97.3499984741211,117.33999633789062,107.63999938964844,,
11-29,,38.900001525878906,41.56999969482422,61.31999969482422,92.02999877929688,,,98.0,117.01000213623047,108.47000122070312,128.83999633789062,
11-30,29.71500015258789,38.97999954223633,43.875,62.1349983215332,,,105.73999786376953,95.93000030517578,116.8499984741211,109.33000183105469,,
12-01,29.954999923706055,39.93000030517578,43.275001525878906,,,109.93499755859375,106.76000213623047,95.23999786376953,115.93000030517578,,,
12-02,30.274999618530273,40.095001220703125,42.435001373291016,,91.83000183105469,109.56500244140625,105.33999633789062,94.58000183105469,,,128.5,
12-03,29.795000076293945,40.400001525878906,,60.470001220703125,90.83000183105469,111.62999725341797,104.30000305175781,,,110.55999755859375,127.95999908447266,
12-04,30.190000534057617,,,60.154998779296875,91.4749984741211,111.8550033569336,105.95999908447266,,117.55999755859375,106.7300033569336,129.10000610351562,
12-05,,,42.584999084472656,59.72999954223633,90.88999938964844,111.42500305175781,,95.98999786376953,116.75,,131.1300048828125,
12-06,,39.974998474121094,42.720001220703125,61.60499954223633,93.91999816894531,,,96.22000122070312,116.19000244140625,105.79000091552734,132.5399932861328,
12-07,30.165000915527344,40.224998474121094,42.334999084472656,60.685001373291016,,,104.98999786376953,98.18000030517578,116.11000061035156,103.2300033569336,,
12-08,29.420000076293945,39.91999816894531,41.314998626708984,,,111.41999816894531,102.75,99.41000366210938,115.91999816894531,,,
12-09,29.719999313354492,40.025001525878906,41.970001220703125,,93.3550033569336,112.84500122070312,101.55000305175781,99.30000305175781,,,132.97999572753906,
12-10,29.520000457763672,40.45000076293945,,61.91999816894531,93.67500305175781,110.42500305175781,100.87999725341797,,,103.45999908447266,132.47000122070312,
12-11,29.2549991607666,,,62.52000045776367,91.17500305175781,111.30000305175781,98.7300033569336,,115.68000030517578,103.04000091552734,132.30999755859375,
12-12,,,41.2599983215332,62.275001525878906,91.95999908447266,109.91000366210938,,98.6500015258789,115.88999938964844,103.45999908447266,133.75999450683594,
12-13,,40.22999954223633,40.68000030517578,62.60499954223633,91.45500183105469,,,97.05000305175781,116.25,100.9000015258789,133.00999450683594,
12-14,29.844999313354492,40.665000915527344,40.099998474121094,64.96499633789062,,,97.7300033569336,96.16999816894531,113.81999969482422,100.13999938964844,,
12-15,29.405000686645508,41.04999923706055,40.060001373291016,,,109.05500030517578,98.55000305175781,96.0999984741211,115.08999633789062,,,
12-16,29.639999389648438,40.72999954223633,40.435001373291016,,91.19999694824219,108.33000183105469,100.22000122070312,95.91999816894531,,,133.25,
12-17,29.155000686645508,41.005001068115234,,65.0999984741211,91.80500030517578,111.12999725341797,98.23999786376953,,,97.12999725341797,133.10000610351562,
12-18,28.889999389648438,,,66.23500061035156,92.61499786376953,113.50499725341797,96.29000091552734,,116.12999725341797,96.69999694824219,131.64999389648438,
12-19,,,39.564998626708984,65.6050033569336,92.6500015258789,113.94999694824219,,96.22000122070312,116.30999755859375,96.43000030517578,132.4199981689453,
12-20,,41.18000030517578,40.38999938964844,67.19499969482422,93.30999755859375,,,95.63999938964844,116.16000366210938,97.06999969482422,132.47000122070312,
12-21,29.114999771118164,41.2400016784668,41.08000183105469,66.62999725341797,,,97.2300033569336,95.87000274658203,116.18000030517578,96.31999969482422,,
12-22,29.434999465942383,41.31999969482422,41.18000030517578,,,114.80000305175781,98.76000213623047,95.0,116.19000244140625,,,
12-23,29.649999618530273,41.400001525878906,41.755001068115234,,92.75,115.53500366210938,100.23999786376953,94.69000244140625,,,133.00999450683594,
12-24,29.78499984741211,,,67.62000274658203,93.79000091552734,115.55999755859375,100.38999938964844,,,95.5999984741211,133.5399932861328,
12-26,,,,67.37000274658203,94.04000091552734,115.79499816894531,,,116.27999877929688,99.2699966430664,133.36000061035156,
12-27,,41.5099983215332,41.97999954223633,66.55999755859375,93.88999938964844,,,95.8499984741211,116.48999786376953,101.41999816894531,133.30999755859375,
12-28,29.895000457763672,41.92499923706055,41.39500045776367,66.3499984741211,,,99.9000015258789,94.66999816894531,117.16999816894531,101.2300033569336,,
12-29,29.68000030517578,42.10499954223633,41.994998931884766,,,116.2300033569336,100.58000183105469,95.30999755859375,116.81999969482422,,,
12-30,29.6299991607666,41.92499923706055,41.744998931884766,,94.23500061035156,115.83000183105469,99.7699966430664,94.76000213623047,,,132.9199981689453,
12-31,29.270000457763672,42.03499984741211,,67.67500305175781,94.83000183105469,115.57499694824219,98.81999969482422,,,102.2300033569336,133.49000549316406,
