,2009,2010,2011,2012,2013,2014,2015,2016,2017,2018,2019,2020
01-02,16.937660217285156,,,,61.09695816040039,84.61683654785156,104.11192321777344,,,111.96353149414062,98.13226318359375,129.16287231445312
01-03,,,35.5845832824707,36.720542907714844,60.74417495727539,84.82733154296875,,,88.9657211303711,112.1438217163086,94.54240417480469,127.28823852539062
01-04,,24.66919708251953,35.05515670776367,36.798179626464844,61.502647399902344,,,90.0779800415039,90.85245513916016,111.46066284179688,96.41454315185547,
01-05,16.8326473236084,24.68548583984375,35.252620697021484,36.47032928466797,,,101.42515563964844,90.3998031616211,89.3113021850586,112.83648681640625,,
01-06,17.513261795043945,25.07220458984375,35.126583099365234,36.56523132324219,,83.98089599609375,101.17555236816406,88.70787048339844,89.28329467773438,,,126.69933319091797
01-07,16.7782039642334,25.186195373535156,34.5887565612793,,60.96906661987305,84.32128143310547,101.62483978271484,87.58602142333984,,,96.73300170898438,125.70804595947266
01-08,17.186569213867188,25.137344360351562,,,61.83781814575195,84.85419464111328,104.32978820800781,86.88719177246094,,112.64671325683594,97.5339584350586,126.03194427490234
01-09,16.844316482543945,,,36.379730224609375,62.35373306274414,85.1497802734375,103.00907897949219,,89.99314880371094,112.17228698730469,97.94891357421875,126.27731323242188
01-10,,,34.697998046875,37.16056823730469,62.51689529418945,85.351318359375,,,90.03050231933594,110.6446533203125,99.05867004394531,125.71785736083984
01-11,,25.108856201171875,34.46690368652344,37.3589973449707,62.66239929199219,,,86.85037994384766,90.25467681884766,111.55554962158203,98.29630279541016,
01-12,16.56039810180664,24.762828826904297,34.87868118286133,37.96295928955078,,,102.68232727050781,87.46649169921875,90.47884368896484,112.12484741210938,,
01-13,16.218149185180664,25.023361206054688,34.68119430541992,37.75589370727539,,84.08837890625,103.01817321777344,85.56304931640625,89.96514892578125,,,126.82693481445312
01-14,15.661985397338867,25.560714721679688,34.93330383300781,,62.190555572509766,85.49012756347656,103.00907897949219,86.04119873046875,,,98.39282989501953,127.5237808227539
01-15,16.105358123779297,25.259477615356445,,,61.798091888427734,85.4050521850586,102.65962219238281,84.50557708740234,,,97.46640014648438,128.31878662109375
01-16,16.11313247680664,,,,61.35271072387695,84.0480728149414,104.55669403076172,,,110.67310333251953,98.95252990722656,125.05046081542969
01-17,,,,37.9802131652832,62.609519958496094,84.8586654663086,,,89.63821411132812,108.64259338378906,103.60389709472656,126.11045837402344
01-18,,,34.954307556152344,38.78260803222656,62.940223693847656,,,,90.31070709228516,112.35256958007812,101.74140167236328,
01-19,,26.14691734313965,34.78623580932617,37.85942077636719,,,,84.22972869873047,91.06726837158203,112.38103485107422,,
01-20,15.401403427124023,25.69912338256836,34.185386657714844,38.35984420776367,,,103.54916381835938,85.99520874023438,92.46830749511719,,,
01-21,15.735880851745605,24.05858039855957,34.5173225402832,,,85.09156036376953,103.49015045166016,84.52396392822266,,,,123.55860137939453
01-22,15.280839920043945,24.392383575439453,,,62.957862854003906,83.8196792602539,104.9969482421875,85.66419219970703,,110.80596160888672,100.69921112060547,123.82361602783203
01-23,15.249720573425293,,,38.10531997680664,63.24009704589844,83.6987533569336,103.39030456542969,,93.6264877319336,111.25192260742188,98.47966766357422,123.9217529296875
01-24,,,35.00472640991211,38.17864990234375,63.49143600463867,81.32960510253906,,,95.08358001708984,112.85546875,98.64373016357422,123.48008728027344
01-25,,24.864604949951172,35.1181755065918,38.575538635253906,63.59288787841797,,,83.77913665771484,94.41107177734375,114.06048583984375,99.87894439697266,
01-26,15.109708786010742,24.412742614746094,35.62659454345703,38.321014404296875,,,103.39484405517578,85.130859375,95.13027954101562,115.25602722167969,,
01-27,15.218609809875488,24.225482940673828,35.261043548583984,38.42023468017578,,82.04169464111328,102.55070495605469,85.33316040039062,95.28904724121094,,,120.682861328125
01-28,15.910901069641113,24.021936416625977,34.97111511230469,,61.73637771606445,81.70133209228516,100.6354751586914,84.68029022216797,,,100.07192993164062,121.73304748535156
01-29,15.31584358215332,23.88759994506836,,,62.20380401611328,82.04618072509766,102.4372329711914,87.46649169921875,,113.45323181152344,100.82465362548828,121.13434600830078
01-30,14.61578369140625,,,38.59711456298828,61.83781814575195,82.70452880859375,101.15284729003906,,95.29840850830078,112.2956314086914,101.37471008300781,120.83009338378906
01-31,,,35.41230773925781,38.64456558227539,60.7971076965332,81.66999053955078,,,93.41168975830078,112.65620422363281,101.75106811523438,117.62065124511719
02-01,,24.229557037353516,36.13920974731445,39.196754455566406,61.983306884765625,,,87.89867401123047,93.9253921508789,111.60298156738281,102.06951141357422,
02-02,14.580775260925293,24.400531768798828,35.77785110473633,38.739471435546875,,,101.53863525390625,85.55384826660156,93.94406127929688,109.69579315185547,,
02-03,14.390199661254883,24.103361129760742,35.96693420410156,39.35205841064453,,79.21128845214844,102.97730255126953,87.45728302001953,94.28031921386719,,,119.09286499023438
02-04,14.184076309204102,23.500873565673828,36.071983337402344,,61.26892852783203,79.37699890136719,103.2269287109375,87.99982452392578,,,102.54238891601562,120.26081848144531
02-05,14.646890640258789,23.749197006225586,,,61.0175895690918,79.36804962158203,104.55216979980469,85.39752197265625,,106.25151062011719,103.2661361694336,122.54768371582031
02-06,15.214730262756348,,,39.20537567138672,60.99995040893555,80.12938690185547,104.77454376220703,,93.32760620117188,108.13019561767578,102.38796997070312,122.05693817138672
02-07,,,36.172813415527344,39.37362289428711,60.841182708740234,81.75060272216797,,,93.41168975830078,108.29150390625,101.18170166015625,120.33934783935547
02-08,,23.480518341064453,36.44172668457031,39.52030563354492,61.24248504638672,,,82.43660736083984,93.49574279785156,104.6574478149414,101.19136810302734,
02-09,15.269165992736816,24.083003997802734,36.34088897705078,39.70148849487305,,,102.94100952148438,83.66877746582031,93.52375030517578,106.62156677246094,,
02-10,14.541884422302246,24.323179244995117,36.7736701965332,39.18381881713867,,82.37310791015625,103.58546447753906,83.99063110351562,93.90670013427734,,,118.65119934082031
02-11,14.530219078063965,24.518583297729492,37.13502502441406,,61.44972229003906,82.9239501953125,103.576416015625,82.08718872070312,,,101.0562515258789,119.69157409667969
02-12,14.359089851379395,24.571500778198242,,,60.17090606689453,83.19266510009766,105.75938415527344,84.39521026611328,,108.1491928100586,103.84515380859375,120.0939712524414
02-13,14.082950592041016,,,39.291656494140625,61.343902587890625,83.85100555419922,107.4567642211914,,94.1589126586914,108.69952392578125,104.11534881591797,118.22917175292969
02-14,,,37.181236267089844,39.050079345703125,61.2953987121582,84.59892272949219,,,94.86874389648438,110.36949157714844,103.50738525390625,117.9249038696289
02-15,,,37.122413635253906,39.045738220214844,61.467369079589844,,,,95.17817687988281,110.6742935180664,105.29267120361328,
02-16,,25.00301170349121,37.5029296875,39.67957305908203,,,,86.0871810913086,95.43138122558594,110.64572143554688,,
02-17,13.371214866638184,25.38495635986328,37.82004165649414,39.99214553833008,,,107.03921508789062,87.69334411621094,95.99401092529297,,,
02-18,13.466023445129395,25.508161544799805,38.111778259277344,,,83.56438446044922,107.52167510986328,87.40719604492188,,,,117.12010192871094
02-19,13.205314636230469,25.660120010375977,,,59.84458923339844,84.04967498779297,107.18486785888672,88.2748794555664,,,104.92596435546875,117.30657196044922
02-20,12.905104637145996,,,,58.24571990966797,84.80900573730469,107.7037124633789,,,109.92180633544922,105.90062713623047,117.65157318115234
02-21,,,,39.92702865600586,57.61236572265625,85.31224060058594,,,96.58477783203125,110.13136291503906,106.7438735961914,117.20801544189453
02-22,,25.491737365722656,36.80953598022461,39.85321807861328,58.60446548461914,,,89.28105926513672,96.40660858154297,110.3599624633789,108.01359558105469,
02-23,12.277029991149902,25.237106323242188,36.593894958496094,40.026878356933594,,,107.63544464111328,87.5733642578125,96.20967864990234,111.88400268554688,,
02-24,12.830052375793457,25.50405502319336,36.340213775634766,39.79678726196289,,84.7056655883789,107.76290893554688,88.321044921875,96.87545776367188,,,113.62010192871094
02-25,12.632543563842773,25.07693862915039,36.965965270996094,,57.709815979003906,85.71662902832031,107.26223754882812,89.54873657226562,,,108.86653900146484,108.06082916259766
02-26,12.419236183166504,25.27406883239746,,,58.76392364501953,86.77704620361328,107.33961486816406,90.61032104492188,,111.95068359375,108.04267120361328,107.52855682373047
02-27,12.269134521484375,,,40.34812545776367,59.64086151123047,87.02864837646484,107.13024139404297,,96.06903839111328,109.8360824584961,108.72115325927734,102.10728454589844
02-28,,,37.36764144897461,40.343788146972656,59.64086151123047,88.88433837890625,,,96.0502700805664,107.1023178100586,108.52730560302734,102.9549789428711
02-29,,,,39.61444854736328,,,,89.10567474365234,,,,
03-01,,25.619043350219727,37.0970344543457,40.2265739440918,59.707298278808594,,,91.92110443115234,96.85671997070312,105.83545684814453,109.29302215576172,
03-02,11.866218566894531,25.709400177001953,37.21120071411133,40.1571044921875,,,108.18617248535156,91.69033813476562,96.00338745117188,105.01628875732422,,103.80266571044922
03-03,11.77141284942627,25.849035263061523,37.94265365600586,,,88.5428466796875,106.74794006347656,92.58572387695312,95.70333099365234,,,102.89583587646484
03-04,12.213829040527344,25.83672332763672,37.44798278808594,,60.052757263183594,89.94922637939453,107.11204528808594,94.6072769165039,,,107.9360580444336,106.41474151611328
03-05,11.249993324279785,25.992782592773438,,39.77507400512695,60.331783294677734,89.65715026855469,107.162109375,,,107.40711975097656,107.34481811523438,101.18074798583984
03-06,11.621309280395508,,,39.249778747558594,59.99074172973633,89.92675018310547,105.5782470703125,,94.89686584472656,109.60746765136719,107.15097045898438,99.99791717529297
03-07,,,37.0040283203125,39.31056213378906,59.999610900878906,89.89530944824219,,95.41960144042969,94.50303649902344,109.5598373413086,106.46279907226562,
03-08,,26.09956169128418,37.55789566040039,40.34812545776367,60.827816009521484,,,93.70265197753906,100.17622375488281,109.92180633544922,106.25924682617188,
03-09,11.652909278869629,25.844926834106445,37.22810363769531,40.27431869506836,,,105.723876953125,94.4134292602539,96.51913452148438,112.06498718261719,,96.0157470703125
03-10,12.913002967834473,26.16116714477539,36.5516242980957,,,89.9986572265625,103.62113952636719,94.99497985839844,95.73143768310547,,,100.52033233642578
03-11,12.999908447265625,25.992782592773438,36.995567321777344,,61.022701263427734,88.74504852294922,102.48783874511719,96.93346405029297,,,107.87789916992188,95.58203887939453
03-12,13.564780235290527,26.350082397460938,,40.41324234008789,61.62505340576172,88.61024475097656,104.54505157470703,,,110.93148040771484,107.7325210571289,88.61323547363281
03-13,13.035457611083984,,,40.94289779663086,62.67914962768555,87.5768051147461,103.73035430908203,,96.28472137451172,110.55999755859375,107.90697479248047,92.84183502197266
03-14,,,37.13931655883789,40.66938781738281,62.99361038208008,87.42852020263672,,96.68423461914062,95.39386749267578,109.57888793945312,106.3077163696289,
03-15,,26.485612869262695,36.69961166381836,40.65202713012695,62.581703186035156,,,96.70269012451172,97.56000518798828,108.85497283935547,106.6469497680664,
03-16,13.011756896972656,26.547218322753906,36.158409118652344,40.63031768798828,,,104.71802520751953,98.41041564941406,97.1661605834961,109.47411346435547,,81.24029541015625
03-17,13.418621063232422,27.0646915435791,36.8518180847168,,,88.0486068725586,103.4345474243164,100.98582458496094,97.98196411132812,,,81.43743896484375
03-18,13.821541786193848,26.588294982910156,36.97866439819336,,62.49312973022461,88.9472427368164,104.51774597167969,100.52427673339844,,,107.53865051269531,71.87626647949219
03-19,13.864988327026367,26.66632080078125,,41.00801086425781,62.39125061035156,87.68914031982422,102.93843078613281,,,107.84529113769531,107.49019622802734,75.46417236328125
03-20,13.710933685302734,,,40.77791213989258,62.45326614379883,87.50041961669922,104.2537841796875,,98.99471282958984,108.44537353515625,107.41266632080078,78.57894897460938
03-21,,,37.4437255859375,40.86908721923828,60.80567169189453,87.67117309570312,,100.51505279541016,97.97259521484375,108.54063415527344,109.17669677734375,
03-22,,26.892200469970703,37.24502944946289,40.356815338134766,60.22105407714844,,,101.3919677734375,97.75692749023438,106.02595520019531,103.4096450805664,
03-23,14.61551284790039,27.126300811767578,37.32534408569336,40.6563720703125,,,103.05677032470703,100.74581909179688,98.10386657714844,104.2828369140625,,71.46228790283203
03-24,14.453557968139648,26.871667861938477,37.49448013305664,,,86.81298828125,102.62893676757812,100.57042694091797,97.32557678222656,,,80.87559509277344
03-25,14.56811237335205,26.56775665283203,37.8158073425293,,59.29982376098633,86.66021728515625,101.24987030029297,,,,103.76826477050781,84.48320770263672
03-26,15.290984153747559,27.134510040283203,,41.420440673828125,59.36625671386719,85.55489349365234,100.721923828125,,,106.61651611328125,105.0282974243164,88.47523498535156
03-27,14.536513328552246,,,41.563690185546875,59.09165573120117,85.15946960449219,101.47745513916016,,97.35370635986328,106.59748077392578,106.69541931152344,83.78337097167969
03-28,,,37.79044723510742,41.14692306518555,59.32197570800781,85.73460388183594,,100.98582458496094,98.43208312988281,104.74956512451172,108.28498840332031,
03-29,,27.007190704345703,38.30204391479492,41.5419921875,,,,102.06582641601562,99.18223571777344,106.30218505859375,109.3996353149414,
03-30,14.564162254333496,27.126300811767578,40.559818267822266,41.589752197265625,,,102.17379760742188,103.29353332519531,98.67588806152344,,,84.69019317626953
03-31,14.576011657714844,26.859350204467773,40.25540542602539,,,86.92530059814453,102.65168762207031,102.9150619506836,98.53524017333984,,,82.40340423583984
04-01,15.591203689575195,27.311107635498047,40.208900451660156,,59.419410705566406,88.35414123535156,102.16016387939453,104.41046142578125,,,110.70812225341797,78.74650573730469
04-02,16.610334396362305,,,42.405914306640625,59.21124267578125,88.6326904296875,101.75962829589844,,,103.1207504272461,110.72750854492188,79.57449340820312
04-03,17.601821899414062,,,41.53764343261719,58.78163146972656,88.68212127685547,,,98.53524017333984,104.94960021972656,111.05706024169922,79.27877807617188
04-04,,,40.796607971191406,40.77358627319336,59.30425262451172,88.85736083984375,,103.56124114990234,98.24452209472656,105.5306396484375,111.4641342163086,
04-05,,27.48359489440918,40.737388610839844,41.80247497558594,58.34315872192383,,,102.85966491699219,98.46021270751953,106.36885833740234,111.42536926269531,
04-06,17.48726463317871,27.762868881225586,40.762779235839844,,,,102.0509033203125,103.45970153808594,98.71339416503906,104.19710540771484,,85.39002990722656
04-07,16.90659523010254,27.701276779174805,40.61902618408203,,,86.75006866455078,102.36042022705078,102.1027603149414,99.44480895996094,,,89.78620147705078
04-08,16.934246063232422,27.89839744567871,40.31037139892578,,58.219139099121094,86.49396514892578,102.92024230957031,103.22891235351562,,,110.8825912475586,92.01385498046875
04-09,17.763771057128906,28.20641326904297,,40.91684341430664,58.75063705444336,87.92729949951172,103.92607116699219,,,104.40665435791016,110.76628112792969,95.7791748046875
04-10,,,,39.9791259765625,59.64086151123047,85.35269927978516,104.45402526855469,,99.20099639892578,105.12104797363281,111.36721801757812,
04-11,,,40.141258239746094,41.0427360534668,60.9473876953125,84.39114379882812,,103.09044647216797,99.45417022705078,104.09232330322266,110.99889373779297,
04-12,,28.29265785217285,39.64234161376953,42.03689193725586,60.34505844116211,,,104.25354766845703,98.5164794921875,104.81624603271484,112.04568481445312,
04-13,17.82697868347168,28.473371505737305,39.01235580444336,41.55501174926758,,,104.49501037597656,105.44434356689453,97.91632843017578,104.77815246582031,,92.3391342163086
04-14,17.431961059570312,28.547290802001953,39.105377197265625,,,84.7236557006836,103.75313568115234,105.7027816772461,,,,91.46186828613281
04-15,17.554414749145508,28.637649536132812,39.173038482666016,,58.214717864990234,84.71015930175781,103.43909454345703,106.47819519042969,,,112.88895416259766,87.21356201171875
04-16,18.214092254638672,28.40355682373047,,42.067291259765625,59.59214401245117,86.1030502319336,103.20240020751953,,,106.464111328125,114.75959777832031,87.62755584716797
04-17,17.890182495117188,,,42.692447662353516,58.63990020751953,89.62120819091797,103.13871002197266,,98.82591247558594,107.7119369506836,113.78065490722656,91.97442626953125
04-18,,,38.64028549194336,42.748870849609375,62.29383087158203,,,106.84742736816406,98.2164077758789,107.81671905517578,116.1747055053711,
04-19,,28.83066177368164,39.38019561767578,43.84721755981445,62.71014404296875,,,107.58589935302734,98.46021270751953,104.43522644042969,,
04-20,17.060644149780273,28.91692352294922,39.97213363647461,43.97311019897461,,,103.62568664550781,107.142822265625,99.74488830566406,103.70178985595703,,89.79605865478516
04-21,17.238407135009766,28.949766159057617,40.014408111572266,,,88.3092041015625,103.33894348144531,101.77967834472656,99.3416519165039,,,86.75028991699219
04-22,17.412208557128906,28.851211547851562,,,63.57821273803711,88.22831726074219,103.0431137084961,104.48432922363281,,,113.63526916503906,88.78080749511719
04-23,17.16335678100586,29.270124435424805,,43.851566314697266,64.13185119628906,88.20137023925781,102.80645751953125,,,103.71131134033203,114.00359344482422,89.22435760498047
04-24,17.95732879638672,,,44.2813606262207,64.21157836914062,87.3970718383789,101.63674926757812,,101.28274536132812,100.74895477294922,113.05371856689453,91.41259002685547
04-25,,,39.5028190612793,45.223411560058594,65.06637573242188,86.70962524414062,,103.939697265625,103.917724609375,102.75878143310547,111.97784423828125,
04-26,,29.044240951538086,39.73112487792969,45.67926025390625,64.18943786621094,,,104.8166275024414,103.59889221191406,102.58732604980469,114.18775177001953,
04-27,17.392459869384766,28.3214111328125,39.57468032836914,45.87027359008789,,,100.51712036132812,104.29969787597656,104.35842895507812,102.8445053100586,,94.62592315673828
04-28,17.080402374267578,28.71567153930664,39.803009033203125,,,86.03117370605469,100.47615814208984,104.09661102294922,102.99874877929688,,,90.18047332763672
04-29,17.42801856994629,29.257793426513672,40.02708435058594,,65.11510467529297,86.71861267089844,101.11788177490234,101.89966583251953,,,113.50926971435547,94.50763702392578
04-30,17.400360107421875,28.900495529174805,,45.68794631958008,65.1682357788086,86.9971923828125,100.84025573730469,,,100.85372924804688,113.88726806640625,89.52992248535156
05-01,17.388517379760742,,,46.4693717956543,64.30899810791016,86.5568618774414,102.20112609863281,,102.64241790771484,101.8443603515625,111.91969299316406,86.74043273925781
05-02,,,39.798763275146484,46.53448486328125,65.76171875,87.69812774658203,,102.68429565429688,102.65180206298828,100.69178771972656,113.17002868652344,
05-03,,29.27422332763672,38.94047546386719,46.53883361816406,67.44474029541016,,,101.07813262939453,102.39860534667969,99.97740173339844,114.01326751708984,
05-04,18.368154525756836,28.120162963867188,38.21747970581055,45.87461471557617,,,102.41956329345703,100.23812103271484,103.04563903808594,101.34904479980469,,85.5871810913086
05-05,18.07978630065918,27.70948600769043,38.15407180786133,,,88.01715087890625,100.84935760498047,100.22887420654297,103.67390441894531,,,87.0065689086914
05-06,18.142988204956055,26.80694007873535,38.46041488647461,,67.21443176269531,87.82845306396484,101.06327819824219,100.34933471679688,,,112.71448516845703,87.52898406982422
05-07,17.475610733032227,26.409494400024414,,46.40859603881836,67.86105346679688,89.2977294921875,102.69796752929688,,,101.1680679321289,110.94072723388672,89.066650390625
05-08,17.871240615844727,,,46.495906829833984,68.9860610961914,88.49072265625,104.58837127685547,,102.04578399658203,101.61576080322266,110.51426696777344,91.1780776977539
05-09,,,38.839115142822266,46.247066497802734,68.44361877441406,88.64398956298828,,99.54326629638672,101.49992370605469,102.4001235961914,109.87185668945312,
05-10,,27.775712966918945,39.05183792114258,46.15540313720703,68.53695678710938,,,100.73846435546875,101.49992370605469,101.50096130371094,109.24891662597656,
05-11,17.399682998657227,27.502471923828125,38.29022216796875,45.919681549072266,,,103.80299377441406,99.52473449707031,101.13288116455078,96.06768035888672,,89.63167572021484
05-12,17.459619522094727,28.003416061401367,38.17106246948242,,,89.90182495117188,102.50617980957031,99.589599609375,100.81290435791016,,,86.86599731445312
05-13,16.74030113220215,27.64737319946289,37.643463134765625,,68.12786865234375,89.14442443847656,102.92169952392578,98.85767364501953,,,108.2853012084961,83.50555419921875
05-14,16.94810676574707,26.947708129882812,,45.01603317260742,69.72868347167969,88.61692810058594,104.47422790527344,,,98.49734497070312,108.5870361328125,85.2204818725586
05-15,16.86418342590332,,,44.60567092895508,69.57749938964844,87.74683380126953,105.79839324951172,,101.62226867675781,98.55474853515625,108.95691680908203,86.16219329833984
05-16,,,37.707298278808594,44.417964935302734,69.16839599609375,88.07593536376953,,100.21035766601562,101.08582305908203,99.00434112548828,109.91079711914062,
05-17,,27.374128341674805,37.19669723510742,43.152000427246094,70.63135528564453,,,99.14488220214844,99.26946258544922,99.87480163574219,108.79143524169922,
05-18,17.615480422973633,27.171268463134766,37.90301513671875,42.5888671875,,,105.4468002319336,98.57044982910156,99.18475341796875,100.39134979248047,,91.04920959472656
05-19,17.847265243530273,26.645477294921875,37.83918380737305,,,88.38249206542969,105.01757049560547,97.87557220458984,100.44586944580078,,,92.40727233886719
05-20,18.182950973510742,25.48625946044922,37.46474838256836,,69.83983612060547,88.22471618652344,104.53355407714844,98.4036865234375,,,104.86884307861328,95.15312194824219
05-21,17.595497131347656,25.954092025756836,,43.453216552734375,70.67582702636719,88.89196014404297,104.67053985595703,,,100.4678726196289,106.09525299072266,94.2609634399414
05-22,17.83527946472168,,,43.33099365234375,70.0577392578125,88.52226257324219,104.65229034423828,,100.15410614013672,98.37298583984375,105.58911895751953,95.34146118164062
05-23,,,36.873313903808594,44.00326156616211,69.75091552734375,89.65386199951172,,98.60749816894531,100.41761779785156,98.24864959716797,103.97335815429688,
05-24,,25.473838806152344,36.56270980834961,45.487483978271484,69.73757934570312,,,99.83975982666016,100.64350128173828,98.04776000976562,104.8785629272461,
05-25,,25.75950813293457,37.158409118652344,45.042232513427734,,,,100.35859680175781,100.61526489257812,98.90867614746094,,
05-26,17.99112319946289,25.6104679107666,37.0605354309082,,,,103.52442932128906,99.78416442871094,100.92582702636719,,,99.12815856933594
05-27,17.507585525512695,26.947708129882812,37.358394622802734,,,89.32024383544922,104.62947082519531,100.61801147460938,,,,101.4576644897461
05-28,17.61948013305664,26.525419235229492,,,69.95992279052734,90.28052520751953,104.93994903564453,,,,104.64496612548828,101.7451400756836
05-29,17.77134132385254,,,45.88037872314453,69.85765075683594,90.61865234375,104.51531219482422,,,96.65119171142578,104.32376861572266,100.78359985351562
05-30,,,,44.64059829711914,69.50633239746094,90.89366912841797,,,100.21058654785156,97.02424621582031,104.38217163085938,
05-31,,,37.74132537841797,45.155723571777344,68.30573272705078,,,99.76565551757812,100.09765625,96.53639221191406,101.8611831665039,
06-01,18.39874839782715,25.891984939575195,36.91586685180664,43.20003128051758,,,104.57923126220703,100.04358673095703,102.73279571533203,97.57905578613281,,102.46878051757812
06-02,18.234905242919922,26.79866600036621,36.664825439453125,,,91.21826171875,104.22306060791016,100.2474136352539,103.9186019897461,,,106.58259582519531
06-03,17.823293685913086,26.479873657226562,36.13722229003906,,68.9860610961914,90.94326782226562,105.01757049560547,99.75636291503906,,,104.90777587890625,110.70632934570312
06-04,17.983135223388672,25.58148765563965,,42.6805419921875,68.28350830078125,91.90806579589844,104.46051788330078,,,97.98079681396484,108.73303985595703,110.15121459960938
06-05,17.999128341674805,,,43.2131233215332,66.69603729248047,91.58795928955078,104.39659118652344,,101.97989654541016,98.04776000976562,109.3559799194336,112.95653533935547
06-06,,,35.7840576171875,44.44417190551758,67.26520538330078,92.39047241210938,,100.17330169677734,101.99872589111328,99.41565704345703,109.97891998291016,
06-07,,25.05569839477539,36.456356048583984,44.780296325683594,68.88827514648438,,,99.84900665283203,101.49992370605469,98.61214447021484,110.95228576660156,
06-08,17.699403762817383,25.722244262695312,35.9329719543457,45.260501861572266,,,104.1545639038086,102.79528045654297,101.56580352783203,99.6260986328125,,112.41133117675781
06-09,18.19094467163086,25.63117027282715,36.27763366699219,,,92.47161865234375,104.6796875,102.31351470947266,103.45745849609375,,,110.44859313964844
06-10,18.083038330078125,26.21491050720215,35.78831481933594,,68.5992202758789,92.78269958496094,105.8805923461914,101.21096801757812,,,111.34162139892578,108.08934783935547
06-11,18.162961959838867,26.819372177124023,,44.5096549987793,67.54536437988281,92.6925277709961,106.84405517578125,,,99.41565704345703,113.7360610961914,98.6919937133789
06-12,18.03508949279785,,,45.465660095214844,67.1229019165039,91.78182220458984,106.50616455078125,,103.65509796142578,99.03303527832031,113.8723373413086,100.74394226074219
06-13,,,35.67341995239258,44.487823486328125,69.04389953613281,92.09291076660156,,99.77490234375,105.00088500976562,98.81302642822266,113.79446411132812,
06-14,,26.525419235229492,36.3797492980957,44.422332763671875,68.403564453125,,,99.20973205566406,104.93501281738281,99.44434356689453,113.4440689086914,
06-15,17.575517654418945,27.15056800842285,35.72874450683594,45.46128845214844,,,105.41484069824219,98.7835464477539,104.7656021118164,100.80266571044922,,102.30025482177734
06-16,17.21186065673828,27.548015594482422,35.78831481933594,,,91.52935028076172,105.93537902832031,99.09854125976562,104.61502838134766,,,103.8466567993164
06-17,17.279796600341797,27.390689849853516,36.06062316894531,,69.41740417480469,91.29942321777344,106.54725646972656,100.22888946533203,,,111.86723327636719,103.95570373535156
06-18,17.15990447998047,27.597702026367188,,45.74068832397461,69.62197875976562,91.78633117675781,107.58834075927734,,,100.43917083740234,111.62388610839844,103.5096206665039
06-19,17.111957550048828,,,46.35186004638672,68.55475616455078,91.61955261230469,107.12259674072266,,104.56798553466797,99.6069564819336,112.5777816772461,102.81572723388672
06-20,,,36.34996795654297,46.29072952270508,66.7360610961914,92.22816467285156,,100.45124053955078,104.25741577148438,100.57310485839844,112.12031555175781,
06-21,,27.659799575805664,37.32860565185547,44.710445404052734,66.21135711669922,,,100.1176986694336,104.16329193115234,99.76957702636719,112.97684478759766,
06-22,16.64838981628418,27.13401222229004,37.33284378051758,45.483131408691406,,,107.9171142578125,99.88607788085938,104.05978393554688,100.84092712402344,,102.76615905761719
06-23,16.58844566345215,26.951841354370117,37.022247314453125,,,92.13796997070312,108.02668762207031,103.04544830322266,104.16329193115234,,,102.7859878540039
06-24,17.17190170288086,26.127975463867188,37.0860710144043,,65.22416687011719,91.53386688232422,107.73446655273438,95.17945098876953,,,113.78473663330078,100.99176788330078
06-25,17.519573211669922,26.061731338500977,,44.23462677001953,65.73554229736328,92.18307495117188,107.52440643310547,,,100.54440307617188,113.17151641845703,101.8740005493164
06-26,17.41167640686035,,,44.89379119873047,66.25580596923828,91.33098602294922,107.77098846435547,,104.29505157470703,101.23312377929688,112.45123291015625,101.24950408935547
06-27,,,37.00095748901367,45.173194885253906,66.26915740966797,91.99373626708984,,91.43639373779297,103.98448181152344,100.54440307617188,112.8016586303711,
06-28,,26.03689193725586,37.63921356201172,45.181915283203125,65.1041259765625,,,93.16895294189453,104.53031921386719,101.1279067993164,113.59980010986328,
06-29,17.527565002441406,25.254417419433594,37.92855453491211,46.32565689086914,,,105.0038833618164,94.95709228515625,103.19393920898438,99.22433471679688,,103.03380584716797
06-30,17.54355239868164,25.010154724121094,38.63060760498047,,,94.74385070800781,104.76643371582031,96.49508666992188,103.48567962646484,,,105.13532257080078
07-01,17.495594024658203,25.275117874145508,39.081626892089844,,66.00680541992188,94.16224670410156,106.39199829101562,96.837890625,,,115.46862030029297,105.42279815673828
07-02,16.844205856323242,25.076400756835938,,45.70576858520508,66.29138946533203,93.91429138183594,105.85318756103516,,,98.2199478149414,114.94302368164062,108.11907958984375
07-03,,,,45.78434371948242,66.51814270019531,94.74835205078125,,,104.09742736816406,97.5694808959961,115.90664672851562,
07-05,,,38.928462982177734,46.05064392089844,67.77655792236328,,,95.10533142089844,104.16329193115234,98.34429931640625,114.81648254394531,
07-06,17.191879272460938,25.072256088256836,39.362457275390625,46.08555603027344,,,105.11347961425781,95.40180206298828,103.57039642333984,98.52605438232422,,108.9220199584961
07-07,16.63240623474121,26.111419677734375,39.72840118408203,,,93.94586944580078,105.07693481445312,95.45740509033203,104.4644546508789,,,107.47474670410156
07-08,16.712326049804688,26.599939346313477,39.1965217590332,,68.13677215576172,93.2335433959961,103.28699493408203,98.5055923461914,,,113.27859497070312,105.541748046875
07-09,16.828216552734375,26.753122329711914,,45.12517547607422,69.60417175292969,93.69338989257812,102.86690521240234,,,99.40607452392578,112.85032653808594,104.16387176513672
07-10,16.760278701782227,,,44.58822250366211,69.38628387451172,93.49951934814453,104.93081665039062,,104.44562530517578,100.24787139892578,112.33444213867188,106.10678100585938
07-11,,,38.40936279296875,44.038185119628906,70.27118682861328,93.78807067871094,,98.77428436279297,104.43622589111328,99.24347686767578,112.90872192382812,
07-12,,26.405359268188477,38.23065185546875,43.9421501159668,70.13778686523438,,,100.71066284179688,105.2549819946289,99.32957458496094,113.92100524902344,
07-13,17.41167640686035,27.04706573486328,38.26470184326172,45.1120719909668,,,106.41939544677734,101.42407989501953,105.78204345703125,99.47305297851562,,108.42637634277344
07-14,17.63545799255371,26.711719512939453,37.63495635986328,,,93.77002716064453,107.40567779541016,100.64580535888672,106.15845489501953,,,110.74597930908203
07-15,18.42272186279297,26.744842529296875,38.15406036376953,,69.8087158203125,92.67446899414062,106.83035278320312,101.23876953125,,,114.57315063476562,114.61198425292969
07-16,19.68952751159668,25.85886573791504,,44.58385467529297,68.8526611328125,92.7781753540039,102.11805725097656,,,97.92342376708984,114.70941162109375,114.25511932373047
07-17,19.805429458618164,,,45.45693588256836,69.75091552734375,93.6392822265625,102.09980010986328,,106.30903625488281,100.83136749267578,113.50245666503906,110.90457916259766
07-18,,,37.74559020996094,45.483131408691406,71.14717864990234,94.47334289550781,,101.26657104492188,106.29963684082031,102.1131591796875,113.88206481933594,
07-19,,25.730533599853516,37.97108840942383,48.87504959106445,70.77366638183594,,,100.4141845703125,106.91136932373047,101.76879119873047,114.37848663330078,
07-20,20.16109848022461,26.76140594482422,38.01789855957031,49.700111389160156,,,101.23220825195312,101.9428939819336,100.43645477294922,100.43917083740234,,108.43629455566406
07-21,20.153106689453125,26.827640533447266,38.28597640991211,,,94.11265563964844,98.82127380371094,100.60875701904297,100.1070556640625,,,109.1995849609375
07-22,20.28097915649414,27.3244571685791,37.84345245361328,,71.02715301513672,94.72581481933594,98.71168518066406,99.73783874511719,,,113.83338928222656,110.70632934570312
07-23,20.96833610534668,28.007564544677734,,48.346832275390625,70.76032257080078,94.81597137451172,96.46514129638672,,,99.87480163574219,115.78984069824219,109.86373901367188
07-24,21.004302978515625,,,47.390811920166016,69.8487548828125,94.68523406982422,94.2916259765625,,99.18475341796875,101.44356536865234,114.95274353027344,109.5960922241211
07-25,,,37.677494049072266,46.9237174987793,70.58244323730469,94.16674041748047,,98.7557601928711,100.80347442626953,104.53327178955078,114.99168395996094,
07-26,,28.23526954650879,36.84352493286133,47.24674987792969,69.86209106445312,,,98.91326141357422,100.46468353271484,105.85333251953125,114.79702758789062,
07-27,21.104211807250977,28.483678817749023,36.16700744628906,48.2027702331543,,,93.50621032714844,98.29249572753906,99.9000244140625,104.68631744384766,,109.26897430419922
07-28,21.00031280517578,28.500228881835938,35.97552490234375,,,94.07658386230469,97.64320373535156,97.72734832763672,99.78707122802734,,,107.63335418701172
07-29,20.73255729675293,28.491952896118164,35.826595306396484,,71.66742706298828,92.41751098632812,99.15005493164062,97.013916015625,,,115.27395629882812,109.44740295410156
07-30,21.74361228942871,28.761058807373047,,48.45161056518555,71.61407470703125,92.1650390625,99.1043701171875,,,104.97328186035156,115.78984069824219,107.25666809082031
07-31,21.97938346862793,,,47.78370666503906,71.34284210205078,89.42845916748047,98.97653198242188,,99.05300903320312,105.85333251953125,114.26168823242188,106.71146392822266
08-01,,,35.69896697998047,47.17254638671875,72.37445831298828,89.44198608398438,,96.97686767578125,98.92124938964844,104.96372985839844,112.58750915527344,
08-02,,29.44417381286621,34.77138137817383,46.98918914794922,72.19661712646484,,,96.06891632080078,99.95648956298828,104.571533203125,111.12748718261719,
08-03,22.70670509338379,28.988759994506836,35.162837982177734,47.67019271850586,,,98.51078033447266,96.66185760498047,98.50715637207031,106.1307144165039,,106.44380950927734
08-04,22.794628143310547,29.344810485839844,33.0523796081543,,,90.44732666015625,97.29615783691406,96.44873809814453,98.82714080810547,,,106.8502426147461
08-05,22.82259750366211,29.083984375,33.13747787475586,,71.98760223388672,89.36082458496094,97.34183502197266,96.75450134277344,,,108.0030288696289,110.68650817871094
08-06,22.653179168701172,29.021394729614258,,47.97577667236328,71.77862548828125,89.66737365722656,96.40718841552734,,,105.52809143066406,108.02249908447266,110.46842193603516
08-07,22.669315338134766,,,48.68296813964844,71.63186645507812,89.26026153564453,95.22509002685547,,98.9494857788086,105.1837387084961,109.85238647460938,113.26748657226562
08-08,,,31.26865577697754,48.761959075927734,72.23445129394531,90.57210540771484,,97.17304229736328,97.73023223876953,104.50457000732422,113.54139709472656,
08-09,,29.113183975219727,33.137481689453125,48.876068115234375,72.1719741821289,,,97.07071685791016,97.70187377929688,104.92731475830078,112.74952697753906,
08-10,22.221580505371094,28.93377113342285,31.3158016204834,48.63469696044922,,,97.6900405883789,97.36836242675781,95.77372741699219,103.2459487915039,,115.28958892822266
08-11,22.24577522277832,27.97821807861328,32.1087646484375,,,90.10167694091797,95.67408752441406,97.41485595703125,95.20662689208984,,,120.41954803466797
08-12,22.39906120300293,27.89475440979004,32.173057556152344,,72.01573181152344,90.2599868774414,95.3259048461914,96.71732330322266,,,110.03173065185547,120.51915740966797
08-13,22.54830551147461,27.669422149658203,,48.336265563964844,72.64956665039062,91.38185119628906,94.85855865478516,,,101.92005157470703,110.55963897705078,118.34764099121094
08-14,22.015859603881836,,,47.607749938964844,72.4754638671875,91.18280792236328,95.93984985351562,,96.93627166748047,102.65984344482422,107.75385284423828,118.51698303222656
08-15,,,32.841732025146484,48.0246696472168,70.86860656738281,91.49945831298828,,97.15443420410156,97.2954330444336,102.83280181884766,107.16728210449219,
08-16,,27.75287628173828,32.23307800292969,48.292381286621094,70.78825378417969,,,96.40108489990234,98.05158233642578,103.66868591308594,108.24266815185547,
08-17,21.366437911987305,28.266130447387695,32.27593994140625,48.384544372558594,,,95.53667449951172,96.34526824951172,97.0497055053711,104.16829681396484,,118.45721435546875
08-18,21.358375549316406,28.061664581298828,30.179931640625,,,92.17802429199219,95.82071685791016,96.51268005371094,96.48260498046875,,,118.22811126708984
08-19,21.551990509033203,27.36897850036621,29.52411651611328,,69.99374389648438,92.56705474853516,93.92390441894531,97.40555572509766,,,109.1225357055664,118.17829895019531
08-20,21.439044952392578,27.289701461791992,,47.90618133544922,70.95785522460938,92.31822967529297,91.51395416259766,,,105.42692565917969,107.83206939697266,117.77985382080078
08-21,22.003759384155273,,,47.164512634277344,71.02037048339844,92.77061462402344,89.0765380859375,,96.77559661865234,106.72398376464844,108.22311401367188,117.7698974609375
08-22,,,29.549850463867188,48.73563003540039,71.48458099365234,92.5308609008789,,97.85198974609375,98.8077163696289,106.2628173828125,107.63655090332031,
08-23,,27.126968383789062,30.492835998535156,47.831581115722656,72.41746520996094,,,98.99595642089844,97.94760131835938,105.46534729003906,104.15619659423828,
08-24,21.842411041259766,26.793149948120117,30.814308166503906,47.901798248291016,,,84.5406723022461,98.94945526123047,98.0232162475586,106.28202819824219,,120.60881042480469
08-25,21.89888572692871,27.181215286254883,30.46711540222168,,,93.29083251953125,83.43193054199219,99.2842788696289,98.03266906738281,,,119.35370635986328
08-26,21.677032470703125,27.256319046020508,31.007184982299805,,71.53815460205078,93.3948745727539,85.3104019165039,98.35420227050781,,,104.77210235595703,119.48320007324219
08-27,22.261917114257812,27.99907112121582,,48.00274658203125,70.41777038574219,92.8429946899414,87.22555541992188,,,106.77202606201172,105.00672912597656,120.31993865966797
08-28,22.564443588256836,,,47.787696838378906,69.5250473022461,92.93345642089844,88.06857299804688,,98.43909454345703,105.5614242553711,106.5904769897461,121.64476013183594
08-29,,,32.35737991333008,48.147560119628906,69.71698760986328,93.12345123291016,,100.07482147216797,98.16499328613281,107.28125,107.6756362915039,
08-30,,27.323091506958008,32.78172302246094,47.612144470214844,69.72592163085938,,,99.7771987915039,98.11772918701172,106.32044982910156,108.31110382080078,
08-31,22.34662628173828,27.469131469726562,32.8288688659668,48.283607482910156,,,87.31718444824219,98.4751205444336,98.59976959228516,106.20516204833984,,119.93145751953125
09-01,21.814180374145508,28.441383361816406,32.16020584106445,,,,83.70683288574219,98.5681381225586,98.85496520996094,,,123.51744079589844
09-02,21.753677368164062,28.758506774902344,31.534412384033203,,,92.82035827636719,85.70442199707031,99.55399322509766,,,,125.48973846435547
09-03,21.826274871826172,29.20082664489746,,,70.1722640991211,92.06945037841797,86.11678314208984,,,,107.95915985107422,122.3121566772461
09-04,22.140907287597656,,,47.471717834472656,70.9444580078125,92.11016082763672,85.50284576416016,,,105.57102966308594,109.02476501464844,122.13285064697266
09-05,,,,47.73501968383789,71.67203521728516,92.26396179199219,,,97.76803588867188,106.2628173828125,110.80403900146484,
09-06,,,31.37580680847168,49.5914192199707,71.0828628540039,,,100.09341430664062,98.48634338378906,107.60790252685547,113.189453125,
09-07,,28.49144744873047,32.15161895751953,49.652854919433594,,,,99.26567077636719,98.30677032470703,107.13712310791016,,
09-08,22.34259796142578,28.833620071411133,32.078758239746094,,,92.2458724975586,88.33431243896484,97.93568420410156,97.90980529785156,,,120.51915740966797
09-09,22.774192810058594,28.921249389648438,31.332937240600586,,72.14965057373047,91.13304138183594,88.05938720703125,93.80619812011719,,,113.90311431884766,124.85222625732422
09-10,22.987985610961914,29.53046417236328,,50.81583786010742,73.0736083984375,91.58541107177734,88.5542221069336,,,107.69437408447266,114.6461181640625,125.25067138671875
09-11,23.11302947998047,,,50.85094451904297,73.39051818847656,91.11494445800781,88.62752532958984,,100.09313201904297,108.17476654052734,115.04693603515625,126.60537719726562
09-12,,,31.341522216796875,50.807064056396484,72.69867706298828,90.32782745361328,,95.57331085205078,100.8398208618164,107.63672637939453,115.5650863647461,
09-13,,29.893497467041016,32.014469146728516,52.04026794433594,72.50672912597656,,,94.08522033691406,99.2991943359375,108.52064514160156,116.70890808105469,
09-14,23.35907745361328,29.768314361572266,32.57597351074219,52.154361724853516,,,86.2817153930664,93.6387939453125,100.6413345336914,107.77123260498047,,129.70327758789062
09-15,23.964136123657227,29.889318466186523,33.18463134765625,,,90.34141540527344,86.39168548583984,94.15962982177734,100.47120666503906,,,129.41439819335938
09-16,24.15775489807129,30.139684677124023,33.70756149291992,,73.73870849609375,90.70783233642578,87.11559295654297,93.20166778564453,,,112.77884674072266,128.53782653808594
09-17,23.91169548034668,30.0645751953125,,52.005157470703125,73.81011962890625,91.30043029785156,86.55662536621094,,,108.55908203125,114.58746337890625,128.74700927734375
09-18,24.06093978881836,,,51.544349670410156,74.90367889404297,91.90206146240234,85.39288330078125,,100.94378662109375,108.82809448242188,116.75778198242188,125.28054809570312
09-19,,,33.313228607177734,51.452186584472656,74.98401641845703,91.74374389648438,,94.01082611083984,102.39933776855469,110.5383071899414,117.98959350585938,
09-20,,30.319110870361328,33.22748947143555,51.94810485839844,74.22077178955078,,,94.17822265625,102.84355926513672,111.37419128417969,116.59159088134766,
09-21,24.077075958251953,30.12299346923828,31.521547317504883,51.60578155517578,,,85.63111877441406,95.29430389404297,103.0136947631836,111.43183135986328,,119.61270141601562
09-22,24.250526428222656,30.07709312438965,30.047046661376953,,,90.32782745361328,83.9542465209961,95.92674255371094,102.79630279541016,,,120.34981536865234
09-23,23.818920135498047,29.814218521118164,29.498409271240234,,72.94417572021484,89.69454193115234,82.41482543945312,96.04765319824219,,,115.70195007324219,117.85955047607422
09-24,23.605134963989258,30.4276065826416,,51.26348114013672,72.96649169921875,90.7168960571289,80.73792266845703,,,108.27084350585938,113.62937927246094,118.48709106445312
09-25,23.25420570373535,,,50.482303619384766,73.48875427246094,89.3010025024414,80.94866180419922,,103.17437744140625,107.16596221923828,114.04976654052734,119.78203582763672
09-26,,,31.0500431060791,50.2935905456543,74.38590240478516,89.77142333984375,,94.99668884277344,102.56002044677734,106.06105041503906,114.04976654052734,
09-27,,30.369192123413086,31.94159698486328,50.57008361816406,73.76992797851562,,,95.28499603271484,102.06852722167969,104.7159423828125,115.57486724853516,
09-28,23.701942443847656,30.519405364990234,30.647130966186523,50.39892578125,,,77.43914794921875,96.32669067382812,102.88135528564453,104.85043334960938,,121.2662353515625
09-29,23.693880081176758,30.41926383972168,31.011474609375,,,90.22830963134766,78.75865173339844,94.92228698730469,102.7017822265625,,,119.86172485351562
09-30,23.48008918762207,30.377532958984375,30.28709602355957,,74.56890869140625,88.99789428710938,80.35306549072266,96.1313705444336,,,115.8583755493164,121.60491943359375
10-01,22.814531326293945,30.49854278564453,,50.71051788330078,74.45733642578125,86.47823333740234,82.5888900756836,,,105.44613647460938,114.25506591796875,121.30608367919922
10-02,22.693517684936523,,,50.3067626953125,74.38145446777344,86.47823333740234,84.90721893310547,,104.91349029541016,105.8880844116211,111.85011291503906,122.790283203125
10-03,,,29.43838119506836,51.17570877075195,74.31449127197266,86.78584289550781,,96.20577239990234,105.84920501708984,104.46614074707031,112.03585815429688,
10-04,,30.143861770629883,30.291379928588867,51.35563659667969,76.28294372558594,,,94.91297149658203,106.1043930053711,104.20672607421875,114.01065826416016,
10-05,23.209836959838867,30.878253936767578,31.18720817565918,51.75939178466797,,,86.67574310302734,94.4758529663086,106.83218383789062,103.78398895263672,,125.42996978759766
10-06,23.407489776611328,31.19539451599121,31.59441375732422,,,86.52346801757812,85.58531188964844,95.04318237304688,107.0684585571289,,,124.0653076171875
10-07,23.34294319152832,31.107757568359375,31.495838165283203,,74.94832611083984,84.32952117919922,86.4191665649414,87.17485809326172,,,113.12100982666016,128.43821716308594
10-08,23.88749885559082,31.38316535949707,,51.662841796875,72.67188262939453,85.73635864257812,87.75700378417969,,,105.2828140258789,109.83619689941406,134.4646759033203
10-09,24.101274490356445,,,50.78072738647461,72.52459716796875,84.1530990600586,87.94027709960938,,106.46355438232422,94.69496154785156,112.01630401611328,135.35121154785156
10-10,,,32.76457214355469,50.627132415771484,73.52890014648438,83.03125,,87.28646087646484,106.21780395507812,95.69417572021484,113.0721435546875,
10-11,,31.295530319213867,32.665977478027344,50.671016693115234,74.43053436279297,,,85.84486389160156,106.24617767333984,92.6004409790039,116.50360107421875,
10-12,24.246488571166992,31.504161834716797,33.33037567138672,50.13121032714844,,,89.19566345214844,85.51005554199219,107.18189239501953,91.36102294921875,,135.5205535888672
10-13,24.46027946472168,31.812946319580078,33.29179000854492,,,79.88279724121094,89.04903411865234,85.67745208740234,107.27639770507812,,,133.05020141601562
10-14,24.819272994995117,31.850505828857422,34.16619110107422,,74.15380096435547,80.33062744140625,89.17733764648438,86.12387084960938,,,114.58746337890625,134.06622314453125
10-15,25.04113006591797,32.03411102294922,,50.96943664550781,73.86367797851562,81.6515121459961,90.95502471923828,,,92.37946319580078,115.5650863647461,136.20787048339844
10-16,24.726497650146484,,,51.70673751831055,74.19398498535156,82.25316619873047,92.3111801147461,,106.9645004272461,94.3298568725586,116.29829406738281,136.62623596191406
10-17,,,33.36465072631836,52.211421966552734,77.87643432617188,84.70497131347656,,86.17967987060547,106.7660140991211,94.27220153808594,118.52729034423828,
10-18,,32.080013275146484,34.60340881347656,52.26408767700195,78.45670318603516,,,86.31918334960938,106.69039154052734,95.10808563232422,121.45038604736328,
10-19,24.99675941467285,31.616825103759766,33.79328918457031,51.667240142822266,,,92.71436309814453,86.086669921875,108.0419921875,97.41397857666016,,133.7972869873047
10-20,24.690204620361328,32.3220329284668,34.58196258544922,,,86.48274230957031,92.89763641357422,86.17967987060547,111.30280303955078,,,134.1060791015625
10-21,24.06900978088379,31.992382049560547,35.86787033081055,,78.83167266845703,88.68123626708984,92.21952819824219,85.91926574707031,,,121.89031219482422,133.50840759277344
10-22,24.476409912109375,31.892240524291992,,51.6540641784668,80.39839172363281,87.62724304199219,94.95021057128906,,,97.67339324951172,122.46710968017578,133.1796875
10-23,23.935895919799805,,,50.70612716674805,79.65296936035156,88.16555786132812,95.28926086425781,,110.48052215576172,96.68377685546875,121.68502807617188,133.7474822998047
10-24,,,36.17648696899414,51.421470642089844,80.1037826538086,88.59529113769531,,86.7191162109375,111.00035095214844,93.94554138183594,120.81493377685547,
10-25,,32.26777648925781,35.37493133544922,50.91679000854492,81.20183563232422,,,84.84039306640625,111.26499938964844,99.64300537109375,121.26463317871094,
10-26,23.48008918762207,32.25526809692383,36.37364959716797,50.96065902709961,,,95.23426818847656,86.04946899414062,112.16291809082031,98.79751586914062,,130.8189239501953
10-27,23.79875373840332,32.03411102294922,38.11818313598633,,,87.12512969970703,94.31795501708984,86.8214340209961,111.4634780883789,,,126.89424896240234
10-28,23.092857360839844,31.963171005249023,38.30677032470703,,80.74209594726562,88.38719940185547,95.60079193115234,86.37499237060547,,,120.94202423095703,124.72273254394531
10-29,23.560762405395508,32.00490188598633,,,82.80426788330078,86.8763198852539,95.55499267578125,,,98.85515594482422,122.25204467773438,127.60149383544922
10-30,22.762094497680664,,,,81.08578491210938,87.01202392578125,95.53667449951172,,109.79054260253906,100.13299560546875,123.1612319946289,129.21517944335938
10-31,,,37.03802490234375,51.381980895996094,81.4964370727539,92.14183044433594,,86.61682891845703,109.86614990234375,100.96886444091797,122.32047271728516,
11-01,,31.992382049560547,36.262203216552734,53.45341110229492,81.57231140136719,,,86.25406646728516,109.56371307373047,102.5541763305664,122.63331604003906,
11-02,23.189668655395508,32.39712905883789,37.162315368652344,52.62834167480469,,,95.29840087890625,85.91926574707031,109.79054260253906,102.7175064086914,,134.6539306640625
11-03,23.387319564819336,32.501461029052734,38.00246047973633,,,90.63998413085938,95.47252655029297,85.33331298828125,110.14025115966797,,,136.327392578125
11-04,23.258235931396484,33.018882751464844,37.93815994262695,,81.88923645019531,89.78047943115234,95.17013549804688,86.31918334960938,,,125.22401428222656,132.29315185546875
11-05,23.875391006469727,33.24420166015625,,53.44462203979492,81.82673645019531,92.8475112915039,94.57450866699219,,,102.27554321289062,126.00611877441406,137.72193908691406
11-06,23.936450958251953,,,54.063411712646484,81.8670425415039,93.53282165527344,94.71245574951172,,109.96066284179688,103.14987182617188,126.8664321899414,138.22000122070312
11-07,,,38.10531997680664,53.19912338256836,80.45183563232422,93.90042114257812,,87.75150299072266,109.96066284179688,105.23475646972656,126.92507934570312,
11-08,,33.231590270996094,38.55828857421875,51.86296081542969,81.3161849975586,,,88.4893798828125,109.75273895263672,104.86804962158203,126.53248596191406,
11-09,24.77911376953125,32.882850646972656,36.84996032714844,51.76152038574219,,,93.54463195800781,89.00308227539062,109.2403793334961,103.94163513183594,,141.8699951171875
11-10,24.8198184967041,32.782005310058594,37.1950798034668,,,93.61451721191406,92.98371124267578,90.47884368896484,108.80388641357422,,,142.82000732421875
11-11,24.905311584472656,32.819828033447266,38.010414123535156,,81.58042907714844,93.15612030029297,93.43427276611328,89.4514389038086,,,126.80730438232422,142.64999389648438
11-12,24.518583297729492,32.2609977722168,,51.80122375488281,81.73716735839844,92.53890228271484,91.2273941040039,,,101.71247100830078,127.83785247802734,139.8699951171875
11-13,24.571500778198242,,,51.79240036010742,82.68212890625,93.14249420166016,92.71704864501953,,108.6900405883789,100.66059875488281,127.90657043457031,142.82000732421875
11-14,,,37.65667724609375,51.28968811035156,83.112060546875,92.53890228271484,,89.71294403076172,108.5002670288086,101.6642074584961,127.34712219238281,
11-15,,32.29461669921875,37.682552337646484,50.82225799560547,82.8075180053711,,,89.88107299804688,107.5893783569336,103.33368682861328,127.10174560546875,
11-16,25.007081985473633,31.756778717041016,36.63856887817383,50.98542022705078,,,93.74693298339844,90.00250244140625,108.17766571044922,103.42053985595703,,144.27000427246094
11-17,24.93787384033203,31.96687889099121,35.68085861206055,,,93.1878890991211,93.52622985839844,90.2359848022461,108.00686645507812,,,143.27000427246094
11-18,24.632564544677734,32.584529876708984,36.0648078918457,,82.69557189941406,94.62657165527344,95.84346771240234,88.9096908569336,,,126.53248596191406,142.8000030517578
11-19,24.213274002075195,32.51310348510742,,52.93893814086914,82.74482727050781,95.60688018798828,95.05268096923828,,,103.93199920654297,126.40489196777344,142.9600067138672
11-20,24.119638442993164,,,53.600399017333984,81.59833526611328,96.51457977294922,96.20209503173828,,109.0031509399414,102.17567443847656,124.15731048583984,
11-21,,,35.30122756958008,53.68858337402344,82.09992218017578,97.73540496826172,,89.84371185302734,109.43962860107422,103.0731430053711,123.35249328613281,
11-22,,32.5004997253418,35.059654235839844,,82.3059310913086,,,90.2453384399414,109.37319946289062,,123.08749389648438,
11-23,24.640703201293945,31.89965057373047,34.3262825012207,54.40297317504883,,,96.98370361328125,91.1513442993164,,103.53634643554688,,
11-24,24.363889694213867,32.68537521362305,,,,97.83526611328125,97.0020980834961,,110.16075134277344,,,
11-25,24.697702407836914,,34.27450180053711,,82.48956298828125,97.75810241699219,97.8940658569336,91.65570831298828,,,125.42341613769531,
11-26,,32.618141174316406,,54.244224548339844,82.91053771972656,98.46155548095703,,,,103.58457946777344,127.30786895751953,
11-27,24.152206420898438,,,53.970802307128906,82.64630126953125,,97.66417694091797,,109.92353057861328,102.09847259521484,126.79749298095703,
11-28,,,35.61184310913086,53.754737854003906,,99.31027221679688,,90.92716979980469,111.33731079101562,103.87409210205078,,
11-29,,32.6895637512207,35.86636734008789,54.08106231689453,82.43133544921875,,,91.53429412841797,111.0241928100586,104.67506408691406,126.45397186279297,
11-30,24.19291114807129,32.756797790527344,37.85511016845703,54.79983901977539,,,97.23197937011719,89.60087585449219,110.87237548828125,105.50497436523438,,
12-01,24.3883113861084,33.555145263671875,37.33742904663086,,,99.78678131103516,98.16992950439453,88.95638275146484,109.99945068359375,,,
12-02,24.64885139465332,33.693782806396484,36.61268615722656,,82.25218963623047,99.45094299316406,96.8641586303711,88.33992767333984,,,126.12026977539062,
12-03,24.258047103881836,33.95009231567383,,53.33140563964844,81.35651397705078,101.32532501220703,95.90784454345703,,,106.69193267822266,125.59026336669922,
12-04,24.579647064208984,,,53.053585052490234,81.93421173095703,101.52955627441406,97.43428039550781,,111.5460433959961,102.99593353271484,126.70916748046875,
12-05,,,36.74209976196289,52.678749084472656,81.41024017333984,101.13922882080078,,89.65689849853516,110.77749633789062,,128.70156860351562,
12-06,,33.59294509887695,36.858585357666016,54.33241653442383,84.12422180175781,,,89.87171173095703,110.24613952636719,102.08882141113281,130.08543395996094,
12-07,24.559289932250977,33.80303192138672,36.526405334472656,53.52103805541992,,,96.54232788085938,91.7024154663086,110.17023468017578,99.61839294433594,,
12-08,23.952741622924805,33.546722412109375,35.6463623046875,,,101.13469696044922,94.48255920410156,92.85125732421875,109.98995208740234,,,
12-09,24.196989059448242,33.63496398925781,36.211490631103516,,83.61814880371094,102.42817687988281,93.37911224365234,92.74853515625,,,130.51730346679688,
12-10,24.034154891967773,33.99211883544922,,54.610225677490234,83.90476989746094,100.23155975341797,92.76300811767578,,,99.84033966064453,130.01673889160156,
12-11,23.818397521972656,,,55.13939666748047,81.66552734375,101.02578735351562,90.78601837158203,,109.76222229003906,99.43502807617188,129.85971069335938,
12-12,,,35.5988883972168,54.92331314086914,82.36864471435547,99.76411437988281,,92.14140319824219,109.96148681640625,99.84033966064453,131.2828369140625,
12-13,,33.80723571777344,35.098472595214844,55.21437454223633,81.91630554199219,,,90.64695739746094,110.30306243896484,97.36991119384766,130.54673767089844,
12-14,24.298755645751953,34.17278289794922,34.598045349121094,57.29575729370117,,,89.86648559570312,89.82503509521484,107.99737548828125,96.63648986816406,,
12-15,23.94052505493164,34.4963264465332,34.563541412353516,,,98.9880142211914,90.62049865722656,89.75963592529297,109.20240020751953,,,
12-16,24.131853103637695,34.227413177490234,34.88709259033203,,81.68787384033203,98.32997131347656,92.1561508178711,89.59152221679688,,,130.78228759765625,
12-17,23.736976623535156,34.458499908447266,,57.414817810058594,82.22979736328125,100.87147521972656,90.33544158935547,,,93.7317886352539,130.6350860595703,
12-18,23.521228790283203,,,58.415828704833984,82.95531463623047,103.02722930908203,88.54234313964844,,110.18921661376953,93.31684112548828,129.2119140625,
12-19,,,34.1364631652832,57.860206604003906,82.9866714477539,103.43114471435547,,89.87171173095703,110.3599853515625,93.05628967285156,129.96766662597656,
12-20,,34.605560302734375,34.8482666015625,59.26251220703125,83.57783508300781,,,89.3299789428711,110.21766662597656,93.67389678955078,130.01673889160156,
12-21,23.70441436767578,34.65598678588867,35.443599700927734,58.76420211791992,,,89.40673065185547,89.5448226928711,110.23664855957031,92.95014190673828,,
12-22,23.964950561523438,34.723209381103516,35.52987289428711,,,104.20269012451172,90.8136215209961,88.73221588134766,110.24613952636719,,,
12-23,24.139995574951172,34.79043960571289,36.02598190307617,,83.07622528076172,104.86983489990234,92.17450714111328,88.44265747070312,,,130.54673767089844,
12-24,24.249908447265625,,,59.63734436035156,84.00775909423828,104.8925552368164,92.31244659423828,,,92.25532531738281,131.06692504882812,
12-26,,,,59.4168586730957,84.23167419433594,105.10584259033203,,,110.33153533935547,95.79692840576172,130.8902587890625,
12-27,,34.88288497924805,36.22010803222656,58.702449798583984,84.09730529785156,,,89.52613830566406,110.5307846069336,97.87169647216797,130.8411865234375,
12-28,24.339466094970703,35.231624603271484,35.71537399291992,58.51726150512695,,,91.86186218261719,88.42398834228516,111.1760025024414,97.68836212158203,,
12-29,24.16442108154297,35.38288879394531,36.233055114746094,,,105.50068664550781,92.4871597290039,89.02175903320312,110.84391021728516,,,
12-30,24.123708724975586,35.231624603271484,36.017364501953125,,84.40636444091797,105.13761138916016,91.74234008789062,88.50804901123047,,,130.45840454101562,
12-31,23.830610275268555,35.324066162109375,,59.68584442138672,84.93930053710938,104.90613555908203,90.86878967285156,,,98.65338134765625,131.0178680419922,
