,2009,2010,2011,2012,2013,2014,2015,2016,2017,2018,2019,2020
01-02,35.81999969482422,,,,48.7599983215332,67.12999725341797,66.65000152587889,,,87.01000213623047,90.18000030517578,113.68000030517578
01-03,,,48.11999893188477,52.27999877929688,48.95000076293945,66.84999847412111,,,73.0199966430664,87.19000244140625,89.08999633789062,114.04000091552734
01-04,,36.2400016784668,47.81999969482422,52.38999938964844,49.61999893188477,,,72.08000183105469,74.2300033569336,86.01000213623047,91.06999969482422,
01-05,35.06999969482422,36.20000076293945,47.9000015258789,51.95000076293945,,,64.59999847412111,71.66999816894531,73.47000122070312,86.91000366210938,,
01-06,34.009998321533196,36.75,47.47000122070313,51.849998474121094,,66.5,63.90999984741211,71.18000030517578,73.5,,,114.0500030517578
01-07,32.86999893188477,36.75,47.38000106811523,,49.20000076293945,66.80999755859375,64.27999877929689,69.76000213623047,,,91.9499969482422,112.91000366210938
01-08,33.68000030517578,36.77999877929688,,,51.72000122070313,68.20999908447266,66.11000061035156,69.87999725341797,,87.19999694824219,93.5199966430664,113.22000122070312
01-09,32.540000915527344,,,51.790000915527344,51.18000030517578,67.75,65.47000122070311,,73.68000030517578,86.38999938964844,93.4800033569336,114.66000366210938
01-10,,,47.43999862670898,51.95000076293945,50.88000106811523,68.05000305175781,,,72.81999969482422,85.66999816894531,94.58000183105469,115.79000091552734
01-11,,36.810001373291016,47.81999969482422,51.79999923706055,51.040000915527344,,,69.81999969482422,73.04000091552734,86.25,94.7300033569336,
01-12,32.380001068115234,36.83000183105469,48.20000076293945,51.47000122070313,,,65.37000274658203,69.83999633789061,73.33000183105469,86.55999755859375,,
01-13,32.40999984741211,36.88999938964844,48.18000030517578,51.47999954223633,,67.12999725341797,65.16999816894531,68.91000366210939,73.5,,,116.1999969482422
01-14,30.559999465942386,36.77999877929688,48.47000122070313,,51.22999954223633,68.25,64.59999847412111,68.75,,,93.95999908447266,116.12999725341795
01-15,31.09000015258789,36.2400016784668,,,51.54999923706055,68.0,63.77999877929688,68.06999969482422,,,94.80999755859376,116.70999908447266
01-16,30.440000534057614,,,,51.56999969482422,68.0,64.47000122070311,,,86.23999786376953,94.70999908447266,118.22000122070312
01-17,,,,51.68000030517578,52.040000915527344,67.23999786376953,,,73.33999633789062,86.83999633789062,95.93000030517578,117.31999969482422
01-18,,,49.06999969482422,52.09000015258789,52.33000183105469,,,,73.4800033569336,87.23999786376953,97.69000244140624,
01-19,,36.88999938964844,48.66999816894531,52.36999893188477,,,,68.12000274658203,72.7300033569336,88.61000061035156,,
01-20,29.10000038146973,36.41999816894531,48.2400016784668,51.54999923706055,,,64.20999908447266,67.83000183105469,71.63999938964844,,,
01-21,30.3700008392334,36.06999969482422,48.0099983215332,,,67.16999816894531,64.33999633789061,66.69999694824219,,,,115.62999725341795
01-22,29.989999771118164,36.060001373291016,,,52.02000045776367,66.98999786376953,64.70999908447266,68.25,,87.45999908447266,96.44000244140624,115.66999816894531
01-23,30.01000022888184,,,51.58000183105469,51.81000137329102,66.30000305175781,63.7599983215332,,72.44999694824219,87.5999984741211,97.37999725341795,117.37000274658205
01-24,,,48.63999938964844,51.43999862670898,52.099998474121094,64.48000335693361,,,73.54000091552734,88.19999694824219,97.12999725341795,117.12000274658205
01-25,,36.060001373291016,48.54999923706055,51.7599983215332,52.02999877929688,,,66.86000061035156,73.43000030517578,89.43000030517578,97.38999938964844,
01-26,30.3700008392334,36.0,48.84000015258789,52.1500015258789,,,63.77000045776367,70.48999786376953,73.31999969482422,89.13999938964844,,
01-27,30.739999771118164,36.209999084472656,48.68999862670898,52.27999877929688,,63.4000015258789,62.88999938964844,70.25,73.44000244140625,,,116.48999786376952
01-28,31.8799991607666,35.91999816894531,47.81000137329102,,51.040000915527344,63.66999816894531,62.09000015258789,70.66999816894531,,,97.87999725341795,115.97000122070312
01-29,31.440000534057614,35.47999954223633,,,51.91999816894531,63.36000061035156,63.0,72.9000015258789,,87.7300033569336,97.94000244140624,115.94000244140624
01-30,30.81999969482422,,,52.13000106811523,51.86000061035156,64.20999908447266,63.11000061035156,,72.73999786376953,87.69000244140625,97.95999908447266,116.54000091552734
01-31,,,48.06000137329102,52.41999816894531,51.52999877929688,63.79999923706055,,,72.97000122070312,87.41999816894531,99.12000274658205,115.51000213623048
02-01,,35.560001373291016,48.68999862670898,53.540000915527344,52.22999954223633,,,72.30999755859375,73.94000244140625,86.83999633789062,99.5500030517578,
02-02,29.989999771118164,36.08000183105469,48.599998474121094,52.79999923706055,,,63.540000915527344,71.31999969482422,73.33000183105469,85.80000305175781,,
02-03,30.040000915527344,36.0,48.4000015258789,53.5,,61.41999816894531,63.47000122070313,73.1500015258789,73.77999877929688,,,117.23999786376952
02-04,29.71999931335449,35.09999847412109,48.599998474121094,,52.209999084472656,62.13000106811523,63.22000122070313,72.23999786376953,,,99.8499984741211,116.9499969482422
02-05,30.07999992370605,35.029998779296875,,,52.54999923706055,62.29999923706055,63.81000137329102,71.12000274658203,,83.37999725341797,101.06999969482422,117.87000274658205
02-06,30.86000061035156,,,53.5,52.90999984741211,62.5,64.33000183105469,,73.3499984741211,83.79000091552734,101.58999633789062,117.52999877929688
02-07,,,49.43999862670898,53.43999862670898,52.86999893188477,63.4900016784668,,,72.7300033569336,83.8499984741211,101.9499969482422,116.6999969482422
02-08,,35.150001525878906,49.81999969482422,53.18999862670898,52.5099983215332,,,73.02999877929688,73.55000305175781,81.37999725341797,101.38999938964844,
02-09,30.28000068664551,35.41999816894531,49.4900016784668,53.7599983215332,,,63.6500015258789,74.41000366210938,73.56999969482422,82.16000366210938,,
02-10,29.06999969482422,35.080001831054695,49.63000106811523,53.040000915527344,,63.40999984741211,63.72999954223633,74.19000244140625,74.79000091552734,,,115.8000030517578
02-11,29.32999992370605,37.900001525878906,49.47999954223633,,52.43000030517578,63.83000183105469,63.68000030517578,74.31999969482422,,,101.6999969482422,116.0500030517578
02-12,29.60000038146973,38.040000915527344,,,52.709999084472656,63.93999862670898,64.06999969482422,75.30000305175781,,82.5999984741211,102.31999969482422,114.70999908447266
02-13,29.18000030517578,,,52.41999816894531,53.16999816894531,64.41999816894531,64.55999755859375,,74.43000030517578,89.72000122070312,102.8000030517578,116.1999969482422
02-14,,,49.2400016784668,52.33000183105469,53.06999969482422,64.76999664306639,,,73.83000183105469,90.66000366210938,101.7699966430664,116.66999816894531
02-15,,,49.20000076293945,52.40999984741211,53.11000061035156,,,,73.19999694824219,91.16999816894531,101.94000244140624,
02-16,,37.77000045776367,49.18999862670898,52.75,,,,73.94999694824219,74.19999694824219,91.83000183105469,,
02-17,28.0,37.459999084472656,49.5099983215332,52.81999969482422,,,65.25,73.37000274658203,73.9000015258789,,,
02-18,27.79999923706055,37.900001525878906,49.4900016784668,,,64.98000335693361,65.83000183105469,73.30000305175781,,,,115.26000213623048
02-19,27.459999084472656,38.11999893188477,,,53.75,64.51999664306639,65.83999633789061,72.87999725341797,,,101.5500030517578,115.01000213623048
02-20,27.31999969482422,,,,52.27000045776367,64.84999847412111,66.16999816894531,,,91.05999755859376,102.26000213623048,114.93000030517578
02-21,,,,52.5,52.22999954223633,64.63999938964844,,,74.58999633789062,90.16000366210938,103.12000274658205,111.9800033569336
02-22,,38.22000122070313,48.4900016784668,52.45000076293945,52.81999969482422,,,72.80000305175781,74.26000213623047,90.61000061035156,102.0500030517578,
02-23,26.28000068664551,38.060001373291016,47.79999923706055,53.15999984741211,,,66.26999664306639,72.87000274658203,74.12000274658203,90.98999786376952,,
02-24,27.26000022888184,38.45000076293945,47.45000076293945,53.22999954223633,,64.37000274658203,66.30000305175781,73.91000366210938,74.36000061035156,,,109.20999908447266
02-25,27.6200008392334,38.36000061035156,48.040000915527344,,52.099998474121094,64.59999847412111,65.84999847412111,74.33999633789062,,,101.55999755859376,106.94000244140624
02-26,27.649999618530273,38.52999877929688,,,52.459999084472656,64.94000244140625,66.26000213623047,73.33000183105469,,90.77999877929688,101.30999755859376,104.68000030517578
02-27,28.059999465942386,,,53.22999954223633,53.4000015258789,65.51000213623047,65.87000274658203,,74.4800033569336,89.5,101.41000366210938,102.4000015258789
02-28,,,48.16999816894531,52.75,53.93999862670898,66.16999816894531,,,74.51000213623047,89.41999816894531,101.7300033569336,101.06999969482422
02-29,,,,52.77999877929688,,,,73.70999908447266,,,,
03-01,,39.0099983215332,47.459999084472656,52.93999862670898,53.47000122070313,,,74.5,76.05999755859375,89.0,100.80999755859376,
03-02,26.3799991607666,39.310001373291016,47.43000030517578,53.20000076293945,,,66.5,74.41000366210938,75.80999755859375,89.68000030517578,,103.58000183105469
03-03,26.1200008392334,39.63999938964844,48.61999893188477,,,65.33000183105469,65.88999938964844,75.19999694824219,76.04000091552734,,,102.76000213623048
03-04,26.6200008392334,39.63999938964844,47.93999862670898,,53.4000015258789,65.75,65.62000274658203,76.0,,,101.61000061035156,107.44000244140624
03-05,25.809999465942386,40.349998474121094,,53.349998474121094,53.79999923706055,65.93000030517578,65.02999877929689,,,90.4000015258789,101.47000122070312,103.9800033569336
03-06,25.54999923706055,,,52.15999984741211,54.38000106811523,65.75,64.26999664306639,,75.6500015258789,90.7699966430664,100.48999786376952,107.3000030517578
03-07,,,47.77000045776367,52.18999862670898,54.52999877929688,65.73000335693361,,75.72000122070312,75.47000122070312,90.13999938964844,99.87999725341795,
03-08,,40.459999084472656,49.72999954223633,53.27000045776367,55.25,,,75.79000091552734,75.94000244140625,89.94999694824219,100.47000122070312,
03-09,25.29999923706055,40.18000030517578,49.290000915527344,53.540000915527344,,,64.18000030517578,75.8499984741211,75.8499984741211,90.87000274658205,,101.4499969482422
03-10,26.309999465942386,40.290000915527344,48.02999877929688,,,65.55999755859375,63.75,75.37000274658203,76.79000091552734,,,103.98999786376952
03-11,26.13999938964844,40.36000061035156,48.13999938964844,,55.349998474121094,65.05999755859375,63.36000061035156,75.77999877929688,,,102.0199966430664,99.08000183105469
03-12,26.940000534057614,40.400001525878906,,53.599998474121094,55.36000061035156,65.04000091552734,63.56000137329102,,,90.77999877929688,102.26000213623048,94.4000015258789
03-13,27.420000076293945,,,54.40999984741211,55.33000183105469,64.15000152587889,63.099998474121094,,76.75,90.5,102.27999877929688,96.38999938964844
03-14,,,48.4000015258789,54.459999084472656,55.47999954223633,64.51000213623047,,75.23999786376953,76.52999877929688,90.06999969482422,102.88999938964844,
03-15,,40.0,47.68000030517578,54.88999938964844,55.70000076293945,,,76.16000366210938,77.23999786376953,90.27999877929688,103.0500030517578,
03-16,27.3700008392334,40.34000015258789,47.31999969482422,54.7400016784668,,,63.790000915527344,76.55000305175781,76.9800033569336,90.1500015258789,,87.87999725341797
03-17,27.959999084472656,40.5,47.40999984741211,,,64.95999908447266,63.61000061035156,77.26000213623047,77.08000183105469,,,96.4499969482422
03-18,29.540000915527344,40.22999954223633,48.0,,55.56000137329102,65.47000122070311,63.95000076293945,76.88999938964844,,,103.70999908447266,96.75
03-19,30.04999923706055,39.810001373291016,,54.59000015258789,55.81000137329102,64.86000061035156,63.63999938964844,,,89.95999908447266,103.5999984741211,98.87999725341795
03-20,29.489999771118164,,,54.4000015258789,56.6500015258789,64.66000366210939,63.22999954223633,,77.83999633789062,89.77999877929688,103.9499969482422,92.51000213623048
03-21,,,48.9900016784668,54.27999877929688,56.2599983215332,64.75,,77.37999725341797,76.7699966430664,89.58999633789062,105.54000091552734,
03-22,,39.68999862670898,48.90999984741211,54.0,56.2400016784668,,,78.06999969482422,76.8499984741211,87.95999908447266,103.83000183105469,
03-23,30.809999465942386,39.95000076293945,48.97999954223633,54.290000915527344,,,63.38999938964844,78.13999938964844,77.16000366210938,86.7699966430664,,83.93000030517578
03-24,30.440000534057614,39.150001525878906,49.13000106811523,,,64.19000244140625,63.5,77.38999938964844,76.62000274658203,,,88.05999755859375
03-25,30.90999984741211,38.84000015258789,48.97000122070313,,56.0,64.16000366210939,62.97999954223633,,,,104.51000213623048,90.18000030517578
03-26,32.47999954223633,39.11999893188477,,54.91999816894531,56.6500015258789,63.56999969482422,62.97999954223633,,,88.20999908447266,105.44000244140624,96.1999969482422
03-27,32.09999847412109,,,54.790000915527344,56.84000015258789,63.68999862670898,63.18000030517578,,76.62000274658203,88.08000183105469,105.5199966430664,94.0
03-28,,,48.9000015258789,54.93999862670898,57.349998474121094,64.26999664306639,,78.30999755859375,77.06999969482422,88.36000061035156,106.19000244140624,
03-29,,39.56999969482422,48.81999969482422,54.90999984741211,,,,78.51000213623047,77.04000091552734,89.83000183105469,106.38999938964844,
03-30,30.95000076293945,39.7400016784668,49.61999893188477,54.77000045776367,,,63.70000076293945,78.7300033569336,76.86000061035156,,,100.4800033569336
03-31,31.13999938964844,39.349998474121094,50.13000106811523,,,66.09999847412111,63.52000045776367,78.41000366210938,76.98999786376953,,,99.54000091552734
04-01,31.09000015258789,39.5,50.77999877929688,,56.97000122070313,67.05000305175781,63.6500015258789,79.08999633789062,,,107.70999908447266,96.20999908447266
04-02,32.759998321533196,,,55.0,57.22999954223633,67.13999938964844,63.1500015258789,,,87.93000030517578,107.22000122070312,96.1500015258789
04-03,32.84999847412109,,,55.2599983215332,56.63999938964844,66.68000030517578,,,76.44999694824219,89.55999755859375,107.47000122070312,94.19000244140624
04-04,,,51.13999938964844,54.790000915527344,56.66999816894531,66.04000091552734,,78.91000366210938,76.73999786376953,89.70999908447266,108.0999984741211,
04-05,,39.65999984741211,51.56000137329102,54.34000015258789,56.09000015258789,,,77.73999786376953,76.08000183105469,90.4000015258789,108.73999786376952,
04-06,32.84999847412109,39.7400016784668,51.540000915527344,,,,63.38000106811523,77.9800033569336,76.52999877929688,88.5,,100.76000213623048
04-07,31.70000076293945,39.900001525878906,50.93999862670898,,,65.41999816894531,63.11000061035156,77.3499984741211,76.16000366210938,,,101.12000274658205
04-08,32.459999084472656,40.18999862670898,50.36000061035156,,56.38999938964844,65.84999847412111,63.41999816894531,77.36000061035156,,,108.98999786376952,104.11000061035156
04-09,33.5,40.91999816894531,,54.1500015258789,56.43999862670898,66.23999786376953,63.33000183105469,,,89.9000015258789,108.16000366210938,107.2699966430664
04-10,,,,53.34000015258789,57.25,65.70999908447266,63.4900016784668,,76.88999938964844,92.72000122070312,109.04000091552734,
04-11,,,50.04999923706055,53.9000015258789,57.47999954223633,64.72000122070311,,77.36000061035156,76.91999816894531,92.25,109.66000366210938,
04-12,,41.0099983215332,49.38000106811523,54.5,56.9000015258789,,,77.58999633789062,76.2300033569336,92.6999969482422,110.30999755859376,
04-13,32.84999847412109,41.150001525878906,49.61999893188477,54.08000183105469,,,63.43000030517578,78.19000244140625,75.80000305175781,92.75,,102.3499984741211
04-14,32.0,41.77999877929688,49.66999816894531,,,65.19000244140625,63.29999923706055,78.44999694824219,,,,104.0199966430664
04-15,32.360000610351555,42.349998474121094,50.22999954223633,,55.38999938964844,66.02999877929689,63.0,79.25,,,109.88999938964844,100.93000030517578
04-16,30.229999542236328,42.849998474121094,,54.27000045776367,55.86000061035156,66.40000152587889,63.0099983215332,,,94.30999755859376,109.62000274658205,101.8499984741211
04-17,29.670000076293945,,,54.5,55.0099983215332,66.56999969482422,62.84000015258789,,77.2699966430664,96.12999725341795,107.6999969482422,102.94000244140624
04-18,,,49.59000015258789,54.47999954223633,54.56999969482422,,,79.62999725341797,77.56999969482422,95.61000061035156,108.20999908447266,
04-19,,42.91999816894531,50.16999816894531,54.540000915527344,55.08000183105469,,,79.44999694824219,77.55000305175781,94.8000030517578,,
04-20,28.82999992370605,42.77999877929688,51.0,54.88999938964844,,,62.81000137329102,79.7699966430664,77.81999969482422,94.44000244140624,,106.94000244140624
04-21,29.61000061035156,42.900001525878906,51.36999893188477,,,67.08000183105469,62.72000122070313,78.58000183105469,77.98999786376953,,,106.12000274658205
04-22,29.38999938964844,43.099998474121094,,,55.459999084472656,67.62000274658203,62.88000106811523,79.68000030517578,,,108.93000030517578,106.3000030517578
04-23,29.86000061035156,43.2400016784668,,54.2599983215332,56.15999984741211,67.19999694824219,62.93999862670898,,,94.3499984741211,110.05999755859376,105.0199966430664
04-24,30.28000068664551,,,54.02999877929688,56.5,67.36000061035156,63.290000915527344,,78.30000305175781,93.18000030517578,109.94000244140624,104.12000274658205
04-25,,,51.11999893188477,55.02000045776367,56.16999816894531,67.13999938964844,,79.0199966430664,78.7300033569336,93.1500015258789,109.4499969482422,
04-26,,43.099998474121094,51.84000015258789,54.5,55.38999938964844,,,79.93000030517578,79.33999633789062,93.27999877929688,111.41999816894531,
04-27,30.229999542236328,42.70000076293945,52.13000106811523,54.790000915527344,,,62.790000915527344,79.95999908447266,78.79000091552734,93.45999908447266,,112.58000183105469
04-28,30.0,42.95000076293945,52.36000061035156,,,66.90000152587889,62.77999877929688,79.29000091552734,80.30000305175781,,,111.18000030517578
04-29,30.790000915527344,43.72000122070313,52.45000076293945,,55.349998474121094,67.12000274658203,62.54999923706055,76.0,,,111.31999969482422,110.08000183105469
04-30,31.03000068664551,43.040000915527344,,54.5099983215332,56.099998474121094,67.41999816894531,62.06999969482422,,,93.5,111.23999786376952,107.08000183105469
05-01,30.690000534057614,,,54.66999816894531,55.47000122070313,67.19000244140625,64.05000305175781,,79.7300033569336,93.54000091552734,112.80999755859376,106.13999938964844
05-02,,,52.83000183105469,54.52999877929688,55.599998474121094,66.68000030517578,,76.8499984741211,80.19999694824219,92.55999755859376,113.0,
05-03,,43.66999816894531,52.38000106811523,54.83000183105469,55.9900016784668,,,75.75,80.44999694824219,91.12000274658205,113.8499984741211,
05-04,31.32999992370605,43.52000045776367,51.88999938964844,53.72000122070313,,,63.959999084472656,75.55999755859375,81.38999938964844,92.26000213623048,,106.80999755859376
05-05,31.31999969482422,42.5,51.349998474121094,,,66.73999786376953,63.0,76.05999755859375,81.91000366210938,,,105.55999755859376
05-06,31.56999969482422,41.36000061035156,51.2599983215332,,56.06999969482422,66.37000274658203,63.099998474121094,76.27999877929688,,,115.0199966430664,104.86000061035156
05-07,31.13999938964844,40.34000015258789,,53.59000015258789,56.13999938964844,66.48000335693361,63.0,,,92.8000030517578,113.97000122070312,105.47000122070312
05-08,31.36000061035156,,,53.790000915527344,56.459999084472656,66.69999694824219,63.15999984741211,,82.51000213623047,91.76000213623048,113.98999786376952,107.52999877929688
05-09,,,52.25,53.72000122070313,55.959999084472656,66.58999633789061,,76.55000305175781,82.4800033569336,92.95999908447266,113.0,
05-10,,42.15999984741211,52.4000015258789,53.56999969482422,56.4900016784668,,,77.08000183105469,82.87000274658203,93.79000091552734,113.5999984741211,
05-11,31.09000015258789,42.18999862670898,51.61000061035156,53.38999938964844,,,63.06000137329102,76.83000183105469,82.52999877929688,94.29000091552734,,106.30999755859376
05-12,31.15999984741211,42.68000030517578,52.47000122070313,,,67.5,63.5099983215332,77.62999725341797,82.43000030517578,,,103.9499969482422
05-13,30.170000076293945,42.27000045776367,52.31000137329102,,55.97999954223633,66.98999786376953,64.33000183105469,76.97000122070312,,,112.8000030517578,102.41999816894531
05-14,30.71999931335449,40.810001373291016,,52.33000183105469,56.29999923706055,66.77999877929689,65.20999908447266,,,93.37000274658205,112.9800033569336,102.45999908447266
05-15,30.649999618530273,,,51.7400016784668,56.66999816894531,65.98000335693361,65.19999694824219,,82.62999725341797,92.0999984741211,113.23999786376952,101.5
05-16,,,52.91999816894531,51.27999877929688,56.56999969482422,66.13999938964844,,77.4000015258789,82.79000091552734,93.54000091552734,114.11000061035156,
05-17,,41.22999954223633,52.0,50.13999938964844,57.06999969482422,,,75.4000015258789,82.27999877929688,93.29000091552734,113.77999877929688,
05-18,31.0,40.31999969482422,53.22999954223633,49.70000076293945,,,65.66000366210939,75.25,82.13999938964844,93.55999755859376,,104.1500015258789
05-19,31.26000022888184,40.2599983215332,52.9900016784668,,,66.62999725341797,66.08999633789061,74.8499984741211,82.36000061035156,,,103.7300033569336
05-20,31.040000915527344,38.900001525878906,52.52000045776367,,57.06000137329102,65.80999755859375,65.45999908447266,75.33000183105469,,,113.04000091552734,104.41000366210938
05-21,30.739999771118164,38.709999084472656,,50.56000137329102,56.9900016784668,66.01999664306639,64.91999816894531,,,94.01000213623048,113.4800033569336,105.08999633789062
05-22,30.68000030517578,,,50.59000015258789,56.61000061035156,65.91999816894531,64.5,,82.83999633789062,93.95999908447266,113.1500015258789,105.0999984741211
05-23,,,51.56000137329102,51.04999923706055,56.68999862670898,65.98999786376953,,74.79000091552734,83.19000244140625,94.08999633789062,112.95999908447266,
05-24,,38.56999969482422,51.47000122070313,51.06000137329102,56.22000122070313,,,76.37999725341797,83.38999938964844,94.02999877929688,112.93000030517578,
05-25,,38.22999954223633,52.06000137329102,50.61000061035156,,,,76.3499984741211,84.1500015258789,94.08000183105469,,
05-26,31.6299991607666,38.56999969482422,51.97999954223633,,,,63.97000122070313,76.43000030517578,84.37000274658203,,,109.5500030517578
05-27,30.70000076293945,39.95000076293945,52.22999954223633,,,65.94999694824219,64.48000335693361,77.13999938964844,,,,112.5500030517578
05-28,30.45000076293945,39.86000061035156,,,56.47000122070313,65.95999908447266,64.48999786376953,,,,112.9000015258789,111.5999984741211
05-29,31.01000022888184,,,50.709999084472656,56.27000045776367,66.37000274658203,63.77000045776367,,,93.30999755859376,112.6999969482422,111.38999938964844
05-30,,,,49.86999893188477,57.2400016784668,66.58999633789061,,,84.54000091552734,93.95999908447266,113.51000213623048,
05-31,,,53.4000015258789,50.66999816894531,56.72000122070313,,,77.26000213623047,85.01000213623047,92.31999969482422,113.2699966430664,
06-01,32.169998168945305,39.060001373291016,52.11999893188477,50.2599983215332,,,63.9000015258789,77.20999908447266,86.26000213623047,92.7699966430664,,111.41999816894531
06-02,32.860000610351555,39.849998474121094,51.97000122070313,,,66.5,63.95000076293945,77.3499984741211,86.33000183105469,,,112.06999969482422
06-03,32.799999237060554,39.790000915527344,51.1500015258789,,56.849998474121094,66.22000122070311,64.13999938964844,77.19999694824219,,,114.02999877929688,113.27999877929688
06-04,32.84999847412109,38.459999084472656,,50.22000122070313,56.58000183105469,66.16999816894531,63.91999816894531,,,93.86000061035156,115.72000122070312,112.13999938964844
06-05,32.439998626708984,,,50.4000015258789,55.77999877929688,66.52999877929689,64.27999877929689,,85.8499984741211,93.91999816894531,117.12999725341795,113.4000015258789
06-06,,,50.54999923706055,51.58000183105469,56.27999877929688,67.11000061035156,,77.08999633789062,85.4800033569336,93.91000366210938,120.2300033569336,
06-07,,38.02000045776367,50.86999893188477,51.93999862670898,57.0,,,77.48999786376953,85.69000244140625,93.23999786376952,121.91999816894531,
06-08,32.75,38.0,50.599998474121094,52.4000015258789,,,63.75,77.72000122070312,85.25,93.66000366210938,,113.58000183105469
06-09,33.02000045776367,37.61999893188477,51.09000015258789,,,67.23000335693361,64.15000152587889,77.79000091552734,85.6500015258789,,,112.47000122070312
06-10,33.330001831054695,38.599998474121094,50.4000015258789,,57.18999862670898,67.12999725341797,64.23999786376953,78.19999694824219,,,123.22000122070312,111.63999938964844
06-11,34.029998779296875,39.13000106811523,,51.77000045776367,56.849998474121094,66.59999847412111,64.77999877929689,,,93.81999969482422,122.58000183105469,104.25
06-12,34.02000045776367,,,52.36999893188477,56.04999923706055,66.09999847412111,64.58000183105469,,85.44000244140625,94.1500015258789,121.62000274658205,105.36000061035156
06-13,,,51.45000076293945,51.97000122070313,57.290000915527344,66.41000366210939,,76.77999877929688,86.18000030517578,94.31999969482422,120.72000122070312,
06-14,,38.9900016784668,51.599998474121094,52.38000106811523,57.040000915527344,,,76.44000244140625,86.25,94.86000061035156,120.08999633789062,
06-15,33.290000915527344,40.15999984741211,50.59000015258789,52.27000045776367,,,64.26999664306639,76.31999969482422,86.2300033569336,94.91999816894531,,105.41000366210938
06-16,32.97999954223633,40.650001525878906,50.66999816894531,,,65.63999938964844,64.90000152587889,76.5,85.94999694824219,,,107.38999938964844
06-17,33.139999389648445,40.4900016784668,50.47999954223633,,57.13999938964844,66.33000183105469,64.80999755859375,76.3499984741211,,,120.16999816894531,106.91000366210938
06-18,32.990001678466804,40.52000045776367,,52.61999893188477,57.34000015258789,66.06999969482422,65.26999664306639,,,94.83999633789062,119.48999786376952,106.98999786376952
06-19,32.90999984741211,,,52.43000030517578,56.599998474121094,66.68000030517578,65.29000091552734,,86.75,94.25,119.41000366210938,107.5999984741211
06-20,,,50.6500015258789,52.2400016784668,55.31999969482422,66.62999725341797,,77.62000274658203,86.88999938964844,94.63999938964844,119.80999755859376,
06-21,,40.099998474121094,51.29999923706055,51.13000106811523,55.02999877929688,,,77.68000030517578,87.0,93.0999984741211,119.37999725341795,
06-22,32.02000045776367,39.0,51.09000015258789,51.72000122070313,,,65.5,78.30999755859375,86.81999969482422,92.62999725341795,,107.5500030517578
06-23,32.209999084472656,38.59000015258789,50.81999969482422,,,66.38999938964844,65.18000030517578,80.13999938964844,86.80000305175781,,,107.44000244140624
06-24,32.240001678466804,38.38000106811523,50.61000061035156,,54.83000183105469,66.0,64.44999694824219,76.75,,,118.77999877929688,105.94000244140624
06-25,32.959999084472656,38.7400016784668,,50.709999084472656,54.86000061035156,66.38999938964844,64.27999877929689,,,92.18000030517578,121.05999755859376,107.5999984741211
06-26,33.360000610351555,,,50.58000183105469,54.959999084472656,66.30999755859375,64.48000335693361,,87.13999938964844,92.70999908447266,119.23999786376952,107.72000122070312
06-27,,,51.040000915527344,50.72999954223633,55.40999984741211,67.01000213623047,,74.5999984741211,86.37000274658203,92.0999984741211,121.5500030517578,
06-28,,39.2400016784668,51.61999893188477,50.52999877929688,55.209999084472656,,,75.69000244140625,86.93000030517578,92.70999908447266,124.33999633789062,
06-29,33.790000915527344,38.209999084472656,52.040000915527344,51.04999923706055,,,63.7400016784668,76.72000122070312,86.48999786376953,93.37999725341795,,109.25
06-30,33.77000045776367,37.81999969482422,52.34000015258789,,,67.01000213623047,63.77000045776367,79.12999725341797,86.86000061035156,,,111.9800033569336
07-01,34.110000610351555,37.61999893188477,53.2400016784668,,55.95000076293945,67.51000213623047,63.849998474121094,79.16999816894531,,,124.2699966430664,112.4800033569336
07-02,33.650001525878906,38.02999877929688,,51.77999877929688,55.79999923706055,66.73999786376953,63.790000915527344,,,93.58999633789062,123.54000091552734,114.97000122070312
07-03,,,,52.52999877929688,55.88000106811523,66.97000122070311,,,87.08000183105469,93.98999786376952,125.91999816894531,
07-05,,,53.15999984741211,52.5,56.61999893188477,,,78.72000122070312,87.29000091552734,94.54000091552734,124.61000061035156,
07-06,33.150001525878906,37.34000015258789,54.16999816894531,51.459999084472656,,,63.84000015258789,78.73999786376953,87.30999755859375,94.08000183105469,,115.26000213623048
07-07,32.560001373291016,38.5099983215332,54.34000015258789,,,66.41999816894531,64.30000305175781,78.48999786376953,88.08999633789062,,,115.1500015258789
07-08,32.400001525878906,39.040000915527344,54.209999084472656,,56.9000015258789,66.23999786376953,63.43999862670898,79.79000091552734,,,123.98999786376952,112.93000030517578
07-09,32.419998168945305,39.22999954223633,,49.72000122070313,57.79999923706055,66.31999969482422,63.40999984741211,,,95.0999984741211,124.06999969482422,113.76000213623048
07-10,32.709999084472656,,,49.47000122070313,58.09000015258789,66.26000213623047,63.68000030517578,,88.30000305175781,96.11000061035156,123.58000183105469,114.9499969482422
07-11,,,53.47000122070313,49.22999954223633,59.31999969482422,66.34999847412111,,80.19999694824219,88.16999816894531,95.68000030517578,124.0199966430664,
07-12,,39.09000015258789,53.38999938964844,49.04999923706055,59.6500015258789,,,80.41000366210938,88.9800033569336,95.73999786376952,123.41000366210938,
07-13,33.31999969482422,40.75,53.25,49.84000015258789,,,64.26000213623047,80.2300033569336,88.62999725341797,94.87000274658205,,113.43000030517578
07-14,33.330001831054695,40.68000030517578,52.52000045776367,,,66.54000091552734,63.93999862670898,80.19000244140625,89.43000030517578,,,116.30999755859376
07-15,35.0,40.65999984741211,52.65999984741211,,59.7599983215332,66.81999969482422,63.93999862670898,79.91999816894531,,,122.91999816894531,117.9000015258789
07-16,35.7400016784668,39.83000183105469,,49.63999938964844,59.43000030517578,66.34999847412111,64.30000305175781,,,93.29000091552734,123.16000366210938,117.23999786376952
07-17,35.139999389648445,,,49.81999969482422,59.38000106811523,65.02999877929689,63.93000030517578,,89.79000091552734,94.63999938964844,123.52999877929688,119.4000015258789
07-18,,,51.63000106811523,50.31000137329102,59.83000183105469,66.05000305175781,,79.91000366210938,89.73999786376953,94.62000274658205,124.36000061035156,
07-19,,39.72000122070313,53.540000915527344,50.709999084472656,59.58000183105469,,,79.62000274658203,90.08999633789062,96.33000183105469,123.4000015258789,
07-20,35.81999969482422,40.2599983215332,53.06999969482422,50.11000061035156,,,63.959999084472656,80.30000305175781,89.69999694824219,95.77999877929688,,119.29000091552734
07-21,35.599998474121094,40.2400016784668,53.15999984741211,,,65.40000152587889,63.08000183105469,79.94000244140625,89.51000213623047,,,118.18000030517578
07-22,35.72999954223633,42.040000915527344,53.040000915527344,,59.63999938964844,63.72999954223633,63.0,80.45999908447266,,,123.16000366210938,118.5
07-23,36.09000015258789,42.70000076293945,,49.77999877929688,59.56999969482422,63.66999816894531,62.459999084472656,,,95.13999938964844,124.51000213623048,118.44000244140624
07-24,36.060001373291016,,,48.75,58.70000076293945,63.790000915527344,61.75,,89.45999908447266,94.75,123.29000091552734,118.8499984741211
07-25,,,52.72999954223633,49.349998474121094,58.34000015258789,63.5,,79.94999694824219,88.69000244140625,94.7300033569336,122.91999816894531,
07-26,,43.47000122070313,52.56000137329102,49.81000137329102,57.93999862670898,,,80.30000305175781,88.05999755859375,96.06999969482422,124.48999786376952,
07-27,35.25,43.31999969482422,51.47000122070313,50.6500015258789,,,61.38000106811523,79.72000122070312,88.0,102.9000015258789,,119.8499984741211
07-28,34.970001220703125,43.2400016784668,51.2400016784668,,,62.90999984741211,62.29999923706055,79.37999725341797,82.30999755859375,,,118.0500030517578
07-29,34.61999893188477,42.9900016784668,51.04999923706055,,58.4900016784668,62.63000106811523,66.34999847412111,78.18000030517578,,,124.94000244140624,118.80999755859376
07-30,34.97999954223633,43.06999969482422,,50.47999954223633,58.38999938964844,62.11000061035156,67.5,,,102.5,123.80999755859376,117.91000366210938
07-31,34.919998168945305,,,50.0099983215332,58.38999938964844,61.099998474121094,67.79000091552734,,80.93000030517578,102.43000030517578,121.0199966430664,115.1999969482422
08-01,,,51.0,49.22000122070313,59.90999984741211,61.13000106811523,,77.33999633789062,82.51000213623047,102.43000030517578,117.55999755859376,
08-02,,43.52999877929688,49.91999816894531,48.56999969482422,60.47999954223633,,,76.61000061035156,82.25,102.9800033569336,118.0199966430664,
08-03,35.68000030517578,43.43999862670898,49.599998474121094,50.06000137329102,,,67.27999877929689,76.62000274658203,82.25,104.0999984741211,,118.66000366210938
08-04,35.88999938964844,43.599998474121094,47.43999862670898,,,61.38000106811523,67.93000030517578,76.77999877929688,82.36000061035156,,,118.62000274658205
08-05,35.540000915527344,43.650001525878906,47.7400016784668,,59.97000122070313,60.97000122070313,68.80999755859375,76.58999633789062,,,117.08000183105469,118.36000061035156
08-06,35.09000015258789,43.77000045776367,,49.97999954223633,59.47000122070313,61.52000045776367,68.37000274658203,,,104.20999908447266,119.72000122070312,117.66000366210938
08-07,35.31999969482422,,,50.04999923706055,59.5,61.58000183105469,68.79000091552734,,82.73999786376953,103.5500030517578,121.66000366210938,119.25
08-08,,,45.2599983215332,49.91999816894531,60.34000015258789,62.36000061035156,,76.16999816894531,82.73999786376953,102.95999908447266,122.87000274658205,
08-09,,43.77000045776367,47.4900016784668,49.83000183105469,60.11999893188477,,,75.9800033569336,82.4800033569336,103.9000015258789,121.08000183105469,
08-10,35.0,43.18000030517578,45.40999984741211,49.88999938964844,,,69.91999816894531,76.22000122070312,81.51000213623047,102.37999725341795,,117.0
08-11,35.52000045776367,41.86999893188477,47.349998474121094,,,62.15999984741211,69.18000030517578,76.0999984741211,82.13999938964844,,,116.73999786376952
08-12,35.709999084472656,41.97999954223633,47.79999923706055,,60.22000122070313,62.349998474121094,68.77999877929689,75.58000183105469,,,120.04000091552734,118.08999633789062
08-13,35.970001220703125,41.849998474121094,,49.97999954223633,60.349998474121094,63.11000061035156,69.02999877929689,,,101.4000015258789,121.22000122070312,118.5199966430664
08-14,35.45000076293945,,,49.97000122070313,60.31000137329102,63.13999938964844,69.87000274658203,,82.91000366210938,101.9800033569336,119.08999633789062,118.48999786376952
08-15,,,48.41999816894531,50.36000061035156,59.20000076293945,63.29999923706055,,75.5,82.75,101.33999633789062,118.33000183105469,
08-16,,41.86999893188477,47.97999954223633,50.65999984741211,59.290000915527344,,,75.16000366210938,83.55000305175781,101.66999816894531,120.25,
08-17,34.72999954223633,42.63999938964844,47.77000045776367,50.61999893188477,,,70.08999633789061,75.79000091552734,82.12999725341797,102.76000213623048,,118.25
08-18,34.889999389648445,42.54999923706055,46.11999893188477,,,63.68000030517578,69.83000183105469,76.83000183105469,82.1500015258789,,,117.87999725341795
08-19,35.220001220703125,41.900001525878906,46.65999984741211,,59.2400016784668,64.12999725341797,69.11000061035156,76.77999877929688,,,120.22000122070312,117.69000244140624
08-20,35.290000915527344,42.060001373291016,,50.56999969482422,59.34000015258789,63.75,68.06999969482422,,,102.86000061035156,118.87999725341795,117.5500030517578
08-21,35.630001068115234,,,50.36999893188477,58.9000015258789,63.93000030517578,67.61000061035156,,81.48999786376953,103.29000091552734,119.33000183105469,117.8000030517578
08-22,,,46.68999862670898,50.84000015258789,59.59000015258789,63.61999893188477,,77.0999984741211,82.12000274658203,103.18000030517578,120.54000091552734,
08-23,,41.66999816894531,47.83000183105469,50.52000045776367,59.84000015258789,,,77.33999633789062,81.61000061035156,102.91000366210938,120.26000213623048,
08-24,35.5,40.9900016784668,48.27000045776367,50.81999969482422,,,66.15000152587889,77.58000183105469,81.08000183105469,103.8000030517578,,119.11000061035156
08-25,35.4900016784668,41.06999969482422,47.36000061035156,,,63.72000122070313,65.54000091552734,78.06999969482422,82.38999938964844,,,118.12999725341795
08-26,35.169998168945305,40.95000076293945,48.5,,60.06999969482422,63.959999084472656,66.70999908447266,78.47000122070312,,,120.98999786376952,118.5999984741211
08-27,35.09000015258789,42.0099983215332,,50.5099983215332,58.75,64.0,67.66000366210939,,,104.54000091552734,121.5,120.0500030517578
08-28,34.77000045776367,,,50.97999954223633,58.81000137329102,64.01999664306639,67.70999908447266,,81.86000061035156,103.88999938964844,121.86000061035156,118.12999725341795
08-29,,,50.11000061035156,50.91999816894531,59.209999084472656,64.15000152587889,,78.77999877929688,82.0,104.6999969482422,121.69000244140624,
08-30,,40.9900016784668,50.31000137329102,50.47000122070313,58.81000137329102,,,78.69000244140625,82.97000122070312,104.6999969482422,122.22000122070312,
08-31,34.380001068115234,41.650001525878906,50.47999954223633,50.6500015258789,,,67.36000061035156,77.9800033569336,83.61000061035156,104.70999908447266,,118.38999938964844
09-01,34.139999389648445,42.7599983215332,49.20000076293945,,,,65.80000305175781,77.97000122070312,83.87999725341797,,,119.5
09-02,33.97999954223633,43.209999084472656,47.9900016784668,,,64.54000091552734,66.48000335693361,79.16000366210938,,,,122.26000213623048
09-03,34.139999389648445,43.849998474121094,,,58.36999893188477,64.16999816894531,67.37999725341797,,,,119.6500015258789,119.16999816894531
09-04,34.299999237060554,,,51.0,58.61999893188477,64.73999786376953,67.26999664306639,,,106.37999725341795,121.94000244140624,118.72000122070312
09-05,,,,50.61000061035156,58.4900016784668,65.19999694824219,,,83.25,108.18000030517578,121.1999969482422,
09-06,,,47.56000137329102,50.79999923706055,58.5099983215332,,,79.45999908447266,82.8499984741211,108.9499969482422,120.87999725341795,
09-07,,43.58000183105469,48.5099983215332,51.4900016784668,,,,80.29000091552734,83.61000061035156,107.9000015258789,,
09-08,34.950000762939446,43.86999893188477,48.849998474121094,,,64.70999908447266,68.01999664306639,79.20999908447266,83.81999969482422,,,116.05999755859376
09-09,35.169998168945305,43.97999954223633,48.08000183105469,,59.1500015258789,63.88000106811523,67.77999877929689,77.45999908447266,,,119.0999984741211,117.88999938964844
09-10,35.27000045776367,44.0099983215332,,51.11000061035156,59.4900016784668,63.540000915527344,66.91000366210939,,,108.55999755859376,119.11000061035156,117.19000244140624
09-11,35.47999954223633,,,51.18999862670898,59.5099983215332,63.790000915527344,67.40000152587889,,85.12000274658203,108.5199966430664,118.62999725341795,118.36000061035156
09-12,,,47.88000106811523,51.27999877929688,59.1500015258789,62.70000076293945,,78.51000213623047,85.19999694824219,109.38999938964844,118.0500030517578,
09-13,,44.68000030517578,48.5,52.13999938964844,59.0099983215332,,,77.54000091552734,84.5,110.81999969482422,118.4000015258789,
09-14,35.900001525878906,44.959999084472656,49.22999954223633,52.459999084472656,,,66.72000122070311,77.37000274658203,84.87000274658203,111.97000122070312,,119.08000183105469
09-15,36.79999923706055,45.72000122070313,49.6500015258789,,,62.7599983215332,68.41000366210939,77.9000015258789,84.70999908447266,,,118.33000183105469
09-16,37.11000061035156,45.6500015258789,49.22999954223633,,60.31999969482422,62.59000015258789,69.04000091552734,77.5999984741211,,,116.4800033569336,117.7699966430664
09-17,36.93999862670898,45.27000045776367,,52.4000015258789,59.5099983215332,61.4900016784668,68.41999816894531,,,111.3000030517578,117.01000213623048,115.95999908447266
09-18,36.70000076293945,,,52.099998474121094,60.22000122070313,61.599998474121094,67.15000152587889,,85.44000244140625,111.58999633789062,118.3000030517578,115.04000091552734
09-19,,,48.52000045776367,52.40999984741211,60.11000061035156,61.15999984741211,,78.61000061035156,85.55999755859375,111.12999725341795,117.8499984741211,
09-20,,45.290000915527344,48.13000106811523,52.68000030517578,60.2400016784668,,,78.72000122070312,86.12000274658203,110.48999786376952,118.0500030517578,
09-21,36.95000076293945,44.68999862670898,46.68000030517578,52.66999816894531,,,67.62999725341797,78.41999816894531,86.1500015258789,110.31999969482422,,113.4499969482422
09-22,37.099998474121094,44.45000076293945,45.79999923706055,,,61.20000076293945,66.73999786376953,79.45999908447266,85.72000122070312,,,114.33000183105469
09-23,37.36000061035156,44.13999938964844,46.1500015258789,,60.4000015258789,60.93999862670898,66.68000030517578,78.79000091552734,,,118.0999984741211,112.13999938964844
09-24,36.810001373291016,44.83000183105469,,52.6500015258789,60.40999984741211,61.0,65.59999847412111,,,110.37999725341795,118.51000213623048,112.26000213623048
09-25,36.38000106811523,,,51.9900016784668,60.2599983215332,60.84000015258789,65.52999877929689,,86.76000213623047,108.76000213623048,119.12000274658205,112.0999984741211
09-26,,,47.0099983215332,51.81000137329102,60.56999969482422,61.38000106811523,,78.05999755859375,86.75,108.5999984741211,118.91999816894531,
09-27,,44.599998474121094,47.61999893188477,51.61999893188477,59.6500015258789,,,77.73999786376953,86.54000091552734,108.33999633789062,118.66999816894531,
09-28,37.349998474121094,45.43000030517578,45.6500015258789,51.709999084472656,,,64.15000152587889,78.61000061035156,87.08000183105469,107.73999786376952,,112.36000061035156
09-29,37.38000106811523,45.56000137329102,46.47000122070313,,,61.75,64.94000244140625,77.20999908447266,86.30999755859375,,,112.62000274658205
09-30,37.36000061035156,45.66999816894531,44.66999816894531,,60.13000106811523,60.70000076293945,65.95999908447266,77.41000366210938,,,118.4499969482422,113.1999969482422
10-01,36.41999816894531,45.27999877929688,,51.7400016784668,61.09000015258789,59.2599983215332,67.23999786376953,,,107.7699966430664,117.66999816894531,113.6999969482422
10-02,36.11999893188477,,,51.86999893188477,60.27999877929688,59.33000183105469,67.98000335693361,,87.87999725341797,108.1500015258789,115.3499984741211,112.8499984741211
10-03,,,42.790000915527344,52.02999877929688,59.72999954223633,60.11000061035156,,77.36000061035156,88.43000030517578,108.0,114.98999786376952,
10-04,,45.38999938964844,44.650001525878906,52.31000137329102,60.13000106811523,,,76.0999984741211,88.13999938964844,107.08999633789062,117.33000183105469,
10-05,36.709999084472656,46.43999862670898,45.65999984741211,52.56999969482422,,,68.41000366210939,76.11000061035156,88.13999938964844,107.16999816894531,,114.5500030517578
10-06,36.83000183105469,46.40999984741211,46.47999954223633,,,60.22999954223633,67.68000030517578,76.63999938964844,88.58000183105469,,,114.55999755859376
10-07,37.06999969482422,46.15999984741211,45.95000076293945,,60.2599983215332,58.95000076293945,68.68000030517578,75.63999938964844,,,116.55999755859376,114.9800033569336
10-08,37.34000015258789,46.43999862670898,,52.40999984741211,60.099998474121094,59.91999816894531,69.62999725341797,,,107.66999816894531,114.77999877929688,116.5199966430664
10-09,37.97999954223633,,,51.68000030517578,59.77000045776367,58.56000137329102,70.26000213623047,,88.45999908447266,105.72000122070312,116.4800033569336,116.80999755859376
10-10,,,47.2400016784668,51.18999862670898,60.93000030517578,57.5,,75.94999694824219,88.47000122070312,102.41999816894531,116.30999755859376,
10-11,,46.7400016784668,47.68000030517578,51.27000045776367,61.45000076293945,,,75.06999969482422,88.36000061035156,101.56999969482422,116.33000183105469,
10-12,37.95000076293945,46.68999862670898,48.709999084472656,51.22999954223633,,,70.56999969482422,75.66000366210938,88.48999786376953,101.6500015258789,,118.04000091552734
10-13,38.040000915527344,47.06999969482422,48.2400016784668,,,56.18000030517578,70.16000366210939,75.58999633789062,88.83999633789062,,,117.55999755859376
10-14,38.88999938964844,46.9900016784668,48.63999938964844,,61.91999816894531,56.38999938964844,69.66999816894531,76.02999877929688,,,115.8499984741211,116.44000244140624
10-15,37.70000076293945,46.7599983215332,,51.45000076293945,61.2400016784668,56.63999938964844,69.69000244140625,,,102.1500015258789,115.18000030517578,116.33999633789062
10-16,37.4900016784668,,,52.11000061035156,61.6500015258789,57.6500015258789,69.83999633789061,,88.94000244140625,105.5999984741211,115.47000122070312,116.3499984741211
10-17,,,47.5,53.0,62.75,58.70000076293945,,76.19999694824219,88.9800033569336,105.0199966430664,116.5500030517578,
10-18,,46.83000183105469,48.56999969482422,52.7400016784668,63.18999862670898,,,76.38999938964844,88.5999984741211,104.2699966430664,117.77999877929688,
10-19,37.52999877929688,46.38000106811523,47.5099983215332,52.34000015258789,,,69.98999786376953,76.4800033569336,88.63999938964844,104.31999969482422,,115.1500015258789
10-20,37.06999969482422,47.38999938964844,47.95000076293945,,,60.040000915527344,70.48999786376953,75.97000122070312,89.19999694824219,,,116.95999908447266
10-21,36.61999893188477,45.0,48.4900016784668,,63.54999923706055,61.25,69.87000274658203,77.16000366210938,,,117.9000015258789,117.73999786376952
10-22,37.16999816894531,45.04999923706055,,52.58000183105469,64.23999786376953,60.59000015258789,71.29000091552734,,,103.97000122070312,116.66000366210938,118.30999755859376
10-23,36.959999084472656,,,51.709999084472656,63.349998474121094,61.77999877929688,71.4000015258789,,89.02999877929688,103.68000030517578,117.37000274658205,118.3499984741211
10-24,,,49.58000183105469,51.41999816894531,63.56000137329102,61.91999816894531,,77.0,89.12000274658203,100.08000183105469,117.33999633789062,
10-25,,45.25,48.349998474121094,51.29999923706055,64.27999877929689,,,77.0,88.48999786376953,101.29000091552734,117.87999725341795,
10-26,36.91999816894531,45.13999938964844,48.95000076293945,51.6500015258789,,,71.30000305175781,76.2699966430664,88.94000244140625,100.36000061035156,,117.45999908447266
10-27,36.27000045776367,45.16999816894531,49.27000045776367,,,60.36999893188477,70.94999694824219,76.27999877929688,87.93000030517578,,,115.6500015258789
10-28,35.43000030517578,45.22999954223633,49.13000106811523,,64.16999816894531,61.25,71.8499984741211,73.0199966430664,,,118.1999969482422,112.33999633789062
10-29,35.7400016784668,44.88000106811523,,,64.01000213623047,61.02999877929688,72.33999633789062,,,100.16000366210938,118.51000213623048,112.94000244140624
10-30,35.310001373291016,,,,63.56000137329102,61.709999084472656,73.55999755859375,,86.45999908447266,101.37000274658205,119.25,114.08999633789062
10-31,,,47.97000122070313,51.27999877929688,64.16000366210939,62.2400016784668,,71.44000244140625,87.06999969482422,101.95999908447266,118.1500015258789,
11-01,,44.810001373291016,46.20000076293945,53.13000106811523,63.88999938964844,,,70.62000274658203,87.41000366210938,103.18000030517578,110.79000091552734,
11-02,34.93000030517578,44.90999984741211,47.2400016784668,49.4900016784668,,,75.72000122070312,70.91999816894531,86.5999984741211,103.8000030517578,,118.19000244140624
11-03,35.20000076293945,45.06000137329102,48.86000061035156,,,61.72999954223633,74.76000213623047,70.87000274658203,86.94000244140625,,,119.55999755859376
11-04,35.02000045776367,46.22000122070313,48.7599983215332,,64.08000183105469,62.31000137329102,73.2300033569336,71.41000366210938,,,108.66999816894531,119.0500030517578
11-05,35.65999984741211,46.41999816894531,,49.66999816894531,63.77999877929688,63.63999938964844,73.44999694824219,,,101.87999725341795,108.66000366210938,122.91000366210938
11-06,35.439998626708984,,,50.15999984741211,64.37000274658203,63.79999923706055,73.26000213623047,,85.8499984741211,104.0999984741211,109.48999786376952,123.5999984741211
11-07,,,48.5099983215332,48.91999816894531,63.40999984741211,64.76999664306639,,74.33000183105469,85.72000122070312,105.11000061035156,109.4000015258789,
11-08,,46.34000015258789,48.40999984741211,48.27000045776367,64.25,,,75.73999786376953,85.7300033569336,105.12999725341795,109.0,
11-09,36.02999877929688,46.290000915527344,47.18000030517578,48.02000045776367,,,72.44999694824219,75.11000061035156,84.76000213623047,104.29000091552734,,123.16999816894531
11-10,35.95000076293945,46.84000015258789,47.5,,,65.55000305175781,73.04000091552734,71.43000030517578,84.91000366210938,,,127.61000061035156
11-11,35.959999084472656,46.61999893188477,48.599998474121094,,64.72000122070311,65.26000213623047,73.05999755859375,71.8499984741211,,,108.58000183105469,125.2699966430664
11-12,35.599998474121094,46.0099983215332,,47.88999938964844,64.40000152587889,65.16999816894531,70.80000305175781,,,101.7699966430664,108.22000122070312,124.2699966430664
11-13,36.0,,,47.1500015258789,65.08999633789061,64.94999694824219,71.5199966430664,,85.58999633789062,102.37999725341795,109.62000274658205,
11-14,,,48.18000030517578,46.040000915527344,64.91999816894531,64.83000183105469,,73.51000213623047,85.61000061035156,102.08000183105469,110.47000122070312,
11-15,,46.02999877929688,48.59000015258789,45.79999923706055,64.94000244140625,,,73.37999725341797,85.4800033569336,104.79000091552734,109.95999908447266,
11-16,36.709999084472656,45.290000915527344,48.38000106811523,46.18999862670898,,,72.0999984741211,73.56999969482422,86.11000061035156,106.27999877929688,,
11-17,36.90999984741211,45.349998474121094,47.709999084472656,,,65.48000335693361,71.97000122070312,73.58000183105469,85.6500015258789,,,
11-18,36.599998474121094,45.47000122070313,48.02999877929688,,64.77999877929689,64.98999786376953,73.43000030517578,73.6500015258789,,,110.33999633789062,
11-19,36.40999984741211,45.58000183105469,,46.93999862670898,64.38999938964844,64.83000183105469,73.68000030517578,,,105.18000030517578,110.5,
11-20,36.34000015258789,,,46.97000122070313,63.88999938964844,64.75,74.29000091552734,,85.47000122070312,104.30999755859376,110.6999969482422,
11-21,,,47.45000076293945,46.95000076293945,64.09999847412111,65.09999847412111,,74.23999786376953,86.54000091552734,103.5,111.3000030517578,
11-22,,46.02000045776367,47.83000183105469,,64.19999694824219,,,75.48999786376953,85.8499984741211,,110.12000274658205,
11-23,36.68000030517578,45.45000076293945,46.91999816894531,47.61999893188477,,,73.8499984741211,76.05000305175781,,103.9000015258789,,
11-24,36.5099983215332,46.47000122070313,,,,65.33999633789061,74.27999877929688,,86.25,,,
11-25,36.81999969482422,,46.5099983215332,,64.23999786376953,65.26999664306639,74.87000274658203,76.06999969482422,,,110.9499969482422,
11-26,,46.349998474121094,,47.790000915527344,64.37000274658203,65.29000091552734,,,,103.69000244140624,112.55999755859376,
11-27,35.90999984741211,,,47.31000137329102,64.94999694824219,,75.01000213623047,,86.73999786376953,102.3000030517578,112.83000183105469,
11-28,,,48.15999984741211,47.58000183105469,,65.25,,76.47000122070312,86.91000366210938,104.02999877929688,,
11-29,,45.88999938964844,48.61999893188477,47.77000045776367,64.91999816894531,,,75.68000030517578,87.55999755859375,103.8499984741211,112.12000274658205,
11-30,36.11999893188477,45.66999816894531,50.790000915527344,47.66999816894531,,,74.4800033569336,73.18000030517578,88.41000366210938,104.0500030517578,,
12-01,36.310001373291016,46.84000015258789,50.58000183105469,,,65.09999847412111,74.97000122070312,74.08000183105469,87.5999984741211,,,
12-02,36.47000122070313,47.5099983215332,50.95000076293945,,64.97000122070311,65.34999847412111,73.93000030517578,74.3499984741211,,,112.01000213623048,
12-03,36.060001373291016,48.22000122070313,,46.95000076293945,64.20999908447266,66.43000030517578,73.45999908447266,,,104.45999908447266,112.70999908447266,
12-04,36.52999877929688,,,47.08000183105469,63.81000137329102,66.56999969482422,74.3499984741211,,88.05999755859375,102.94000244140624,111.77999877929688,
12-05,,,51.25,47.25,64.08000183105469,66.26000213623047,,73.37999725341797,89.0,,111.9499969482422,
12-06,,47.52000045776367,50.709999084472656,47.68000030517578,64.69000244140625,,,73.80000305175781,88.16999816894531,101.62999725341795,112.08000183105469,
12-07,36.63999938964844,47.27999877929688,50.65999984741211,47.70000076293945,,,74.22000122070312,73.4800033569336,88.37999725341797,99.7699966430664,,
12-08,36.68000030517578,46.70000076293945,49.86000061035156,,,65.87999725341797,73.5999984741211,74.19999694824219,87.9000015258789,,,
12-09,36.709999084472656,46.75,50.72999954223633,,64.58999633789061,66.26000213623047,73.08000183105469,74.75,,,112.62999725341795,
12-10,36.310001373291016,47.06000137329102,,47.77999877929688,64.27999877929689,65.38999938964844,73.43000030517578,,,99.11000061035156,111.94000244140624,
12-11,36.58000183105469,,,47.7400016784668,63.209999084472656,65.68000030517578,72.86000061035156,,87.27999877929688,98.66999816894531,112.56999969482422,
12-12,,,49.93999862670898,47.56999969482422,63.4000015258789,64.63999938964844,,74.61000061035156,86.43000030517578,99.93000030517578,114.18000030517578,
12-13,,46.88999938964844,49.65999984741211,47.20000076293945,63.70000076293945,,,74.37000274658203,86.69000244140625,100.31999969482422,113.97000122070312,
12-14,36.540000915527344,46.7599983215332,48.9900016784668,46.91999816894531,,,72.55000305175781,73.05000305175781,86.37000274658203,100.33999633789062,,
12-15,36.65999984741211,46.65999984741211,49.93000030517578,,,63.86000061035156,73.05999755859375,72.95999908447266,86.9800033569336,,,
12-16,36.75,47.40999984741211,51.18000030517578,,64.37000274658203,63.81999969482422,73.44999694824219,72.93000030517578,,,114.31999969482422,
12-17,36.209999084472656,47.11000061035156,,47.38000106811523,64.47000122070311,65.26000213623047,72.26000213623047,,,98.63999938964844,113.3499984741211,
12-18,35.93000030517578,,,47.56000137329102,65.08000183105469,66.61000061035156,71.11000061035156,,86.56999969482422,97.94000244140624,113.08000183105469,
12-19,,,50.0099983215332,48.06999969482422,64.77999877929689,67.12999725341797,,73.80000305175781,86.58000183105469,95.58999633789062,113.26000213623048,
12-20,,47.349998474121094,52.18999862670898,48.18999862670898,65.36000061035156,,,73.9800033569336,86.33000183105469,95.01000213623048,114.95999908447266,
12-21,36.18999862670898,47.43000030517578,52.22000122070313,47.7599983215332,,,71.66000366210938,73.36000061035156,85.76000213623047,93.5500030517578,,
12-22,36.29999923706055,47.959999084472656,52.18999862670898,,,67.08999633789061,72.30999755859375,73.0199966430664,85.9000015258789,,,
12-23,36.16999816894531,47.86999893188477,52.58000183105469,,65.84999847412111,67.44000244140625,73.45999908447266,73.61000061035156,,,115.37000274658205,
12-24,36.36999893188477,,,47.9900016784668,66.38999938964844,67.55999755859375,73.30000305175781,,,89.69999694824219,114.7300033569336,
12-26,,,,47.540000915527344,66.79000091552734,67.86000061035156,,,85.38999938964844,91.7699966430664,114.81999969482422,
12-27,,48.06999969482422,52.52000045776367,47.77000045776367,66.72000122070311,,,74.16999816894531,85.62000274658203,92.37000274658205,115.0199966430664,
12-28,36.38999938964844,48.16999816894531,51.88999938964844,47.34000015258789,,,73.70999908447266,73.72000122070312,86.75,92.6999969482422,,
12-29,36.36000061035156,48.0,52.4900016784668,,,68.37999725341797,74.04000091552734,73.69000244140625,86.27999877929688,,,
12-30,36.31999969482422,47.84000015258789,52.16999816894531,,67.52999877929689,68.09999847412111,73.62000274658203,73.44999694824219,,,115.76000213623048,
12-31,35.7400016784668,47.56999969482422,,47.72000122070313,67.80999755859375,66.83999633789061,72.6500015258789,,,94.06999969482422,115.62000274658205,
