,2009,2010,2011,2012,2013,2014,2015,2016,2017,2018,2019,2020
01-02,29.617834091186523,,,,43.12544631958008,60.42218017578125,61.018226623535156,,,83.69349670410156,87.95075225830078,112.28177642822266
01-03,,,41.167423248291016,45.452598571777344,43.29348373413086,60.1701774597168,,,69.14614105224611,83.86663055419922,86.88770294189453,112.63735961914062
01-04,,30.514020919799805,40.91077041625977,45.54823303222656,43.88606262207031,,,67.15212249755861,70.29195404052734,82.73160552978516,88.81875610351562,
01-05,28.99770355224609,30.48033332824707,40.97920227050781,45.16570281982422,,,59.14142990112305,66.77014923095703,69.57227325439453,83.59729766845703,,
01-06,28.12123107910156,30.943443298339844,40.611328125,45.07876205444336,,59.85515594482422,58.50973892211914,66.31364440917969,69.60066986083984,,,112.6472396850586
01-07,27.178619384765625,30.943443298339844,40.53432083129883,,43.514591217041016,60.1341667175293,58.84847640991211,64.99073028564453,,,89.67699432373047,111.52125549316406
01-08,27.84837532043457,30.96869468688965,,,45.74338912963867,61.39429473876953,60.523841857910156,65.10253143310547,,83.87622833251953,91.20817565917969,111.8274383544922
01-09,26.90576171875,,,45.02659225463867,45.26578140258789,60.98023986816406,59.93792343139648,,69.77112579345703,83.09711456298828,91.16918182373048,113.2497329711914
01-10,,,40.585670471191406,45.16570281982422,45.00045776367188,61.25026321411133,,,68.95675659179689,82.4045639038086,92.2419891357422,114.36582946777344
01-11,,30.99395751953125,40.91077041625977,45.0352897644043,45.1419677734375,,,65.04661560058594,69.16506958007811,82.96245574951172,92.38829040527344,
01-12,26.77346611022949,31.010820388793945,41.2358512878418,44.74839401245117,,,59.84637451171875,65.06524658203125,69.439697265625,83.26062774658203,,
01-13,26.798274993896484,31.061321258544922,41.218746185302734,44.75708770751953,,60.42218017578125,59.66326522827149,64.1988525390625,69.60066986083984,,,114.77078247070312
01-14,25.268596649169922,30.96869468688965,41.46685028076172,,45.31000518798828,61.4302749633789,59.14142990112305,64.04976654052734,,,91.6373062133789,114.70164489746094
01-15,25.706829071044922,30.514020919799805,,,45.59304428100586,61.20526123046875,58.3907241821289,63.41625595092773,,,92.46629333496094,115.27450561523438
01-16,25.16937255859375,,,,45.61072158813477,61.20526123046875,59.02241134643555,,,82.95283508300781,92.3687744140625,116.76594543457031
01-17,,,,44.93096160888672,46.026405334472656,60.52119827270508,,,69.44916534423828,83.52996826171875,93.55860137939452,115.87701416015624
01-18,,,41.98015213012695,45.28742599487305,46.28289031982422,,,,69.58174133300781,83.91471099853516,95.2751007080078,
01-19,,31.061321258544922,41.63795852661133,45.530845642089844,,,,63.46285629272461,68.87152099609375,85.23249816894531,,
01-20,24.061397552490234,30.66557502746582,41.27008819580078,44.81793975830078,,,58.78438949584961,63.19268417358398,67.83934783935547,,,
01-21,25.111492156982425,30.370885848999023,41.07329559326172,,,60.45818710327149,58.90339279174805,62.139930725097656,,,,114.20780181884766
01-22,24.797290802001953,30.362462997436523,,,46.00871658325195,60.29619598388672,59.24213790893555,63.583961486816406,,84.1263198852539,94.05601501464844,114.24729919433594
01-23,24.81382751464844,,,44.844017028808594,45.822998046875,59.67513275146485,58.37240982055664,,68.60636138916016,84.260986328125,94.9727783203125,115.92639923095705
01-24,,,41.612281799316406,44.72229385375977,46.07947540283203,58.03698348999024,,,69.63854217529297,84.83812713623047,94.72895050048828,115.67947387695312
01-25,,30.362462997436523,41.53528213500977,45.00050735473633,46.01756286621094,,,62.5639877319336,69.53439331054689,86.02124786376953,94.98253631591795,
01-26,25.111492156982425,30.311952590942386,41.78337478637695,45.33959579467773,,,58.63908004760742,65.96074676513672,69.43022918701172,85.74229431152344,,
01-27,25.54359436035156,30.48875999450684,41.65505981445313,45.452598571777344,,57.287010192871094,57.82988357543945,65.73617553710939,69.54386138916016,,,115.05720520019531
01-28,26.490880966186523,30.244590759277344,40.90220642089844,,45.35991668701172,57.53097534179688,57.0942497253418,66.12918853759766,,,95.46041107177734,114.89869689941406
01-29,26.12526130676269,29.874101638793945,,,46.141990661621094,57.250877380371094,57.9310302734375,68.21591186523439,,84.38604736328125,95.85188293457031,114.86898040771484
01-30,25.61006736755371,,,45.51371383666992,46.08865737915039,58.01891708374024,58.03218078613281,,69.18244171142578,84.65635681152344,95.8714599609375,115.46343231201172
01-31,,,41.27146530151367,45.76691055297852,45.795387268066406,57.64844512939453,,,69.40119171142578,84.39569854736328,97.00672149658205,114.44293975830078
02-01,,30.068592071533203,41.81248474121094,46.7447738647461,46.41748809814453,,,67.663818359375,70.32374572753906,83.83576202392578,97.42755126953124,
02-02,24.920373916625977,30.508285522460934,41.73519515991211,46.09868240356445,,,58.42758178710938,66.73743438720703,69.74357604980469,82.83174896240234,,
02-03,24.961917877197266,30.44063949584961,41.563438415527344,46.70983123779297,,55.49792098999024,58.36321258544922,68.44983673095703,70.17159271240234,,,116.15695190429688
02-04,24.69601058959961,29.67961883544922,41.73519515991211,,46.39970397949219,56.13947296142578,58.13333129882813,67.59830474853516,,,97.7211685180664,115.86963653564452
02-05,24.99516868591309,29.62043762207031,,,46.70187377929688,56.2930793762207,58.67586135864258,66.55027770996094,,80.4954605102539,98.91514587402344,116.78113555908205
02-06,25.64330863952637,,,46.70983123779297,47.02180099487305,56.473793029785156,59.15402603149414,,69.76260375976561,80.89127349853516,99.42406463623048,116.44427490234376
02-07,,,42.456539154052734,46.657447814941406,46.98626327514648,57.36834716796875,,,69.17292785644531,80.94918823242188,99.7763900756836,115.62194061279295
02-08,,29.721908569335934,42.78286361694336,46.43917846679688,46.66631317138672,,,68.33754730224611,69.95281982421875,78.56465911865234,99.22832489013672,
02-09,25.161359786987305,29.9502010345459,42.49948120117188,46.93684768676758,,,58.52872848510742,69.62887573242189,69.97183227539061,79.31766510009766,,
02-10,24.15589714050293,29.66272354125977,42.61970901489258,46.30821990966797,,57.29605102539063,58.60229873657226,69.42303466796875,71.1321792602539,,,114.73026275634766
02-11,24.3719482421875,32.047237396240234,42.49089813232422,,46.59523010253906,57.675559997558594,58.55632781982422,69.54465484619139,,,99.53170776367188,114.97796630859376
02-12,24.596303939819336,32.165611267089844,,,46.84406280517578,57.77494430541992,58.91494750976562,70.46168518066406,,79.742431640625,100.13850402832031,113.65033721923828
02-13,24.247299194335934,,,45.76691055297852,47.25286483764648,58.20867919921875,59.36551284790039,,70.7897720336914,86.61611938476562,100.60826873779295,115.1265640258789
02-14,,,42.2848014831543,45.68832397460938,47.16400146484375,58.52490615844727,,,70.21912384033203,87.52359771728516,99.6002197265625,115.59222412109376
02-15,,,42.25044250488281,45.7581787109375,47.19954299926758,,,,69.61993408203125,88.01597595214844,99.7666015625,
02-16,,31.937313079833984,42.24184799194336,46.055030822753906,,,,69.19844818115234,70.57102966308594,88.65312194824219,,
02-17,23.26676940917969,31.67517852783203,42.51665115356445,46.11614990234375,,,59.99999618530274,68.65570831298828,70.28570556640625,,,
02-18,23.10058403015137,32.047237396240234,42.49948120117188,,,58.71467208862305,60.53334426879883,68.59020233154297,,,,114.19525909423828
02-19,22.81805419921875,32.233264923095696,,,47.76833724975586,58.29903030395508,60.54251480102539,68.19718933105469,,,99.38492584228516,113.9475555419922
02-20,22.70172119140625,,,,46.453041076660156,58.59720230102539,60.84597778320313,,,87.90977478027344,100.07978057861328,113.86830139160156
02-21,,,,45.83675765991211,46.41748809814453,58.40745544433594,,,70.94194030761719,87.04090881347656,100.92144012451172,110.945556640625
02-22,,32.317806243896484,41.64073181152344,45.79310607910156,46.94183731079102,,,68.12233734130861,70.62810516357422,87.47533416748047,99.87425994873048,
02-23,21.8375301361084,32.18251800537109,41.04819107055664,46.41299438476562,,,60.93791580200195,68.18782806396484,70.49491882324219,87.84217834472656,,
02-24,22.651865005493164,32.51229476928711,40.747642517089844,46.47410583496094,,58.16349411010742,60.96552658081055,69.16101837158203,70.72320556640625,,,108.20114135742188
02-25,22.951007843017575,32.43619537353516,41.25429916381836,,46.30195236206055,58.37131118774414,60.55172729492188,69.5633544921875,,,99.39469909667969,105.95211029052734
02-26,22.975940704345703,32.579933166503906,,,46.62188720703125,58.67853546142578,60.928749084472656,68.61827850341797,,87.63944244384766,99.15003204345705,103.7129898071289
02-27,23.31662940979004,,,46.47410583496094,47.4572868347168,59.19357299804688,60.57011032104492,,70.83733367919922,86.40373229980469,99.24790954589844,101.45404815673828
02-28,,,41.36593627929688,46.055030822753906,47.93717956542969,59.78992462158203,,,70.86585998535156,86.32649230957031,99.56108856201172,100.1363296508789
02-29,,,,46.08122253417969,,,,68.97384643554689,,,,
03-01,,32.985809326171875,40.75622177124024,46.22090530395508,47.51947021484375,,,69.71309661865234,72.34005737304688,85.92103576660156,98.6606903076172,
03-02,21.92062187194824,33.23949432373047,40.7304573059082,46.44793319702149,,,61.1494255065918,69.62887573242189,72.10228729248047,86.57750701904297,,102.6231460571289
03-03,21.70457649230957,33.518524169921875,41.75237655639648,,,59.03092956542969,60.5885009765625,70.36811065673828,72.32102966308594,,,101.81072235107422
03-04,22.12005424499512,33.518524169921875,41.168418884277344,,47.4572868347168,59.41043090820313,60.34022521972656,71.11672973632812,,,99.44363403320312,106.4474868774414
03-05,21.446971893310547,34.11887359619141,,46.57887649536133,47.81277084350586,59.57308578491211,59.79770278930664,,,87.2726058959961,99.30662536621094,103.01945495605469
03-06,21.23092460632324,,,45.53991317749024,48.3282241821289,59.41043090820313,59.098838806152344,,71.95011901855469,87.62979125976562,98.34752655029295,106.3087921142578
03-07,,,41.02243041992188,45.56609725952149,48.46152114868164,59.39236068725586,,70.85472106933594,71.77891540527344,87.02159118652344,97.75052642822266,
03-08,,34.21188735961914,42.7055778503418,46.50902557373047,49.10139846801758,,,70.92021179199219,72.2259292602539,86.83816528320312,98.32794952392578,
03-09,21.02318572998047,33.97512435913086,42.32774353027344,46.7447738647461,,,59.01608657836914,70.97637176513672,72.14033508300781,87.7263412475586,,100.51282501220705
03-10,21.862457275390625,34.06814956665039,41.2457160949707,,,59.2387580871582,58.62068557739258,70.5271987915039,73.03436279296875,,,103.02935791015624
03-11,21.721189498901367,34.12733840942383,41.34017562866211,,49.19026565551758,58.78696060180664,58.2620735168457,70.9108657836914,,,99.84488677978516,98.16472625732422
03-12,22.38595390319824,34.16115951538086,,46.79714965820313,49.19914627075195,58.76887893676758,58.44598007202149,,,87.63944244384766,100.07978057861328,93.5279541015625
03-13,22.78481674194336,,,47.50434112548828,49.17249298095703,57.9647102355957,58.02299118041992,,72.9963150024414,87.36914825439453,100.09935760498048,95.49956512451172
03-14,,,41.563438415527344,47.54800796508789,49.30579376220703,58.28999328613281,,70.4055404663086,72.78706359863281,86.95401763916016,100.69634246826172,
03-15,,33.822921752929695,40.94514846801758,47.92343139648438,49.501319885253906,,,71.2664566040039,73.46236419677734,87.15675354003906,100.85294342041016,
03-16,22.74327278137207,34.110424041748054,40.63600540161133,47.79246520996094,,,58.657470703125,71.63136291503906,73.21505737304688,87.03125762939453,,87.06817626953125
03-17,23.23353385925293,34.245716094970696,40.71327590942383,,,58.69660568237305,58.4919548034668,72.29576873779297,73.3101806640625,,,95.55901336669922
03-18,24.546443939208984,34.017417907714844,41.21994400024414,,49.37690353393555,59.15742492675781,58.80459976196289,71.94953155517578,,,101.49886322021484,95.8562469482422
03-19,24.970233917236328,33.662277221679695,,47.66150665283203,49.59907531738281,58.60624313354492,58.5195426940918,,,86.84781646728516,101.3912124633789,97.96656036376952
03-20,24.50489616394043,,,47.4956169128418,50.3455924987793,58.42552947998047,58.14252853393555,,74.03300476074219,86.6740493774414,101.7337417602539,91.6554183959961
03-21,,,42.07011032104492,47.39083862304688,49.99899291992188,58.50683975219727,,72.40803527832031,73.01532745361328,86.4906234741211,103.2898406982422,
03-22,,33.560794830322266,42.00141143798828,47.146385192871094,49.981224060058594,,,73.05371856689453,73.09143829345703,84.9170150756836,101.61630249023438,
03-23,25.60175895690918,33.78065872192383,42.06151580810547,47.3995590209961,,,58.28965377807617,73.11921691894531,73.38626098632812,83.76817321777344,,83.15467071533203
03-24,25.294300079345703,33.104198455810554,42.19032669067383,,,58.00085067749024,58.39080429077149,72.41740417480469,72.87267303466797,,,87.24652099609375
03-25,25.68485450744629,32.84206771850586,42.05293655395508,,49.7679328918457,57.97373962402344,57.91263961791992,,,,102.28180694580078,89.34693145751953
03-26,26.98945426940918,33.07881546020508,,47.94961547851562,50.3455924987793,57.44062805175781,57.91263961791992,,,85.1583480834961,103.19197845458984,95.3113250732422
03-27,26.673694610595703,,,47.83610916137695,50.51443481445313,57.54904174804688,58.09655380249024,,72.87267303466797,85.0328598022461,103.27027130126952,93.13164520263672
03-28,,,41.99282455444336,47.96707534790039,50.96770477294922,58.07312774658203,,73.27828979492188,73.3006591796875,85.30318450927734,103.92599487304688,
03-29,,33.45933151245117,41.92411422729492,47.94087600708008,,,,73.4654312133789,73.27213287353516,86.72232818603516,104.12171936035156,
03-30,25.71809196472168,33.603084564208984,42.61111068725586,47.81865310668945,,,58.57471084594727,73.67130279541016,73.10093688964844,,,99.55178833007812
03-31,25.87597465515137,33.2733154296875,43.049076080322266,,,59.72668075561523,58.4091911315918,73.37186431884766,73.2245864868164,,,98.62046813964844
04-01,25.83442497253418,33.400146484375,43.607269287109375,,50.6299934387207,60.58510208129883,58.52872848510742,74.0081787109375,,,105.41357421875,95.32123565673828
04-02,27.22212028503418,,,48.01944351196289,50.86105346679688,60.66638946533203,58.06896209716797,,,84.88805389404297,104.9340362548828,95.26178741455078
04-03,27.29690933227539,,,48.24645614624024,50.33670425415039,60.25075149536133,,,72.71099090576172,86.46166229248047,105.17870330810548,93.31989288330078
04-04,,,43.91642379760742,47.83610916137695,50.36336898803711,59.67246627807617,,73.83975982666016,72.98680877685547,86.60646057128906,105.79527282714844,
04-05,,33.535449981689446,44.27708435058594,47.4432373046875,49.847923278808594,,,72.74491882324219,72.35908508300781,87.2726058959961,106.42161560058594,
04-06,27.29690933227539,33.603084564208984,44.25991439819336,,,,58.28045272827149,72.96949005126953,72.78706359863281,85.43833923339844,,99.82920837402344
04-07,26.3413143157959,33.73837661743164,43.74466323852539,,,59.11224365234375,58.03218078613281,72.37998962402344,72.4351806640625,,,100.18587493896484
04-08,26.972841262817386,33.983585357666016,43.24658966064453,,50.11453628540039,59.50079345703125,58.317237854003906,72.38932800292969,,,106.66629791259766,103.14825439453124
04-09,27.83703804016113,34.600841522216804,,47.27734375,50.15896606445313,59.85318374633789,58.23447799682617,,,86.78990173339844,105.85399627685548,106.27906036376952
04-10,,,,46.57014465332031,50.87882614135742,59.37427520751953,58.381614685058594,,73.12946319580078,89.51233673095703,106.71521759033205,
04-11,,,42.980384826660156,47.05906677246094,51.08323287963867,58.47975158691406,,72.38932800292969,73.15800476074219,89.05859375,107.32201385498048,
04-12,,34.676956176757805,42.4050178527832,47.582923889160156,50.567771911621094,,,72.60455322265625,72.50173950195312,89.49302673339844,107.9581527709961,
04-13,27.29690933227539,34.79534149169922,42.61111068725586,47.21622085571289,,,58.32643508911133,73.16600036621094,72.09278869628906,89.54129791259766,,101.40451049804688
04-14,26.59059715270996,35.328067779541016,42.65406036376953,,,58.90442276000977,58.20689392089844,73.40929412841797,,,,103.05907440185548
04-15,26.889738082885746,35.81002426147461,43.13496398925781,,49.2258186340332,59.6634407043457,57.9310302734375,74.15789794921875,,,107.54710388183594,99.99763488769531
04-16,25.119802474975586,36.232810974121094,,47.38211059570313,49.64350509643555,59.997764587402344,57.94021987915039,,,91.0473403930664,107.2828598022461,100.90912628173828
04-17,24.654470443725586,,,47.582923889160156,48.88810348510742,60.1513557434082,57.78390884399414,,73.49088287353516,92.80435180664062,105.40380096435548,101.98906707763672
04-18,,,42.585350036621094,47.56546020507813,48.49706649780274,,,74.5134506225586,73.77621459960938,92.30236053466795,105.90291595458984,
04-19,,36.2920036315918,43.08343124389648,47.61785507202149,48.9503173828125,,,74.34503936767578,73.75718688964844,91.5203857421875,,
04-20,23.95646476745605,36.173622131347656,43.796199798583984,47.92343139648438,,,57.75633239746094,74.64447784423828,74.01398468017578,91.17283630371094,,105.95211029052734
04-21,24.60461235046387,36.27509307861328,44.11392593383789,,,60.61218643188477,57.673561096191406,73.53095245361328,74.17565155029297,,,105.1396942138672
04-22,24.42180061340332,36.44419860839844,,,49.28802871704102,61.10012817382813,57.82069396972656,74.56027221679688,,,106.60757446289062,105.31802368164062
04-23,24.812353134155273,36.56258773803711,,47.37338256835938,49.91012954711914,60.72061538696289,57.87585830688477,,,91.08594512939452,107.71347045898438,104.04984283447266
04-24,25.161359786987305,,,47.36461639404297,50.43680953979492,60.86518096923828,58.19770431518555,,74.47052001953125,89.9564208984375,107.5960464477539,103.15816497802734
04-25,,,44.05360412597656,48.23248672485352,50.14220428466797,60.66638946533203,,74.22211456298828,74.8794937133789,89.92747497558594,107.1164779663086,
04-26,,36.57107162475586,44.674076080322266,47.77663803100586,49.4459342956543,,,75.07687377929688,75.45962524414062,90.05296325683594,109.04448699951172,
04-27,25.24485969543457,36.2316780090332,44.92399215698242,48.03085327148438,,,57.99451065063477,75.10504150390625,74.9365463256836,90.22673797607422,,111.5400161743164
04-28,25.05278778076172,36.44380187988281,45.12219619750977,,,60.70270919799805,57.98527145385742,74.4757308959961,76.3727035522461,,,110.50630950927734
04-29,25.712512969970703,37.09716033935547,45.19975280761719,,49.41022109985352,60.9023323059082,57.77283477783203,71.38549041748047,,,108.94660949707031,109.41297912597656
04-30,25.91293334960937,36.52016830444336,,47.78539276123047,50.07973861694336,61.174522399902344,57.32948303222656,,,90.26536560058594,109.22154235839844,106.43115997314452
05-01,25.629003524780273,,,47.9256591796875,49.5173454284668,60.9658432006836,59.15827560424805,,76.13397979736328,90.3039779663086,110.76304626464844,105.49685668945312
05-02,,,45.5272216796875,47.80292892456055,49.63339233398438,60.5030746459961,,72.18388366699219,76.582763671875,89.35787963867188,110.94960021972656,
05-03,,37.05472946166992,45.13942337036133,48.06592178344727,49.98154067993164,,,71.15065002441406,76.82147979736328,87.96768951416016,111.78418731689452,
05-04,26.16345977783203,36.92744064331055,44.7171630859375,47.09286117553711,,,59.07513809204102,70.97221374511719,77.71908569335938,89.06825256347656,,106.16278839111328
05-05,26.15511131286621,36.06196594238281,44.25181198120117,,,60.55751419067383,58.18846893310547,71.44184875488281,78.21566009521484,,,104.9203643798828
05-06,26.3638858795166,35.09466552734375,44.17425155639648,,50.05295181274414,60.2218017578125,58.28083801269531,71.64849853515625,,,112.93293762207031,104.224609375
05-07,26.00479507446289,34.22916793823242,,46.97890090942383,50.11545181274414,60.32160186767578,58.18846893310547,,,89.58956909179688,111.9020004272461,104.83091735839844
05-08,26.188520431518555,,,47.15422439575195,50.40110397338867,60.52123260498047,58.33625030517578,,78.78860473632812,88.89207458496094,111.921630859375,106.87842559814452
05-09,,,45.02738952636719,47.09286117553711,49.95475387573242,60.42141723632813,,71.9020767211914,78.75994873046875,90.05457305908203,110.94960021972656,
05-10,,35.77347183227539,45.15666198730469,46.96135711669922,50.4278793334961,,,72.39990234375,79.13233947753906,90.85862731933594,111.53871154785156,
05-11,25.96304130554199,35.79891586303711,44.47587585449219,46.803565979003906,,,58.24388885498047,72.16510772705078,78.80769348144531,91.34300994873048,,105.6658172607422
05-12,26.02149772644043,36.214698791503906,45.21698379516602,,,61.24711990356445,58.65951538085938,72.91651153564453,78.71218872070312,,,103.3201141357422
05-13,25.19475746154785,35.8668098449707,45.07910919189453,,49.972618103027344,60.78435897827149,59.416893005371094,72.29659271240234,,,110.75322723388672,101.79939270019531
05-14,25.654052734375,34.627967834472656,,45.87432479858398,50.25827407836914,60.59382629394531,60.22968292236328,,,90.4517593383789,110.92996978759766,101.83914947509766
05-15,25.595600128173828,,,45.35712432861328,50.58857345581055,59.86792755126953,60.22043991088867,,78.90318298339844,89.22144317626953,111.18523406982422,100.88497161865234
05-16,,,45.60479354858398,44.953861236572266,50.49930953979492,60.013099670410156,,72.70048522949219,79.05595397949219,90.61644744873048,112.03945922851562,
05-17,,34.98435592651367,44.81196212768555,43.95448684692383,50.94563674926758,,,70.82193756103516,78.5689468383789,90.37423706054688,111.71544647216795,
05-18,25.887887954711914,34.212196350097656,45.87194061279297,43.56877136230469,,,60.64531326293945,70.68102264404297,78.43524932861328,90.63581085205078,,103.51891326904295
05-19,26.105010986328125,34.16128158569336,45.66511917114258,,,60.457725524902344,61.04246520996094,70.30530548095703,78.64534759521484,,,103.1014633178711
05-20,25.921281814575195,33.00730514526367,45.26007843017578,,50.93671417236328,59.71367645263672,60.46057891845703,70.75617218017578,,,110.98887634277344,103.77734375
05-21,25.67076110839844,32.84608840942383,,44.32268905639648,50.874229431152344,59.90422058105469,59.961830139160156,,,91.07176208496094,111.42089080810548,104.45320892333984
05-22,25.62065315246582,,,44.3489875793457,50.53500747680664,59.81348037719727,59.57390594482422,,79.10369110107422,91.02330780029295,111.0968780517578,104.46315002441406
05-23,,,44.43278503417969,44.752235412597656,50.606422424316406,59.87701416015625,,70.24895477294922,79.43791198730469,91.14923095703124,110.91032409667969,
05-24,,32.72729110717773,44.35522079467773,44.76100540161133,50.18686294555664,,,71.74242401123047,79.62889862060547,91.09111785888672,110.88086700439452,
05-25,,32.438796997070305,44.86366653442383,44.36652374267578,,,,71.71421813964844,80.35462951660156,91.13956451416016,,
05-26,26.41398429870605,32.72729110717773,44.79471969604492,,,,59.084388732910156,71.78938293457031,80.56468963623047,,,108.88619232177734
05-27,25.63735389709473,33.898250579833984,45.01014709472656,,,59.8406982421875,59.55542755126953,72.45626068115234,,,,111.8680191040039
05-28,25.4285831451416,33.82187271118164,,,50.4100341796875,59.84978866577149,59.56467056274414,,,,110.8514175415039,110.92376708984376
05-29,25.8962345123291,,,44.45418930053711,50.23149871826172,60.2218017578125,58.89965438842773,,,90.39362335205078,110.65504455566406,110.7150421142578
05-30,,,,43.71780776977539,51.09740447998047,60.42141723632813,,,80.72701263427734,91.02330780029295,111.4503402709961,
05-31,,,46.01842498779297,44.41911315917969,50.63320541381836,,,72.56900024414062,81.17581939697266,89.4345703125,111.21469116210938,
06-01,26.86494255065918,33.14307403564453,44.91537094116211,44.0596923828125,,,59.01972961425781,72.52202606201172,82.36946105957031,89.8705062866211,,110.7448501586914
06-02,27.441150665283203,33.81339263916016,44.7861213684082,,,60.339759826660156,59.06591033935547,72.65353393554688,82.43627166748047,,,111.3909149169922
06-03,27.391048431396484,33.762489318847656,44.07946014404297,,50.74924850463867,60.08570098876953,59.24139785766602,72.51261901855469,,,111.96090698242188,112.59358215332031
06-04,27.43280601501465,32.633956909179695,,44.0246467590332,50.50822448730469,60.04032516479492,59.03818893432617,,,90.92643737792969,113.62024688720705,111.4604949951172
06-05,27.09041404724121,,,44.18242645263672,49.79408264160156,60.36697769165039,59.37070846557617,,81.9779281616211,90.98455810546876,115.00465393066406,112.71286010742188
06-06,,,43.56240463256836,45.21685791015625,50.24041366577149,60.89325332641602,,72.4093017578125,81.62461853027344,90.9748764038086,118.04842376708984,
06-07,,32.260604858398445,43.838157653808594,45.53245162963867,50.883155822753906,,,72.78501892089844,81.82515716552734,90.32582092285156,119.7077407836914,
06-08,27.349294662475586,32.243640899658196,43.60547637939453,45.93570327758789,,,58.88117980957031,73.00105285644531,81.4050064086914,90.73269653320312,,112.89176940917969
06-09,27.57477188110352,31.921201705932614,44.02776336669922,,,61.00214004516602,59.25064086914063,73.06681060791016,81.78695678710938,,,111.78849792480469
06-10,27.83365249633789,32.75275421142578,43.43313598632813,,51.052772521972656,60.91139221191406,59.33375549316406,73.451904296875,,,120.98416137695312,110.9635238647461
06-11,28.418214797973636,33.20247268676758,,45.38341522216797,50.74924850463867,60.43049240112305,59.83251571655274,,,90.88768768310548,120.35577392578124,103.61830139160156
06-12,28.40987205505371,,,45.90939331054688,50.03509521484375,59.97682189941406,59.64779663085938,,81.58643341064453,91.20738220214844,119.4131851196289,104.7215805053711
06-13,,,44.337989807128906,45.55874252319336,51.14202880859375,60.25808334350586,,72.1181411743164,82.29306030273438,91.37205505371094,118.5295181274414,
06-14,,33.083675384521484,44.467262268066406,45.91815567016602,50.91885757446289,,,71.79878997802734,82.35990142822266,91.89519500732422,117.91094970703124,
06-15,27.80024337768555,34.076446533203125,43.596866607666016,45.82174682617188,,,59.36146545410156,71.68605041503906,82.34080505371094,91.95330047607422,,104.77127838134766
06-16,27.541370391845703,34.492225646972656,43.66580581665039,,,59.55941390991211,59.943359375,71.8551254272461,82.07343292236328,,,106.73927307128906
06-17,27.67498207092285,34.356449127197266,43.50206756591797,,51.00813674926758,60.18550491333008,59.86022567749024,71.71421813964844,,,117.98949432373048,106.2621841430664
06-18,27.54972267150879,34.38190078735352,,46.12855529785156,51.18667221069336,59.94958877563477,60.28509521484375,,,91.87580871582031,117.32183074951172,106.3416976928711
06-19,27.48290634155273,,,45.96200180053711,50.52606964111328,60.5030746459961,60.30358123779297,,82.83734893798828,91.30425262451172,117.24329376220705,106.94800567626952
06-20,,,43.64857864379883,45.79545211791992,49.38344192504883,60.457725524902344,,72.90711975097656,82.97103881835938,91.68206787109376,117.6360321044922,
06-21,,34.02552032470703,44.208717346191406,44.8223762512207,49.12456512451172,,,72.96348571777344,83.07606506347656,90.190185546875,117.21383666992188,
06-22,26.73967933654785,33.092147827148445,44.02776336669922,45.33959579467773,,,60.49752807617188,73.55522918701172,82.9041748046875,89.73487854003906,,106.89830780029295
06-23,26.898345947265625,32.74427032470703,43.795082092285156,,,60.23994445800781,60.20197677612305,75.27410888671875,82.88507843017578,,,106.78897094726562
06-24,26.923397064208984,32.56607818603516,43.61409378051758,,48.9460334777832,59.88606643676758,59.52772903442383,72.08995819091797,,,116.62471771240234,105.29806518554688
06-25,27.5246639251709,32.87154006958008,,44.45418930053711,48.97279739379883,60.23994445800781,59.37070846557617,,,89.2989501953125,118.86333465576172,106.94800567626952
06-26,27.85870742797852,,,44.34023666381836,49.06207275390625,60.16735076904297,59.55542755126953,,83.20975494384766,89.81237030029297,117.07637786865234,107.06727600097656
06-27,,,43.98467254638672,44.47172164916992,49.463783264160156,60.80250549316406,,70.07049560546875,82.4744873046875,89.22144317626953,119.3444595336914,
06-28,,33.29580307006836,44.48448181152344,44.29639434814453,49.28525161743164,,,71.09432983398438,83.00923156738281,89.81237030029297,122.08382415771484,
06-29,28.217796325683594,32.421825408935554,44.846435546875,44.752235412597656,,,58.87195205688477,72.06177520751953,82.58906555175781,90.46143341064452,,108.58800506591795
06-30,28.20108795166016,32.090904235839844,45.10496520996094,,,60.80250549316406,58.89965438842773,74.32543182373047,82.94239044189453,,,111.3014678955078
07-01,28.485027313232425,31.921201705932614,45.88054656982422,,49.94583511352539,61.25620651245117,58.97355651855469,74.36300659179688,,,122.01510620117188,111.7984390258789
07-02,28.10087585449219,32.26908493041992,,45.39218521118164,49.81193161010742,60.55751419067383,58.91812515258789,,,90.66488647460938,121.29835510253906,114.27334594726562
07-03,,,,46.049659729003906,49.88334655761719,60.76622772216797,,,83.15247344970703,91.05238342285156,123.6351547241211,
07-05,,,45.81161880493164,46.02337265014648,50.54393768310547,,,73.94033813476562,83.35298919677734,91.58516693115234,122.34893798828124,
07-06,27.68332862854004,31.68362045288086,46.68199157714844,45.11165618896485,,,58.964317321777344,73.95912170410156,83.37208557128906,91.13956451416016,,114.56159210205078
07-07,27.19062423706055,32.676387786865234,46.82849502563477,,,60.26717758178711,59.3891830444336,73.72429656982422,84.11690521240234,,,114.45225524902344
07-08,27.05701446533203,33.12609100341797,46.716468811035156,,50.79388046264648,60.10384368896485,58.5948600769043,74.94537353515625,,,121.7401885986328,112.2457046508789
07-09,27.073715209960934,33.287322998046875,,43.5863151550293,51.5973014831543,60.176429748535156,58.56714630126953,,,92.127685546875,121.81873321533205,113.0706787109375
07-10,27.31589698791504,,,43.36715316772461,51.85618591308594,60.12200546264648,58.8165283203125,,84.31743621826172,93.10612487792969,121.3376235961914,114.2534637451172
07-11,,,46.07876968383789,43.15676498413086,52.95418167114258,60.20366287231445,,75.33048248291016,84.19329071044922,92.6895523071289,121.76963806152344,
07-12,,33.16852188110352,46.00982666015625,42.998966217041016,53.248779296875,,,75.5277099609375,84.9667739868164,92.74766540527344,121.17070770263672,
07-13,27.825284957885746,34.57706451416016,45.88916778564453,43.69150924682617,,,59.35223007202149,75.35865783691406,84.63255310058594,91.90486907958984,,112.74267578125
07-14,27.83365249633789,34.517662048339844,45.26007843017578,,,60.376060485839844,59.05666732788086,75.32109069824219,85.396484375,,,115.605224609375
07-15,29.228252410888672,34.500701904296875,45.38074493408203,,53.34696578979492,60.63011932373047,59.05666732788086,75.06746673583984,,,120.6895980834961,117.1855926513672
07-16,29.846229553222656,33.796436309814446,,43.51617050170898,53.05238723754883,60.20366287231445,59.3891830444336,,,90.37423706054688,120.9252471923828,116.5295867919922
07-17,29.34516716003418,,,43.67398071289063,53.00775909423828,59.00593948364258,59.047447204589844,,85.74024200439453,91.68206787109376,121.2885284423828,118.67650604248048
07-18,,,44.493106842041016,44.10353469848633,53.409461975097656,59.93146133422852,,75.05809020996094,85.6924819946289,91.6626968383789,122.10347747802734,
07-19,,33.70308303833008,46.13909530639648,44.45418930053711,53.18628311157226,,,74.78569793701172,86.02670288085938,93.3192367553711,121.160888671875,
07-20,29.913028717041016,34.16128158569336,45.73403930664063,43.92819595336914,,,59.07513809204102,75.4244155883789,85.6542739868164,92.78643035888672,,118.56716918945312
07-21,29.729291915893555,34.144317626953125,45.81161880493164,,,59.34165573120117,58.26234817504883,75.08625030517578,85.47286224365234,,,117.46389770507812
07-22,29.837879180908203,35.6716423034668,45.70819854736328,,53.23984909057617,57.82635879516602,58.18846893310547,75.57467651367188,,,120.9252471923828,117.78195190429688
07-23,30.138505935668945,36.2316780090332,,43.638916015625,53.1773681640625,57.77190780639648,57.68970108032226,,,92.16641998291016,122.25074768066406,117.72232055664062
07-24,30.113452911376953,,,42.73597717285156,52.40072250366211,57.88080215454102,57.03392791748047,,85.73161315917969,91.78862762451172,121.05288696289062,118.1298370361328
07-25,,,45.44105529785156,43.26195907592773,52.07936096191406,57.61767196655274,,75.37670135498047,84.99369812011719,91.76925659179688,120.6895980834961,
07-26,,36.88501739501953,45.29454803466797,43.66521835327149,51.7222671508789,,,75.70669555664062,84.38994598388672,93.0673599243164,122.23110961914062,
07-27,29.559986114501953,36.75774002075195,44.35522079467773,44.401588439941406,,,56.95043563842773,75.15984344482422,84.33246612548828,99.68389129638672,,119.12377166748048
07-28,29.325197219848636,36.689857482910156,44.15701675415039,,,57.33513641357422,57.80403518676758,74.83930969238281,78.87960052490234,,,117.68819427490234
07-29,29.03168487548828,36.47773742675781,44.18297958374024,,52.43952941894531,57.0799446105957,61.56175994873047,73.70796203613281,,,122.67294311523438,118.44586181640624
07-30,29.333580017089844,36.69927597045898,,44.25255584716797,52.349876403808594,56.60602188110352,62.62876510620117,,,99.29640197753906,121.91473388671876,117.54862213134766
07-31,29.28325843811035,,,43.84053802490234,52.349876403808594,55.6855354309082,62.897850036621094,,77.55712127685547,99.55883026123048,119.16744232177734,114.846923828125
08-01,,,44.13971328735352,43.14800262451172,53.712646484375,55.71287155151367,,72.91600036621094,79.07128143310547,99.55883026123048,115.76041412353516,
08-02,,37.09123611450195,43.20497512817383,42.57819366455078,54.223670959472656,,,72.22776794433594,78.82210540771484,100.09341430664062,116.21337127685548,
08-03,29.92057800292969,37.01455307006836,42.92802810668945,43.88436508178711,,,62.42465209960938,72.2371826171875,78.82210540771484,101.1820297241211,,118.29632568359376
08-04,30.096660614013672,37.1508903503418,41.05858612060547,,,55.94071578979492,63.027748107910156,72.3880386352539,78.9275131225586,,,118.2564468383789
08-05,29.80316925048828,37.19349670410156,41.31822967529297,,53.76642608642578,55.56704330444336,63.84420776367188,72.20890808105469,,,115.28775787353516,117.99724578857422
08-06,29.425817489624023,37.29573822021485,,43.81423568725586,53.318153381347656,56.068321228027344,63.43598556518555,,,101.28893280029295,117.8873519897461,117.29939270019531
08-07,29.61869239807129,,,44.069583892822266,53.34504699707031,56.12298965454102,63.82567596435547,,79.29167938232422,100.64744567871094,119.79764556884766,118.88451385498048
08-08,,,39.17182159423828,43.95512771606445,54.0981559753418,56.83386611938477,,71.81291961669922,79.29167938232422,100.073974609375,120.9891357421875,
08-09,,37.29573822021485,41.101844787597656,43.875885009765625,53.90090560913086,,,71.63380432128906,79.04252624511719,100.98761749267578,119.22652435302734,
08-10,29.350341796875,36.793006896972656,39.30165100097656,43.928707122802734,,,64.87410736083984,71.86006164550781,78.1129379272461,99.51022338867188,,116.64141082763672
08-11,29.78640556335449,35.676788330078125,40.98067855834961,,,56.65159225463867,64.18753814697266,71.74691772460938,78.71666717529297,,,116.3822021484375
08-12,29.945735931396484,35.770511627197266,41.370155334472656,,53.99056625366211,56.82476043701172,63.81639099121094,71.25668334960938,,,118.20244598388672,117.72806549072266
08-13,30.16377067565918,35.65973663330078,,44.0079460144043,54.10712051391602,57.51741409301758,64.04835510253906,,,98.55770111083984,119.36438751220705,118.15674591064452
08-14,29.72769927978516,,,43.9991569519043,54.07125854492188,57.54474258422852,64.82772827148439,,79.45458984375,99.12144470214844,117.26698303222656,118.12683868408205
08-15,,,41.90675735473633,44.34253692626953,53.07606887817383,57.69056701660156,,71.18123626708984,79.30126953125,98.4993667602539,116.51862335205078,
08-16,,35.676788330078125,41.52594375610352,44.6067008972168,53.156776428222656,,,70.8606948852539,80.06792449951172,98.8201141357422,118.40924072265624,
08-17,29.123920440673828,36.33288192749024,41.34419631958008,44.57148742675781,,,65.03185272216797,71.45466613769531,78.70709228515625,99.87957763671876,,117.88758087158205
08-18,29.25810241699219,36.25618743896485,39.91614532470703,,,58.03689575195313,64.79062652587889,72.4351806640625,78.72625732421875,,,117.51870727539062
08-19,29.53483390808105,35.70235061645508,40.38351440429688,,53.11194610595703,58.447021484375,64.12257385253906,72.3880386352539,,,118.37969207763672,117.3292999267578
08-20,29.59353065490723,35.838680267333984,,44.52745819091797,53.20159530639648,58.10069274902344,63.15762329101562,,,99.97677612304688,117.0602035522461,117.18972778320312
08-21,29.878644943237305,,,44.35134887695313,52.807106018066406,58.2647476196289,62.730812072753906,,78.0937728881836,100.39472198486328,117.5033187866211,117.43896484375
08-22,,,40.40947723388672,44.76519393920898,53.42573547363281,57.982215881347656,,72.68971252441406,78.697509765625,100.28781127929688,118.69478607177734,
08-23,,35.5063591003418,41.39612579345703,44.483436584472656,53.64986801147461,,,72.91600036621094,78.20877075195312,100.0253677368164,118.41908264160156,
08-24,29.769634246826172,34.92694091796875,41.77692794799805,44.74757766723633,,,61.37620544433594,73.14226531982422,77.70086669921875,100.89044189453124,,118.74494171142578
08-25,29.76125717163086,34.99510955810547,40.989349365234375,,,58.07336044311523,60.81021499633789,73.60424041748047,78.95626831054688,,,117.7679443359375
08-26,29.49290657043457,34.892860412597656,41.97599411010742,,53.85607528686523,58.292076110839844,61.89577102661133,73.9813461303711,,,119.13790130615234,118.23650360107422
08-27,29.425817489624023,35.796077728271484,,44.47462844848633,52.672630310058594,58.32854461669922,62.77722930908203,,,101.60968780517578,119.6400909423828,119.68206787109376
08-28,29.157472610473636,,,44.888465881347656,52.7264289855957,58.34677124023438,62.82361221313477,,78.44833374023438,100.97789764404295,119.99457550048828,117.7679443359375
08-29,,,43.36941909790039,44.83563232421875,53.08503723144531,58.46525573730469,,74.27362823486328,78.58252716064453,101.76519012451172,119.8271942138672,
08-30,,34.92694091796875,43.54251480102539,44.43940353393555,52.7264289855957,,,74.18878936767578,79.5120849609375,101.76519012451172,120.34906768798828,
08-31,28.830421447753906,35.48933029174805,43.68965530395508,44.59788513183594,,,62.498878479003906,73.51937866210938,80.12541961669922,101.77490997314452,,118.02715301513672
09-01,28.629159927368164,36.43513488769531,42.58182907104492,,,,61.05145645141602,73.50996398925781,80.38416290283203,,,119.13375091552734
09-02,28.49499320983887,36.818580627441406,41.53459167480469,,,58.8206787109375,61.68238067626953,74.63188171386719,,,,121.88529205322266
09-03,28.629159927368164,37.36389923095703,,,52.33193969726562,58.48347473144531,62.51742935180664,,,,117.81842041015624,118.80475616455078
09-04,28.76333999633789,,,44.90607070922852,52.55607986450195,59.00295639038086,62.41537475585938,,,103.39810943603516,120.0733642578125,118.35614013671876
09-05,,,,44.56267166137695,52.43952941894531,59.42220306396485,,,79.78042602539062,105.14764404296876,119.34468841552734,
09-06,,,41.162445068359375,44.729976654052734,52.45746231079102,,,74.91474151611328,79.3970947265625,105.89605712890624,119.0295867919922,
09-07,,37.13384246826172,41.984657287597656,45.33752822875977,,,,75.6972427368164,80.12541961669922,104.87549591064452,,
09-08,29.308406829833984,37.38094711303711,42.27891159057617,,,58.975624084472656,63.11124038696289,74.67903137207031,80.32667541503906,,,115.70429229736328
09-09,29.49290657043457,37.47468185424805,41.61248779296875,,53.03125762939453,58.21916961669922,62.88855361938477,73.02912139892578,,,117.2768325805664,117.52867889404295
09-10,29.57676124572754,37.50023651123047,,45.00293731689453,53.33608627319336,57.90930557250977,62.08134078979492,,,105.51700592041016,117.28668212890624,116.8308334350586
09-11,29.752870559692386,,,45.07338333129883,53.3540153503418,58.13715362548828,62.535987854003906,,81.5724868774414,105.47811889648438,116.81402587890624,117.99724578857422
09-12,,,41.43939971923828,45.15260696411133,53.03125762939453,57.14373779296875,,74.0190658569336,81.64915466308594,106.32373809814452,116.24291229248048,
09-13,,38.07112884521485,41.97599411010742,45.90985107421875,52.905738830566406,,,73.10455322265625,80.97833251953125,107.7136459350586,116.58755493164062,
09-14,30.10506820678711,38.30972290039063,42.60779571533203,46.191612243652344,,,61.90505599975586,72.94429779052734,81.33291625976562,108.8314208984375,,118.71503448486328
09-15,30.85978507995605,38.95730209350586,42.9713134765625,,,57.19841766357422,63.47309875488281,73.44396209716797,81.17957305908203,,,117.96733856201172
09-16,31.1197509765625,38.89766311645508,42.60779571533203,,54.0802116394043,57.04349136352539,64.05760955810547,73.16111755371094,,,114.69694519042969,117.40904998779295
09-17,30.977205276489254,38.5738639831543,,46.1387825012207,53.3540153503418,56.04097366333008,63.48236846923828,,,108.1801986694336,115.21882629394531,115.60459899902344
09-18,30.77594947814941,,,45.87463760375977,53.99056625366211,56.14122772216797,62.30403137207031,,81.87915802001953,108.46206665039062,116.48908233642578,114.68741607666016
09-19,,,41.9932975769043,46.14759826660156,53.89194869995117,55.74020767211914,,74.11335754394531,81.99414825439453,108.01495361328124,116.04596710205078,
09-20,,38.590904235839844,41.65578079223633,46.38533401489258,54.00849914550781,,,74.21705627441406,82.53081512451172,107.39289093017578,116.24291229248048,
09-21,30.985576629638672,38.07965087890625,40.40081787109375,46.37651824951172,,,62.74938201904297,73.93421936035156,82.55956268310547,107.2276611328125,,113.10228729248048
09-22,31.11136054992676,37.87516403198242,39.63917541503906,,,55.77667236328125,61.923606872558594,74.91474151611328,82.14747619628906,,,113.9795913696289
09-23,31.32940673828125,37.61101531982422,39.94210052490234,,54.15193557739258,55.53970336914063,61.86793518066406,74.28304290771484,,,116.29214477539062,111.79630279541016
09-24,30.8681697845459,38.19894790649414,,46.3589096069336,54.16090774536133,55.5943832397461,60.86588668823242,,,107.28597259521484,116.69586181640624,111.91593933105469
09-25,30.507587432861328,,,45.77777099609375,54.02642440795898,55.44856643676758,60.80093765258789,,83.14413452148438,105.7114028930664,117.2965316772461,111.75642395019531
09-26,,,40.686424255371094,45.619300842285156,54.304359436035156,55.94071578979492,,73.59481048583984,83.13455200195312,105.55587005615234,117.09959411621094,
09-27,,38.00297546386719,41.21436309814453,45.45199584960938,53.47952651977539,,,73.29312133789062,82.93331909179688,105.30315399169922,116.85342407226562,
09-28,31.321014404296875,38.7101936340332,39.50938034057617,45.531227111816406,,,59.52054214477539,74.11335754394531,83.45081329345703,104.71998596191406,,112.01563262939452
09-29,31.346174240112305,38.82097244262695,40.21906280517578,,,56.27792739868164,60.25351333618164,72.79344177246094,82.712890625,,,112.27483367919922
09-30,31.32940673828125,38.91468048095703,38.66118240356445,,53.90987014770508,55.32098007202149,61.19992065429688,72.98199462890625,,,116.63677215576172,112.8530502319336
10-01,30.54113006591797,38.58238220214844,,45.557655334472656,54.77057266235352,54.00857925415039,62.38751983642578,,,104.7491455078125,115.86872100830078,113.35152435302734
10-02,30.289554595947266,,,45.67212295532226,54.04435729980469,54.07238006591797,63.074134826660156,,84.21746826171875,105.11849212646484,113.58424377441406,112.5041275024414
10-03,,,37.03408432006836,45.81299591064453,53.551246643066406,54.78326034545898,,72.93486022949219,84.7445297241211,104.9727020263672,113.22975158691406,
10-04,,38.676116943359375,38.643890380859375,46.05953979492188,53.90987014770508,,,71.74691772460938,84.46662139892578,104.08819580078124,115.53392791748048,
10-05,30.784320831298828,39.57080459594727,39.51802062988281,46.288475036621094,,,63.47309875488281,71.75634765625,84.46662139892578,104.16596221923828,,114.19892120361328
10-06,30.884952545166016,39.54525375366211,40.22770690917969,,,54.89262008666992,62.79578399658203,72.25601959228516,84.88827514648438,,,114.2088851928711
10-07,31.08620834350586,39.33222961425781,39.76901245117188,,54.02642440795898,53.72605514526367,63.72359848022461,71.31324768066406,,,114.77571868896484,114.62760162353516
10-08,31.312633514404297,39.57080459594727,,46.14759826660156,53.88297653198242,54.61009979248047,64.60507202148439,,,104.65194702148438,113.02296447753906,116.16287994384766
10-09,31.849313735961914,,,45.50482177734375,53.587120056152344,53.37062454223633,65.18958282470703,,84.77327728271484,102.7566146850586,114.69694519042969,116.45198822021484
10-10,,,40.88548278808594,45.07338333129883,54.627113342285156,52.4045524597168,,71.60550689697266,84.78286743164062,99.54910278320312,114.52954864501952,
10-11,,39.82643508911133,41.26630401611328,45.14381408691406,55.09333038330078,,,70.7758560180664,84.6774673461914,98.7229232788086,114.54924774169922,
10-12,31.82415580749512,39.783836364746094,42.15774536132813,45.10859298706055,,,65.47721862792969,71.33209991455078,84.80204010009766,98.80068969726562,,117.67822265625
10-13,31.899627685546875,40.10761260986328,41.7509651184082,,,51.20153045654297,65.09682464599611,71.2660903930664,85.137451171875,,,117.19969177246094
10-14,32.612415313720696,40.039466857910156,42.0971565246582,,55.51470565795898,51.39291000366211,64.64216613769531,71.6809310913086,,,114.07657623291016,116.0831298828125
10-15,31.6145133972168,39.84347152709961,,45.30231475830078,54.90505599975586,51.62076187133789,64.66074371337889,,,99.28667449951172,113.4168472290039,115.98342895507812
10-16,31.438425064086914,,,45.88343811035156,55.27264022827149,52.541259765625,64.79988861083984,,85.23328399658203,102.63997650146484,113.70240783691406,115.99340057373048
10-17,,,41.11051940917969,46.66708374023438,56.25884628295898,53.498207092285156,,71.84120178222656,85.27162170410156,102.07623291015624,114.76587677001952,
10-18,,39.90312957763672,42.03657531738281,46.43815994262695,56.65333557128906,,,72.02034759521484,84.90746307373047,101.34722900390624,115.97703552246094,
10-19,31.471942901611328,39.51968383789063,41.1191635131836,46.08595657348633,,,64.93906402587889,72.10519409179688,84.94578552246094,101.3958511352539,,114.79708099365234
10-20,31.08620834350586,40.380279541015625,41.49998474121094,,,54.71946716308594,65.40299987792969,71.62435150146484,85.48245239257812,,,116.60153198242188
10-21,30.70885467529297,38.34381484985352,41.96733856201172,,56.97609329223633,55.822242736816406,64.82772827148439,72.74629211425781,,,116.09521484375,117.37914276123048
10-22,31.170055389404297,38.38640975952149,,46.29728317260742,57.59471130371094,55.22072219848633,66.14524841308594,,,101.05564880371094,114.87419128417969,117.94739532470705
10-23,30.99395751953125,,,45.531227111816406,56.79677963256836,56.30527114868164,66.24732208251953,,85.31953430175781,100.77378845214844,115.57332611083984,117.98727416992188
10-24,,,42.91070938110352,45.27589797973633,56.98505401611328,56.43286514282226,,72.59544372558594,85.4057846069336,97.2747039794922,115.54377746582031,
10-25,,38.55683135986328,41.846168518066406,45.17023468017578,57.63058090209961,,,72.59544372558594,84.80204010009766,98.45079040527344,116.07551574707031,
10-26,31.08658790588379,38.46309661865234,42.36547088623047,45.4784049987793,,,66.154541015625,71.90721893310547,85.23328399658203,97.54684448242188,,117.0999984741211
10-27,30.53928565979004,38.4886474609375,42.64241790771485,,,55.02021408081055,65.82979583740234,71.91664123535156,84.265380859375,,,115.6500015258789
10-28,29.83200263977051,38.5398063659668,42.52124786376953,,57.53194808959961,55.822242736816406,66.66485595703125,68.84311676025389,,,116.39060974121094,112.33999633789062
10-29,30.0930233001709,38.24155807495117,,,57.38850402832031,55.62173461914063,67.11947631835939,,,97.35245513916016,117.0523681640625,112.94000244140624
10-30,29.730960845947266,,,,56.98505401611328,56.241477966308594,68.25142669677734,,82.85663604736328,98.86414337158205,117.78327178955078,114.08999633789062
10-31,,,41.51728439331055,45.15260696411133,57.52299880981445,56.72451782226562,,67.64997863769531,83.7511978149414,99.43955993652344,116.69680786132812,
11-01,,38.33566284179688,39.98537063598633,46.78157043457031,57.280921936035156,,,66.87345886230469,84.0782470703125,100.62938690185548,109.42732238769531,
11-02,29.4110050201416,38.42122268676758,40.88548278808594,43.57649993896485,,,70.54326629638672,67.15753173828125,83.29910278320312,101.23406982421876,,118.19000244140624
11-03,29.638347625732425,38.549537658691406,42.28756713867188,,,56.51394271850586,69.64889526367189,67.11019134521484,83.62614440917969,,,119.55999755859376
11-04,29.486785888671875,39.54192733764648,42.20101165771485,,57.67695236206055,57.04492568969727,68.22349548339844,67.62154388427734,,,107.3333969116211,119.0500030517578
11-05,30.025672912597656,39.71304702758789,,43.930267333984375,57.40693664550781,58.262550354003906,68.42842864990234,,,99.36151885986328,107.32352447509766,122.91000366210938
11-06,29.84042358398437,,,44.36366271972656,57.9379768371582,58.40903091430664,68.25144195556639,,82.57769775390625,101.5266571044922,108.14331817626952,123.5999984741211
11-07,,,42.17494583129883,43.2669563293457,57.07391738891602,59.29705810546875,,70.38663482666016,82.45265197753906,102.51168060302734,108.05442810058594,
11-08,,39.64459609985352,42.087989807128906,42.69205856323242,57.829978942871094,,,71.72183990478516,82.46227264404297,102.53118896484376,107.65933990478516,
11-09,30.337202072143555,39.601829528808594,41.01863479614258,42.47095489501953,,,67.49681854248047,71.12525939941406,81.52925109863281,101.7119598388672,,123.16999816894531
11-10,30.26984405517578,40.07236099243164,41.29682922363281,,,60.01115798950195,68.04647827148439,67.64048004150389,81.67353057861328,,,127.61000061035156
11-11,30.27826690673828,39.88412857055664,42.25318145751953,,58.25300979614258,59.74567031860352,68.06510162353516,68.0382080078125,,,107.24449920654295,125.2699966430664
11-12,29.975139617919922,39.3622932434082,,42.35597229003906,57.9649887084961,59.66326522827149,65.95963287353516,,,99.25424194335938,106.88893127441406,124.2699966430664
11-13,30.311952590942386,,,41.701473236083984,58.58604049682617,59.46185302734375,66.63040924072266,,82.32760620117188,99.84917449951172,108.27172088623048,
11-14,,,41.888038635253906,40.71975326538086,58.43301773071289,59.35200119018555,,69.61013031005861,82.34683227539062,99.55657958984376,109.11125946044922,
11-15,,39.3793830871582,42.24449157714844,40.50748825073242,58.45102310180664,,,69.48703765869139,82.22178649902344,102.19960021972656,108.60752868652344,
11-16,30.90976333618164,38.74629974365234,42.061927795410156,40.8524169921875,,,67.17074584960939,69.66695404052734,82.8277816772461,103.65276336669922,,
11-17,31.07816505432129,38.79763793945313,41.47941589355469,,,59.94707489013672,67.04961395263672,69.67642211914061,82.38532257080078,,,
11-18,30.817148208618164,38.900291442871094,41.757625579833984,,58.30701446533203,59.49848175048828,68.40983581542969,69.74270629882811,,,108.98284912109376,
11-19,30.65716361999512,38.99440383911133,,41.51575088500977,57.95597839355469,59.35200119018555,68.64271545410156,,,102.57994842529295,109.1408920288086,
11-20,30.59821128845215,,,41.54228210449219,57.50593948364258,59.27875900268555,69.21103668212889,,82.21219635009766,101.73146057128906,109.33843231201172,
11-21,,,41.25336837768555,41.52457809448242,57.6949577331543,59.59919357299805,,70.30141448974611,83.24140930175781,100.94148254394531,109.93106079101562,
11-22,,39.3708381652832,41.583740234375,,57.78496932983398,,,71.4850845336914,82.57769775390625,,108.76557159423828,
11-23,30.884506225585934,38.88318252563477,40.792579650878906,42.11716079711914,,,68.80110168457031,72.0154037475586,,101.33159637451172,,
11-24,30.74135398864746,39.75581359863281,,,,59.81889724731445,69.20170593261719,,82.96245574951172,,,
11-25,31.002389907836914,,40.43612289428711,,57.820960998535156,59.75481796264648,69.75138092041016,72.0343246459961,,,109.5853500366211,
11-26,,39.65315246582031,,42.26752471923828,57.9379768371582,59.77312850952149,,,,101.12677764892578,111.17554473876952,
11-27,30.236167907714844,,,41.842994689941406,58.46001052856445,,69.88180541992189,,83.43377685546875,99.77114868164062,111.4422378540039,
11-28,,,41.87065505981445,42.08179473876953,,59.73650360107422,,72.4131088256836,83.59729766845703,101.4583740234375,,
11-29,,39.25960922241211,42.27056884765625,42.24983596801758,58.43301773071289,,,71.6650161743164,84.22250366210938,101.28282928466795,110.740966796875,
11-30,30.41299057006836,39.07138442993164,44.15719604492188,42.16138458251953,,,69.38803863525389,69.29763793945311,85.04011535644531,101.4778823852539,,
12-01,30.57296943664551,40.07236099243164,43.97462463378906,,,59.59919357299805,69.84453582763672,70.14990234375,84.260986328125,,,
12-02,30.70768928527832,40.64554977416992,44.296295166015625,,58.47801971435547,59.82806015014648,68.87562561035156,70.40557861328125,,,110.63232421875,
12-03,30.362462997436523,41.25297546386719,,41.52457809448242,57.7939682006836,60.816810607910156,68.43778228759766,,,101.87775421142578,111.3237075805664,
12-04,30.758197784423828,,,41.63957595825195,57.43393325805664,60.94496154785156,69.26692199707031,,84.70345306396484,100.39532470703124,110.40514373779295,
12-05,,,44.55712127685547,41.78992080688477,57.67695236206055,60.66118240356445,,69.48703765869139,85.60763549804688,,110.57305145263672,
12-06,,40.65411376953125,44.0876350402832,42.17023468017578,58.22601318359375,,,69.88475799560547,84.80925750732422,99.11770629882812,110.7014617919922,
12-07,30.85080909729004,40.44878387451172,44.04415512084961,42.18793869018555,,,69.14581298828125,69.58174133300781,85.01126861572266,97.3036880493164,,
12-08,30.884506225585934,39.952579498291016,43.34862518310547,,,60.313270568847656,68.56818389892578,70.26352691650389,84.54955291748047,,,
12-09,30.90976333618164,39.99535369873047,44.105018615722656,,58.13600158691406,60.66118240356445,68.083740234375,70.78436279296875,,,111.24468994140624,
12-10,30.57296943664551,40.26058578491211,,42.25867080688477,57.85697555541992,59.86468505859375,68.40983581542969,,,96.66000366210938,110.5631866455078,
12-11,30.80030059814453,,,42.22330856323242,56.89389038085938,60.13017654418945,67.87879943847656,,83.95319366455078,96.23087310791016,111.1854248046875,
12-12,,,43.41819381713867,42.07294464111328,57.064918518066406,59.17805862426758,,70.65177917480469,83.13558959960938,97.45973205566406,112.775634765625,
12-13,,40.11512756347656,43.17474365234375,41.74571228027344,57.334938049316406,,,70.42452239990234,83.38568115234375,97.84009552001952,112.5682144165039,
12-14,30.766632080078125,40.00391387939453,42.59226989746094,41.4980583190918,,,67.58998107910156,69.17454528808594,83.077880859375,97.8595962524414,,
12-15,30.867664337158203,39.918365478515625,43.40949249267578,,,58.46395492553711,68.06510162353516,69.08932495117189,83.66462707519531,,,
12-16,30.943443298339844,40.55999374389648,44.49625778198242,,57.9379768371582,58.4273452758789,68.42842864990234,69.06089782714844,,,112.91390228271484,
12-17,30.48875999450684,40.30334854125977,,41.90490341186523,58.02798461914063,59.74567031860352,67.31980895996094,,,96.20162963867188,111.9558334350586,
12-18,30.25300598144531,,,42.06411361694336,58.57703399658203,60.9815902709961,66.24843597412111,,83.27024841308594,95.5189208984375,111.6891632080078,
12-19,,,43.47903823852539,42.51516342163086,58.30701446533203,61.45764541625977,,69.88475799560547,83.27986907958984,93.22702026367188,111.86695098876952,
12-20,,40.50867462158203,45.37435531616211,42.62130737304688,58.829063415527344,,,70.05521392822266,83.03938293457031,92.6613540649414,113.54603576660156,
12-21,30.471927642822266,40.577110290527344,45.40044021606445,42.24098587036133,,,66.76082611083984,69.46809387207031,82.49112701416016,91.2374496459961,,
12-22,30.564542770385746,41.03054428100586,45.37435531616211,,,61.42103576660156,67.36640167236328,69.14614105224611,82.62580871582031,,,
12-23,30.45508575439453,40.95353698730469,45.71342468261719,,59.27009582519531,61.741477966308594,68.43778228759766,69.70484161376953,,,113.95099639892578,
12-24,30.623477935791016,,,42.444419860839844,59.756141662597656,61.85132217407226,68.28871154785156,,,87.48262023925781,113.31886291503906,
12-26,,,,42.04641723632813,60.11616516113281,62.12598037719727,,,82.13520812988281,89.50143432617188,113.4077606201172,
12-27,,41.1246452331543,45.6612663269043,42.24983596801758,60.05316162109375,,,70.23512268066406,82.35646057128906,90.0866241455078,113.60530090332031,
12-28,30.64032554626465,41.2101936340332,45.11353302001953,41.869529724121094,,,68.67066955566406,69.80900573730469,83.44338989257812,90.40846252441406,,
12-29,30.61506652832031,41.064754486083984,45.63517379760742,,,62.60202407836914,68.97811889648439,69.78059387207031,82.9913101196289,,,
12-30,30.58139038085937,40.92786407470703,45.356971740722656,,60.7822151184082,62.3456916809082,68.58683776855469,69.55331420898439,,,114.33619689941406,
12-31,30.0930233001709,40.69688415527344,,42.20561599731445,61.03425598144531,61.192161560058594,67.68315887451172,,,91.74459075927734,114.19792938232422,
