,2009,2010,2011,2012,2013,2014,2015,2016,2017,2018,2019,2020
01-02,31.53951644897461,,,,56.962852478027344,76.39663696289062,85.8742446899414,,,104.1418685913086,86.88846588134766,81.63726043701172
01-03,,,41.97114181518555,46.415348052978516,57.19314193725586,76.18368530273438,,,97.97480773925781,105.69495391845703,86.27474212646484,82.46197509765625
01-04,,45.34836196899414,41.87569808959961,46.47940444946289,57.93924331665039,,,65.3724594116211,98.05052185058594,105.71400451660156,90.0625,
01-05,31.664968490600586,44.79268264770508,41.962066650390625,46.735618591308594,,,80.69794464111328,65.79464721679688,98.58040618896484,106.87643432617188,,
01-06,31.86660385131836,44.94178009033203,42.18475341796875,46.86372375488281,,75.93367767333984,78.39840698242188,63.15835189819336,99.55506896972656,,,85.80936431884766
01-07,30.768844604492188,44.52162551879883,42.83920669555664,,58.026756286621094,77.24384307861328,77.90499114990234,61.4133415222168,,,90.62828063964844,86.63407897949219
01-08,31.190021514892578,44.74750900268555,,,57.174713134765625,77.21143341064453,80.88412475585938,61.46961975097656,,107.39094543457031,91.59678649902344,84.74207305908203
01-09,29.81444549560547,,,46.7447624206543,57.400386810302734,77.31330108642578,81.42411041259766,,97.48274230957031,106.43814086914062,95.1160659790039,85.62500762939453
01-10,,,43.15280532836914,48.2774543762207,58.077423095703125,77.22531127929688,,,97.84235382080078,106.72399139404297,95.04893493652344,83.70390319824219
01-11,,44.33639907836914,43.96177673339844,47.202274322509766,57.86094284057617,,,59.73398208618164,99.28064727783203,109.70626068115234,92.89134979248047,
01-12,28.483692169189453,43.10759353637695,44.833499908447266,47.60094451904297,,,78.67770385742188,59.03034973144531,99.8663558959961,110.23982238769531,,
01-13,30.056400299072266,44.23195266723633,44.54671859741211,47.21602249145508,,75.67442321777344,79.18972778320312,60.364261627197266,99.88532257080078,,,82.97621154785156
01-14,28.460317611694336,44.34052658081055,45.78488540649414,,57.414215087890625,78.05403137207031,81.84644317626953,61.389617919921875,,,94.46399688720703,83.76212310791016
01-15,28.743175506591797,43.82927322387695,,,57.69552993774414,78.95686340332031,80.71772766113281,59.23542404174805,,,94.54068756103516,84.15991973876953
01-16,28.612972259521484,,,,57.82005310058594,78.83636474609375,84.2437973022461,,,108.19596862792969,94.82902526855469,84.71286010742188
01-17,,,,47.52762222290039,58.12443923950195,78.30799865722656,,,99.97061920166016,108.32953643798828,95.1942367553711,83.04820251464844
01-18,,,46.83186340332031,48.28371047973633,58.474952697753906,,,,99.89480590820312,109.00701904296875,97.11637878417969,
01-19,,44.04644012451172,46.17637252807617,48.15081787109375,,,,57.36344909667969,99.69575500488281,109.13107299804688,,
01-20,27.266048431396484,43.58492660522461,46.13994216918945,47.27101516723633,,,83.32962799072266,56.667335510253906,99.96114349365234,,,
01-21,29.32683753967285,43.70258331298828,46.3038215637207,,,78.4331283569336,84.45838165283203,59.96916580200195,,,,81.81187438964844
01-22,28.608478546142578,42.553340911865234,,,58.34120559692383,79.58717346191406,84.29045867919922,62.10454177856445,,111.46883392333984,93.08948516845703,80.88705444335938
01-23,29.888044357299805,,,48.38911056518555,57.53411865234375,78.40532684326172,84.69158935546875,,98.05612182617188,112.44210052490234,92.8107681274414,79.66046905517578
01-24,,,46.30836868286133,47.907958984375,57.64479446411133,76.71829223632812,,,98.26464080810547,113.04327392578125,93.4546890258789,77.73295593261719
01-25,,42.96958541870117,45.46168899536133,48.94355392456055,57.773929595947266,,,57.93727111816406,98.47314453125,112.06998443603516,95.2422866821289,
01-26,30.530073165893555,42.1416015625,46.55872344970703,47.99959945678711,,,86.12814331054688,62.11394119262695,98.93754577636719,112.36578369140625,,
01-27,29.92845916748047,41.802268981933594,47.00028991699219,47.71091079711914,,75.12860107421875,86.75312805175781,62.15156936645508,97.52537536621094,,,74.60807037353516
01-28,31.410057067871094,41.40410232543945,46.67253494262695,,57.28045654296875,77.50157165527344,82.18225860595703,64.55975341796875,,,94.28121948242188,75.0072021484375
01-29,30.785980224609375,40.910919189453125,,,58.54413986206055,76.31043243408203,82.93785858154297,66.80802917480469,,111.23983001708984,95.02122497558594,73.1478271484375
01-30,30.42681121826172,,,48.25621032714844,58.25819396972656,76.99637603759766,83.04979705810547,,95.9141616821289,109.89441680908203,95.57865905761719,73.80980682373047
01-31,,,48.42964553833008,48.636539459228516,57.64020919799805,76.58387756347656,,,96.27432250976562,109.73220825195312,95.33838653564453,70.97696685791016
02-01,,43.232025146484375,48.88029479980469,48.526573181152344,59.30973815917969,,,64.99244689941406,95.724609375,111.18257904052734,95.00202178955078,
02-02,29.964370727539062,43.90166091918945,48.81657028198242,48.7923469543457,,,86.30535888671875,63.17692947387695,94.50199127197266,107.66160583496094,,
02-03,30.480703353881836,43.97856903076172,48.73008346557617,49.98833084106445,,74.96175384521484,89.84075927734375,66.02722930908203,95.6677474975586,,,69.47779083251953
02-04,30.790483474731445,42.03302001953125,48.607177734375,,58.70555114746094,78.13188934326172,88.79602813720703,64.38101959228516,,,95.5113754272461,71.66814422607422
02-05,31.019451141357422,42.014915466308594,,,59.41118621826172,77.626708984375,89.7288589477539,63.08285140991211,,104.54139709472656,94.521484375,75.0072021484375
02-06,30.71416473388672,,,50.432796478271484,59.80319595336914,80.2962875366211,89.355712890625,,94.49251556396484,103.31049346923828,92.43594360351562,73.85848236083984
02-07,,,48.06547164916992,50.9231071472168,59.84932327270508,81.80258178710938,,,92.1136245727539,100.93453979492188,89.37013244628906,72.3787841796875
02-08,,41.43577575683594,47.68764877319336,51.05601119995117,61.468116760253906,,,64.37162017822266,93.01400756835938,96.41167449951172,88.89921569824219,
02-09,31.76026153564453,42.77505874633789,47.31894302368164,51.52797317504883,,,89.50496673583984,61.70003890991211,94.59677124023438,95.4861068725586,,
02-10,29.81172752380371,39.92456817626953,47.45094680786133,51.243873596191406,,80.73657989501953,88.86133575439453,61.88818359375,96.14163970947266,,,71.74601745605469
02-11,28.895828247070312,41.20048141479492,47.023048400878906,,61.49578857421875,80.98222351074219,86.939697265625,61.67182540893555,,,90.54264831542969,72.80712127685547
02-12,28.77909278869629,41.164310455322266,,,61.84629440307617,81.15835571289062,88.43222045898438,63.68490219116211,,98.41548919677734,91.9073715209961,73.3814697265625
02-13,28.608478546142578,,,51.954132080078125,61.61569595336914,81.32518768310547,90.40982818603516,,95.10855865478516,97.77618408203125,92.9837646484375,73.67351531982422
02-14,,,47.75138473510742,52.12367630004883,61.49116516113281,82.01577758789062,,,95.94261169433594,101.8696517944336,93.18559265136719,72.93367004394531
02-15,,,47.136844635009766,52.623146057128906,59.58183670043945,,,,95.48767852783203,102.75707244873047,96.3475112915039,
02-16,,41.996826171875,46.881935119628906,53.897029876708984,,,,63.8636474609375,94.9379653930664,102.70934295654297,,
02-17,25.250171661376953,42.014915466308594,47.441829681396484,52.39861297607422,,,90.0086898803711,66.61985778808594,93.8575210571289,,,
02-18,25.4207706451416,42.6845588684082,49.567649841308594,,,83.38761901855469,88.90796661376953,65.34052276611328,,,,72.55400848388672
02-19,25.061595916748047,42.820274353027344,,,60.60107421875,82.8963623046875,87.49940490722656,65.57569885253906,,,95.82852935791016,75.23109436035156
02-20,24.742835998535156,,,,58.75165557861328,83.43863677978516,84.96209716796875,,,103.01468658447266,94.93474578857422,73.97530364990234
02-21,,,,52.99431228637695,57.206661224365234,82.49776458740234,,,94.2745361328125,100.96318054199219,91.63826751708984,72.24250030517578
02-22,,41.67558288574219,49.30820083618164,52.998897552490234,57.80622100830078,,,67.92741394042969,92.43585205078125,102.18452453613281,91.81126403808594,
02-23,22.88857650756836,40.68018341064453,52.07130813598633,53.383811950683594,,,85.75499725341797,63.985904693603516,92.47376251220703,103.84484100341797,,
02-24,23.943662643432617,41.9334831237793,50.150333404541016,53.864952087402344,,83.61009979248047,85.45648193359375,65.39695739746094,91.27010345458984,,,68.05650329589844
02-25,23.35999870300293,42.17781448364258,50.86956787109375,,56.159751892089844,85.27860260009766,86.78111267089844,64.43744659423828,,,91.06161499023438,65.21392059326172
02-26,23.08163833618164,42.553340911865234,,,56.957618713378906,86.40949249267578,84.07589721679688,63.49678039550781,,104.47460174560547,90.25431060791016,61.52439880371094
02-27,22.466543197631836,,,52.98057174682617,58.534908294677734,86.88682556152344,83.69345092773438,,92.79601287841797,102.04141235351562,91.34033203125,58.409236907958984
02-28,,,51.12447738647461,53.4342155456543,57.976871490478516,87.79060363769531,,,91.924072265625,96.77427673339844,90.3408203125,61.58280563354492
02-29,,,,52.17408752441406,,,,60.900447845458984,,,,
03-01,,42.824806213378906,49.13066482543945,53.57168197631836,56.72702407836914,,,61.16385269165039,94.82422637939453,96.5452651977539,92.66661834716797,
03-02,20.468624114990234,42.90624237060547,49.47663497924805,52.192413330078125,,,83.07777404785156,63.026432037353516,93.3267593383789,96.80288696289062,,61.19341278076172
03-03,21.568601608276367,43.354183197021484,50.56914138793945,,,87.73037719726562,84.29978942871094,65.14299011230469,93.42154693603516,,,60.77481460571289
03-04,22.94245719909668,43.07365417480469,49.79072570800781,,56.16896438598633,88.78244018554688,84.4117431640625,67.17487335205078,,,93.04143524169922,62.38106918334961
03-05,23.27469825744629,44.06000518798828,,51.871639251708984,57.51105880737305,88.28652954101562,83.5721664428711,,,97.14640045166016,91.78242492675781,60.22966003417969
03-06,23.37795639038086,,,51.651710510253906,57.92612838745117,88.55068969726562,82.6207275390625,,94.84320068359375,96.38304138183594,88.36100006103516,53.83384704589844
03-07,,,49.42654800415039,51.84415817260742,58.83007049560547,88.0223388671875,,70.99409484863281,94.33139038085938,96.24946594238281,87.79397583007812,
03-08,,44.05550003051758,48.34315872192383,52.42610549926758,59.34661102294922,,,66.37527465820312,89.87688446044922,95.9822769165039,83.07511901855469,
03-09,22.637157440185547,44.363162994384766,48.161067962646484,52.68730545043945,,,81.82778930664062,67.97444915771484,90.70143127441406,98.09105682373047,,36.60312271118164
03-10,23.755090713500977,44.720584869384766,46.80910873413086,,,87.61912536621094,80.40055847167969,67.98385620117188,89.8389663696289,,,40.4970703125
03-11,24.244474411010742,44.24098587036133,48.09278106689453,,59.33739471435547,86.02015686035156,80.73638153076172,70.72128295898438,,,82.90210723876953,37.829715728759766
03-12,26.404033660888672,44.1505126953125,,52.11450958251953,59.99229049682617,85.80230712890625,79.95279693603516,,,96.0395278930664,83.59408569335938,31.638338088989258
03-13,26.48484230041504,,,53.54419708251953,59.90005874633789,84.77342224121094,79.65430450439453,,89.99061584472656,95.4670181274414,85.1221923828125,33.877357482910156
03-14,,,48.49337387084961,52.549827575683594,60.79939651489258,86.19161224365234,,70.34500122070312,89.64942169189453,95.31434631347656,86.19859313964844,
03-15,,43.838321685791016,47.9972038269043,52.98514175415039,60.14909744262695,,,69.244384765625,91.99040222167969,94.13114929199219,85.39128112792969,
03-16,27.62073516845703,43.65280532836914,47.56475067138672,53.512115478515625,,,81.9957046508789,70.58959197998047,90.82466125488281,95.84868621826172,,30.275455474853516
03-17,28.330116271972656,43.34966278076172,49.472076416015625,,,86.7756118774414,80.9696044921875,71.96299743652344,91.39331817626953,,,30.071022033691406
03-18,27.840742111206055,42.20494842529297,49.13066482543945,,59.461917877197266,87.67008972167969,84.57032012939453,71.14459991455078,,,88.34178161621094,28.97098159790039
03-19,28.39297103881836,41.490074157714844,,53.791622161865234,58.69632339477539,86.91465759277344,83.51619720458984,,,93.95940399169922,89.26441192626953,32.33924865722656
03-20,27.813798904418945,,,52.56357955932617,58.221290588378906,88.21236419677734,84.58897399902344,,91.19429016113281,96.68839263916016,92.15724182128906,33.964969635009766
03-21,,,50.710227966308594,52.151180267333984,57.14210510253906,88.81952667236328,,71.45501708984375,89.5925521850586,99.9803466796875,93.0990982055664,
03-22,,41.39957809448242,51.60245132446289,50.565696716308594,57.64020919799805,,,71.39856719970703,89.70628356933594,99.51280212402344,90.03327178955078,
03-23,29.668058395385742,42.59406280517578,51.92564392089844,51.19805145263672,,,83.02179718017578,69.93109893798828,89.85792541503906,101.01087951660156,,33.62424850463867
03-24,28.770112991333008,41.88371658325195,52.5993537902832,,,87.87403869628906,82.87255859375,69.89347839355469,89.90530395507812,,,38.74479293823242
03-25,28.482759475708008,40.458473205566406,53.50522994995117,,57.15131378173828,88.78706359863281,83.9173355102539,,,,89.16830444335938,38.6377067565918
03-26,27.831758499145508,40.5353889465332,,51.39509201049805,59.44806671142578,89.0419692993164,85.22328186035156,,,102.6425552368164,91.08084106445312,38.48195266723633
03-27,26.628515243530273,,,50.991851806640625,59.125240325927734,89.66305541992188,84.4770278930664,,88.50260925292969,101.4593505859375,90.90785217285156,35.04553985595703
03-28,,,53.9149169921875,50.235774993896484,59.065284729003906,91.37787628173828,,70.1098403930664,90.31285095214844,99.06432342529297,91.53253936767578,
03-29,,42.06016159057617,54.474822998046875,49.95624923706055,,,,70.97527313232422,91.93354034423828,100.44791412353516,91.47488403320312,
03-30,25.438743591308594,42.232093811035156,54.25632095336914,50.90937042236328,,,85.95088195800781,69.29142761230469,92.09465789794922,,,34.05258560180664
03-31,24.5856876373291,42.05111312866211,53.94677734375,,,90.91903686523438,85.53114318847656,68.27550506591797,92.45481872558594,,,34.9676628112793
04-01,25.649751663208008,43.2455940246582,53.89215087890625,,59.26820755004883,91.74864196777344,85.09269714355469,67.76750946044922,,,93.16636657714844,33.68265914916992
04-02,27.08646583557129,,,51.94039535522461,59.51724624633789,91.86914825439453,86.48261260986328,,,98.21509552001953,92.3110122680664,37.28456115722656
04-03,28.348073959350586,,,52.03660583496094,58.156734466552734,93.29667663574219,,,91.8956298828125,100.25707244873047,90.27354431152344,38.8324089050293
04-04,,,53.88303756713867,50.64358901977539,56.66244888305664,92.48092651367188,,66.1401138305664,93.11825561523438,99.3983154296875,90.0236587524414,
04-05,,44.236473083496094,53.22299575805664,50.029563903808594,57.53411865234375,,,66.35648345947266,92.4832534790039,99.59867858886719,94.79057312011719,
04-06,27.25258445739746,44.06000518798828,52.26250457763672,,,,88.49752044677734,66.99615478515625,92.92871856689453,97.26091003417969,,38.384605407714844
04-07,26.026899337768555,46.937618255615234,52.194210052490234,,,90.77537536621094,87.93782043457031,67.21249389648438,92.27474975585938,,,40.234230041503906
04-08,26.51178550720215,48.39453125,52.194210052490234,,58.52107620239258,91.49837493896484,87.7232666015625,69.1126937866211,,,95.60749053955078,44.08924102783203
04-09,27.544416427612305,47.40365219116211,,49.23223876953125,59.14829635620117,91.72084045410156,89.28109741210938,,,98.64448547363281,94.73291778564453,43.63169860839844
04-10,,,,47.65593338012695,59.318939208984375,90.94220733642578,90.10198974609375,,93.42154693603516,102.72842407226562,94.88668823242188,
04-11,,,51.288352966308594,47.1747932434082,59.15290832519531,91.42420959472656,,69.62066650390625,92.92595672607422,104.38872528076172,94.88668823242188,
04-12,,48.49406814575195,49.72243881225586,48.29473876953125,57.332210540771484,,,72.91309356689453,92.55571746826172,104.9421615600586,101.2105484008789,
04-13,27.822782516479492,48.584556579589844,50.42448806762695,47.42723846435547,,,88.3296127319336,73.32600402832031,90.79933166503906,106.11300659179688,,42.142269134521484
04-14,27.23549461364746,49.52023696899414,50.474632263183594,,,92.77464294433594,90.14064025878906,73.35430145263672,,,,41.11037063598633
04-15,26.659461975097656,50.0684814453125,50.620521545410156,,53.66494369506836,93.84196472167969,91.54237365722656,71.37456512451172,,,98.35018920898438,39.180328369140625
04-16,26.362445831298828,48.69556427001953,,47.170196533203125,55.0320930480957,93.7491455078125,91.57975006103516,,,106.11300659179688,98.57168579101562,35.87028121948242
04-17,27.037487030029297,,,48.101966857910156,53.03218078613281,95.08565521240234,90.86022186279297,,90.89427185058594,106.23727416992188,98.08052062988281,41.095638275146484
04-18,,,50.087135314941406,47.81278991699219,53.25849533081055,,,73.00548553466797,90.03033447265625,107.86212158203125,100.03558349609375,
04-19,,48.931182861328125,49.904788970947266,47.716392517089844,52.394805908203125,,,74.59870147705078,88.56828308105469,108.9995346069336,,
04-20,25.187883377075195,50.52611541748047,50.97608947753906,47.289527893066406,,,91.33678436279297,74.82496643066406,88.57776641845703,108.9326171875,,40.437557220458984
04-21,25.610916137695312,50.68925094604492,50.9989013671875,,,96.08802032470703,90.26213073730469,74.62698364257812,88.84359741210938,,,39.779476165771484
04-22,25.3633975982666,51.205787658691406,,,53.76193618774414,94.9835433959961,91.2994155883789,76.28622436523438,,,103.11744689941406,42.3823356628418
04-23,27.055484771728516,51.527503967285156,,47.551170349121094,54.03907012939453,97.52658081054688,91.83206176757812,,,109.76416778564453,102.66481018066406,43.43329620361328
04-24,28.428062438964844,,,47.9412956237793,55.39235305786133,96.0416259765625,90.38362884521484,,88.99549865722656,109.52521514892578,100.1030044555664,42.58859634399414
04-25,,,50.30139923095703,48.85009765625,56.28376388549805,91.9207534790039,,75.19264221191406,90.44807434082031,110.2994155883789,98.31166076660156,
04-26,,50.965641021728516,50.93050765991211,49.80937957763672,55.01823806762695,,,78.03970336914062,89.5366439819336,112.42129516601562,94.26670837402344,
04-27,28.090539932250977,49.22117614746094,50.94874572753906,50.03887176513672,,,90.98168182373047,79.670654296875,88.29296875,111.62798309326172,,43.74760055541992
04-28,28.527063369750977,49.57911682128906,51.04904556274414,,,91.01119232177734,92.00959777832031,77.2006607055664,87.81825256347656,,,44.179771423339844
04-29,29.584627151489258,50.412841796875,51.53681945800781,,56.316104888916016,92.4590835571289,93.20576477050781,77.88886260986328,,,93.419189453125,46.871028900146484
04-30,28.56756591796875,50.802528381347656,,50.401466369628906,55.960445404052734,90.95551300048828,92.4675064086914,,,112.94699096679688,92.50425720214844,46.664764404296875
05-01,29.737642288208008,,,51.05324172973633,54.88429641723633,90.1387710571289,92.42080688476562,,87.37203979492188,112.36395263671875,88.49783325195312,43.77706527709961
05-02,,,50.574928283691406,50.158206939697266,55.27227020263672,90.08309173583984,,78.03970336914062,87.22016143798828,111.49417877197266,85.87824249267578,
05-03,,51.45500183105469,49.30302429199219,49.43760299682617,57.262935638427734,,,76.0128173828125,87.11573028564453,110.88245391845703,87.54438781738281,
05-04,32.419769287109375,49.95067596435547,48.45054244995117,48.32685089111328,,,92.87870788574219,74.79669189453125,84.11566162109375,109.59212493896484,,45.90846633911133
05-05,31.956241607666016,47.653411865234375,47.57069778442383,,,92.11566925048828,88.34642028808594,76.60675811767578,86.28025817871094,,,45.23073959350586
05-06,34.890411376953125,46.38471603393555,48.97935485839844,,58.21438217163086,96.18081665039062,88.85105895996094,74.17448425292969,,,87.87181854248047,45.02447509765625
05-07,33.08582305908203,45.691463470458984,,48.08818435668945,62.671470642089844,97.2574234008789,87.37456512451172,,,108.85616302490234,88.39188385009766,47.45053482055664
05-08,34.59339904785156,,,47.73016357421875,63.692195892333984,94.41741180419922,87.37456512451172,,87.04926300048828,110.19429016113281,90.55883026123047,50.53466796875
05-09,,,50.74815368652344,48.23965835571289,62.85159683227539,94.92784881591797,,74.13677215576172,87.00178527832031,112.58379364013672,90.76107788085938,
05-10,,48.251529693603516,50.53388595581055,48.88682174682617,61.69691848754883,,,75.16435241699219,89.75499725341797,113.69251251220703,91.49302673339844,
05-11,33.18033218383789,47.458580017089844,48.6374397277832,47.84033203125,,,85.60836791992188,75.72057342529297,89.50817108154297,112.22058868408203,,48.953311920166016
05-12,32.96430587768555,49.1078987121582,48.10408020019531,,,96.19012451171875,87.29045867919922,75.89025115966797,89.90691375732422,,,48.835445404052734
05-13,31.64573860168457,48.97196578979492,48.0676155090332,,61.73386001586914,97.61011505126953,85.5990219116211,74.14620208740234,,,90.04840850830078,47.34248733520508
05-14,32.11375427246094,48.07027816772461,,46.376155853271484,63.12409210205078,96.4314193725586,84.7860336303711,,,113.43444061279297,90.85739135742188,46.71387481689453
05-15,30.714191436767578,,,45.53621292114258,62.20957565307617,95.35478973388672,84.54306030273438,,89.93539428710938,114.91594696044922,90.87664794921875,46.83174133300781
05-16,,,47.730247497558594,45.416866302490234,61.5306282043457,95.13203430175781,,76.06939697265625,89.08094787597656,116.12981414794922,91.6663818359375,
05-17,,46.77438735961914,48.14509582519531,44.67789077758789,62.468238830566406,,,76.89899444580078,88.24549865722656,120.57427978515625,89.58611297607422,
05-18,31.974266052246094,46.59767150878906,48.60554504394531,44.20513916015625,,,85.78592681884766,75.80542755126953,87.04926300048828,120.2302017211914,,51.50705337524414
05-19,32.41077423095703,46.3212776184082,48.31834030151367,,,94.94642639160156,84.34683227539062,75.49431610107422,89.06196594238281,,,49.75872039794922
05-20,32.599788665771484,43.62981033325195,48.71039581298828,,62.63450241088867,94.56590270996094,84.53372192382812,76.28622436523438,,,90.22174835205078,51.71331787109375
05-21,31.389225006103516,45.578189849853516,,45.99060821533203,62.020225524902344,96.6727294921875,85.49624633789062,,,121.81682586669922,92.09976959228516,51.389190673828125
05-22,31.137218475341797,,,46.50924301147461,60.47293472290039,96.22723388671875,84.34683227539062,,88.39739227294922,118.28992462158203,89.48018646240234,51.34990310668945
05-23,,,47.525108337402344,46.679080963134766,60.69003677368164,96.49638366699219,,76.61616516113281,87.84674072265625,117.54438781738281,85.57005310058594,
05-24,,44.11465072631836,48.3502311706543,46.26140594482422,60.4267692565918,,,77.76630401611328,87.97965240478516,114.67698669433594,83.94244384765625,
05-25,,44.72633361816406,48.86994934082031,46.70204162597656,,,,78.32254028320312,86.41317749023438,112.55511474609375,,
05-26,31.1732234954834,45.19301986694336,48.88362121582031,,,,83.3095474243164,77.58718872070312,86.6030502319336,,,50.52484130859375
05-27,30.723186492919922,48.260589599609375,49.30302429199219,,,97.20175170898438,83.16935729980469,76.89899444580078,,,,51.79189682006836
05-28,32.67630386352539,47.50390625,,,60.56069564819336,97.62869262695312,83.3095474243164,,,,83.894287109375,50.72128677368164
05-29,32.937320709228516,,,48.129493713378906,61.35050582885742,99.0022964477539,82.87967681884766,,,111.07361602783203,83.23938751220703,50.063209533691406
05-30,,,,46.35319519042969,61.28584289550781,98.19483947753906,,,85.08403015136719,114.46670532226562,80.86058044433594,
05-31,,,49.75435256958008,45.5775146484375,59.62773513793945,,,76.70101928710938,85.7391128540039,112.60289764404297,78.85735321044922,
06-01,34.525882720947266,45.68693923950195,49.32126998901367,42.0754280090332,,,82.94510650634766,76.1259536743164,85.82455444335938,113.11903381347656,,50.88826370239258
06-02,34.296382904052734,48.82244110107422,50.56124496459961,,,97.80502319335938,83.888916015625,75.8808364868164,85.1409912109375,,,53.83489227294922
06-03,32.65829086303711,49.71959686279297,50.40168762207031,,60.8516845703125,98.99301147460938,83.17871856689453,75.1454849243164,,,79.88785552978516,54.384925842285156
06-04,32.94632339477539,46.66563034057617,,41.492515563964844,61.041053771972656,98.723876953125,81.65550231933594,,,113.42489624023438,81.16875457763672,54.16884231567383
06-05,33.08131790161133,,,42.16721725463867,59.359825134277344,100.14389038085938,83.80481719970703,,84.6852798461914,111.42726135253906,79.0018081665039,58.25483322143555
06-06,,,49.717872619628906,43.567134857177734,60.33901596069336,101.46183013916016,,76.61616516113281,86.2327880859375,111.00672149658203,81.15913391113281,
06-07,,45.8273811340332,49.2574462890625,43.81041717529297,61.28121566772461,,,80.52851867675781,83.68843841552734,112.71759796142578,81.47694396972656,
06-08,33.16682434082031,47.73951721191406,49.663177490234375,43.08980178833008,,,83.27215576171875,80.47195434570312,83.65045928955078,112.46908569335938,,61.00502014160156
06-09,33.5943489074707,47.037193298339844,50.50198745727539,,,101.63815307617188,83.25345611572266,79.73662567138672,85.52074432373047,,,58.4119873046875
06-10,33.864349365234375,49.284610748291016,49.08420944213867,,60.791648864746094,100.87709045410156,84.48699951171875,76.88957214355469,,,82.05479431152344,54.64030456542969
06-11,34.69240951538086,49.77850341796875,,42.19477081298828,59.63233947753906,102.74260711669922,84.7112808227539,,,112.79405975341797,83.30679321289062,50.24000549316406
06-12,34.93093490600586,,,43.222904205322266,59.87250518798828,103.60575866699219,83.66464233398438,,85.33086395263672,113.2337417602539,81.89108276367188,51.634742736816406
06-13,,,47.73480987548828,42.54820251464844,61.5814208984375,105.82395935058594,,76.72930145263672,85.97645568847656,113.02345275878906,83.29717254638672,
06-14,,49.36616516113281,47.88069534301758,43.35599899291992,60.84707260131836,,,78.22824096679688,84.428955078125,112.33526611328125,82.02590942382812,
06-15,34.31439208984375,50.00505447387695,46.8960075378418,44.35660171508789,,,83.37496948242188,77.71917724609375,82.63461303710938,109.13333892822266,,51.28114700317383
06-16,33.23882293701172,50.01864242553711,46.32160186767578,,,105.83325958251953,84.17862701416016,75.58857727050781,84.0396957397461,,,53.628623962402344
06-17,32.96430587768555,49.86911392211914,46.613365173339844,,61.5814208984375,104.3111343383789,83.18806457519531,76.25792694091797,,,82.31482696533203,51.54634094238281
06-18,32.446781158447266,49.94160461425781,,43.47994613647461,62.362003326416016,105.37846374511719,82.99181365966797,,,111.46549224853516,85.04035949707031,51.988338470458984
06-19,31.465730667114258,,,44.03989791870117,62.6252555847168,107.47601318359375,82.48719024658203,,83.61247253417969,111.90515899658203,85.37744140625,51.369544982910156
06-20,,,45.9979248046875,42.65834426879883,60.50067138671875,109.49932098388672,,78.42622375488281,83.40360260009766,114.15129852294922,88.0740737915039,
06-21,,50.11833190917969,46.58600997924805,39.69329833984375,60.2281494140625,,,80.04771423339844,82.71056365966797,111.4463882446289,88.96012115478516,
06-22,30.3676700592041,48.23339080810547,46.198509216308594,40.21653366088867,,,82.30963897705078,78.81273651123047,83.25171661376953,113.27197265625,,51.48741149902344
06-23,30.282163619995117,48.41009521484375,45.66056823730469,,,108.97029876708984,82.9731216430664,79.66121673583984,83.34664154052734,,,51.52669906616211
06-24,30.295673370361328,47.39061737060547,44.79896545410156,,58.84715270996094,104.89585876464844,82.55260467529297,76.41818237304688,,,87.21693420410156,48.07914352416992
06-25,30.885194778442383,49.742244720458984,,38.96807861328125,60.1126708984375,107.68020629882812,81.90779876708984,,,111.66622161865234,86.71613311767578,49.827476501464844
06-26,30.40365982055664,,,38.53662872314453,60.897857666015625,107.12332153320312,82.29096221923828,,82.9668960571289,114.3902587890625,89.65351867675781,47.89252471923828
06-27,,,45.73809051513672,39.349056243896484,60.50988006591797,107.51313018798828,,74.0896224975586,83.54602813720703,118.45240783691406,88.70970916748047,
06-28,,47.76667404174805,46.68629455566406,39.0874137878418,60.81935119628906,,,77.06866455078125,84.51438903808594,118.0414047241211,89.72095489501953,
06-29,30.133655548095703,45.41958999633789,47.000850677490234,41.35942459106445,,,80.59953308105469,78.66191101074219,85.44479370117188,118.93030548095703,,48.766693115234375
06-30,30.56568145751953,44.57228469848633,47.661869049072266,,,108.45982360839844,81.81437683105469,78.64305114746094,85.93846130371094,,,49.75872039794922
07-01,30.169647216796875,44.89399337768555,46.99175262451172,,62.495948791503906,108.17211151123047,80.1509780883789,79.92516326904297,,,89.65351867675781,48.97295379638672
07-02,28.90508270263672,44.558677673339844,,40.8223991394043,63.682960510253906,107.8750991821289,80.0575180053711,,,116.99003601074219,84.32767486572266,49.621212005615234
07-03,,,,43.553375244140625,63.821502685546875,108.35772705078125,,,87.69483184814453,117.0186996459961,83.98096466064453,
07-05,,,47.06468200683594,42.226898193359375,64.84687042236328,,,78.02084350585938,85.7296142578125,117.77378845214844,85.3003921508789,
07-06,28.18505096435547,45.24287414550781,46.62247085571289,41.60267639160156,,,79.51553344726562,78.02084350585938,84.14412689208984,118.85383605957031,,49.5131721496582
07-07,27.262495040893555,47.03266143798828,47.20599365234375,,,107.41104125976562,81.03875732421875,76.93670654296875,83.96375274658203,,,47.25408935546875
07-08,27.798019409179688,48.12917709350586,46.46292495727539,,64.5512924194336,107.64309692382812,78.9548110961914,77.81346130371094,,,86.82206726074219,46.59600830078125
07-09,28.180545806884766,47.83466720581055,,41.99281692504883,65.6874771118164,108.18138885498047,79.71176147460938,,,120.55516052246094,85.85897827148438,43.55116271972656
07-10,28.126541137695312,,,41.01057815551758,65.7105712890625,106.69639587402344,79.0015640258789,,85.08403015136719,121.3580322265625,87.31324005126953,44.59230422973633
07-11,,,45.136322021484375,42.171817779541016,66.30175018310547,105.48057556152344,,78.15281677246094,86.04290771484375,119.15013885498047,87.4865951538086,
07-12,,47.82107925415039,45.081626892089844,41.79086685180664,66.8375473022461,,,80.26456451416016,85.98593139648438,118.65312194824219,87.54438781738281,
07-13,28.725080490112305,48.39651107788086,45.17749786376953,42.733551025390625,,,78.69318389892578,79.19527435302734,87.32516479492188,120.3926773071289,,44.150306701660156
07-14,29.10309600830078,48.38972091674805,44.15925216674805,,,107.37393951416016,79.6463623046875,79.9415054321289,87.38224029541016,,,46.4388542175293
07-15,29.98487091064453,48.18551254272461,46.204898834228516,,66.38341522216797,105.3995361328125,77.94969940185547,79.44084167480469,,,85.47374725341797,46.61565017700195
07-16,31.234256744384766,46.41127014160156,,42.876102447509766,66.85511779785156,108.80010223388672,77.15383911132812,,,119.27753448486328,84.0611343383789,47.343326568603516
07-17,31.387584686279297,,,43.795806884765625,67.44245147705078,107.3599853515625,75.37479400634766,,87.4107666015625,118.99993896484375,82.31227111816406,46.689903259277344
07-18,,,46.355560302734375,44.4671630859375,67.98355865478516,107.81525421142578,,78.63794708251953,87.22053527832031,118.29161071777344,82.5441665649414,
07-19,,46.28876876831055,47.501678466796875,45.1799430847168,68.75587463378906,,,77.4949951171875,89.70303344726562,117.15253448486328,84.09977722167969,
07-20,32.60990905761719,47.25982666015625,47.40121841430664,45.63058090209961,,,72.96842193603516,77.56110382080078,89.08480072021484,117.1142349243164,,47.22452163696289
07-21,32.7407112121582,46.47481918334961,48.20029830932617,,,107.9174575805664,72.4066162109375,76.97545623779297,88.37142944335938,,,49.91740798950195
07-22,32.2039794921875,46.82875061035156,48.66147232055664,,69.1351089477539,108.28909301757812,71.24557495117188,76.49371337890625,,,84.2640380859375,49.689701080322266
07-23,33.29096221923828,46.43398666381836,,44.69709396362305,68.74201202392578,107.73162078857422,71.46092224121094,,,117.60242462158203,84.63119506835938,48.36305618286133
07-24,33.68788528442383,,,43.91535186767578,66.62852478027344,107.96392822265625,70.37476348876953,,88.75188446044922,120.24430847167969,84.7181625366211,48.55116653442383
07-25,,,48.49709701538086,44.002723693847656,68.15464782714844,106.68172454833984,,74.38725280761719,90.23567962646484,122.88619995117188,82.58281707763672,
07-26,,47.06471252441406,48.66147232055664,44.79826354980469,67.40084075927734,,,75.99308013916016,90.12155151367188,123.34566497802734,81.44267272949219,
07-27,33.51197052001953,45.630802154541016,47.51993942260742,46.449092864990234,,,68.53020477294922,75.36019897460938,91.29145812988281,123.62324523925781,,48.075950622558594
07-28,33.12408447265625,45.630802154541016,47.22770309448242,,,105.35308837890625,71.95719146728516,75.47354888916016,90.7588119506836,,,46.79880905151367
07-29,31.97846221923828,45.6398811340332,46.57473373413086,,66.92449188232422,106.142822265625,72.79051208496094,77.17382049560547,,,81.08517456054688,48.01654815673828
07-30,32.880523681640625,44.24227523803711,,45.78233337402344,66.64240264892578,105.57606506347656,73.53958892822266,,,124.34117126464844,83.15289306640625,46.11568832397461
07-31,33.390201568603516,,,45.0695686340332,67.28522491455078,101.68305206298828,72.2755355834961,,90.49249267578125,123.42223358154297,82.94998168945312,46.382991790771484
08-01,,,46.40123748779297,46.191593170166016,70.32828521728516,100.38227081298828,,74.34000396728516,89.845703125,120.19645690917969,78.33145141601562,
08-02,,46.515647888183594,45.300785064697266,44.2004508972168,70.77226257324219,,,75.464111328125,87.81024932861328,120.54105377197266,79.67449188232422,
08-03,34.571903228759766,46.148109436035156,44.73915481567383,49.088623046875,,,71.57329559326172,77.80670928955078,84.55731201171875,117.17166900634766,,45.907779693603516
08-04,34.9327392578125,46.73801040649414,42.06794738769531,,,103.88509368896484,71.85418701171875,79.57310485839844,86.03157806396484,,,47.97694396972656
08-05,35.18983840942383,46.48390197753906,43.79852294921875,,71.30409240722656,100.93045043945312,71.24557495117188,85.16514587402344,,,76.33137512207031,50.244117736816406
08-06,35.2800407409668,45.04092025756836,,48.624176025390625,70.86014556884766,99.08151245117188,72.73434448242188,,,118.59790802001953,75.63568878173828,50.382720947265625
08-07,33.70591735839844,,,50.00372314453125,72.2475357055664,98.54261016845703,69.06391143798828,,85.28968811035156,119.10523986816406,74.93035125732422,48.32345962524414
08-08,,,40.45610427856445,49.61744689941406,73.33899688720703,100.14071655273438,,85.637451171875,86.6974105834961,117.51626586914062,77.64543151855469,
08-09,,45.34947204589844,41.48805618286133,50.311824798583984,73.45922088623047,,,85.37294006347656,85.93647766113281,117.07596588134766,76.68888092041016,
08-10,34.36894607543945,45.6943244934082,39.72095489501953,50.57851791381836,,,71.41410827636719,84.46614074707031,84.76657104492188,117.51626586914062,,49.957008361816406
08-11,33.268409729003906,44.08346176147461,42.52912902832031,,,100.62384796142578,72.3785400390625,85.27850341796875,84.20539093017578,,,48.92737579345703
08-12,33.46236801147461,43.27121353149414,42.99031448364258,,73.42224884033203,99.12797546386719,74.84110260009766,86.14753723144531,,,75.28784942626953,48.60066604614258
08-13,34.08478546142578,42.73124313354492,,50.26124572753906,73.18177032470703,98.81207275390625,74.60700988769531,,,116.30062103271484,75.86758422851562,46.94731140136719
08-14,33.68788528442383,,,50.74407958984375,72.33078002929688,96.5635986328125,74.84110260009766,,83.6917724609375,117.80343627929688,72.4858169555664,47.4918327331543
08-15,,,43.967472076416016,50.50035095214844,72.41865539550781,98.57048034667969,,85.5335464477539,82.76914978027344,110.49995422363281,72.40853118896484,
08-16,,42.6949348449707,43.1866569519043,51.038368225097656,71.90994262695312,,,85.25959014892578,80.82879638671875,110.9498291015625,73.35542297363281,
08-17,32.40243148803711,43.18047332763672,42.92182922363281,51.130332946777344,,,74.9159927368164,85.2218246459961,79.30696868896484,109.85861206054688,,46.07608413696289
08-18,32.62343215942383,42.35914611816406,40.0131950378418,,,97.95726776123047,75.29053497314453,86.6481704711914,79.98226928710938,,,45.887977600097656
08-19,33.29549026489258,41.528751373291016,39.98579406738281,,70.61504364013672,99.44386291503906,72.16316986083984,86.67650604248047,,,75.18156433105469,45.155357360839844
08-20,33.17821502685547,41.48336410522461,,50.385398864746094,71.50758361816406,99.67615509033203,71.84484100341797,,,109.85861206054688,74.09940338134766,43.660404205322266
08-21,34.18403244018555,,,50.01751708984375,70.22191619873047,99.59252166748047,70.09387969970703,,79.6018295288086,110.54780578613281,74.61150360107422,42.95748519897461
08-22,,,39.4287223815918,50.08190155029297,71.40583801269531,98.73772430419922,,86.11919403076172,80.12493896484375,112.29949188232422,72.95926666259766,
08-23,,41.624046325683594,40.62504196166992,49.20819091796875,72.43254852294922,,,86.15697479248047,80.95245361328125,111.41886901855469,69.32627868652344,
08-24,34.20207214355469,40.20830154418945,41.058834075927734,50.08190155029297,,,64.85041046142578,85.70356750488281,80.48638153076172,112.43350982666016,,43.88811492919922
08-25,33.56159591674805,39.68645095825195,40.30086135864258,,,100.28936004638672,64.0077133178711,85.25015258789062,80.38175964355469,,,43.937618255615234
08-26,33.367645263671875,39.305294036865234,41.02687072753906,,72.65914916992188,101.64588165283203,66.47025299072266,85.18403625488281,,,69.80937957763672,42.82877731323242
08-27,32.9075927734375,40.566776275634766,,50.20146942138672,72.27993774414062,100.91188049316406,70.96469116210938,,,113.57257843017578,69.23931884765625,44.50193405151367
08-28,33.03837966918945,,,50.04050827026367,73.74597930908203,100.70746612548828,72.38790893554688,,79.32598114013672,112.92168426513672,70.07991790771484,45.74937438964844
08-29,,,41.80312728881836,49.686431884765625,72.6499252319336,102.09185791015625,,86.0908203125,79.08819580078125,113.697021484375,71.96406555175781,
08-30,,39.73183822631836,42.09992599487305,48.69316482543945,72.63139343261719,,,85.08012390136719,79.5827865600586,113.82145690917969,71.6838607788086,
08-31,32.47458267211914,39.41874313354492,42.27800750732422,49.801387786865234,,,73.32422637939453,83.58766174316406,80.83830261230469,113.17054748535156,,44.88804626464844
09-01,31.852163314819336,40.81180953979492,41.74375915527344,,,,71.18001556396484,83.64433288574219,81.46607208251953,,,44.759342193603516
09-02,31.53644561767578,40.60761642456055,40.34194564819336,,,100.07566833496094,72.76243591308594,83.9843978881836,,,,43.2643928527832
09-03,31.464282989501953,40.98876953125,,,73.2696304321289,100.10354614257812,72.51898956298828,,,,71.6258773803711,42.700077056884766
09-04,31.784502029418945,,,50.27043914794922,74.24081420898438,97.19539642333984,71.9946517944336,,,112.64408874511719,73.0172348022461,42.70997619628906
09-05,,,,49.91175842285156,74.65702819824219,97.7249755859375,,,81.67533874511719,112.84510803222656,73.04622650146484,
09-06,,,39.70725631713867,51.69135665893555,74.79116821289062,,,89.57643127441406,83.55860137939453,110.55738067626953,73.85784912109375,
09-07,,40.253658294677734,41.40129470825195,51.90748977661133,,,,89.09467315673828,84.27198028564453,109.57144927978516,,
09-08,33.214298248291016,40.961551666259766,40.75291061401367,,,94.22221374511719,72.71561431884766,90.14319610595703,82.54087829589844,,,40.423004150390625
09-09,33.57512664794922,40.55315017700195,38.95841979980469,,75.68373107910156,94.12930297851562,72.03207397460938,87.51719665527344,,,77.2975845336914,41.4427375793457
09-10,34.648582458496094,41.83732604980469,,51.686767578125,75.61434936523438,94.77967834472656,73.09014892578125,,,109.42788696289062,77.39421081542969,37.621212005615234
09-11,34.25618362426758,,,51.700557708740234,77.30240631103516,95.7552490234375,72.23809814453125,,83.63470458984375,111.24656677246094,78.29280090332031,38.660743713378906
09-12,,,39.31912612915039,51.953468322753906,77.69088745117188,94.1385726928711,,87.82891845703125,84.1483154296875,111.93574523925781,76.9884033203125,
09-13,,41.87815475463867,39.611366271972656,52.96514129638672,76.9740219116211,,,85.39183044433594,86.64984130859375,111.62945556640625,76.70819854736328,
09-14,34.7703742980957,41.83732604980469,40.06798553466797,54.087158203125,,,71.56393432617188,83.54987335205078,87.29662322998047,112.77809143066406,,38.77954864501953
09-15,36.019744873046875,41.55597686767578,41.278011322021484,,,94.686767578125,72.33172607421875,85.91136169433594,88.66627502441406,,,38.20532989501953
09-16,37.53973388671875,41.29281234741211,41.168426513671875,,76.67806243896484,97.76216888427734,74.85044860839844,85.9302749633789,,,82.74707794189453,40.45270538330078
09-17,37.24205017089844,40.435184478759766,,53.52613830566406,77.58914184570312,97.73428344726562,74.5882797241211,,,112.51007080078125,78.47638702392578,40.77941131591797
09-18,36.921810150146484,,,53.28702926635742,79.44827270507812,97.5391845703125,71.40475463867188,,88.50460052490234,114.33834075927734,78.572998046875,40.30419921875
09-19,,,40.07255172729492,52.22479248046875,78.95804595947266,96.97240447998047,,85.06124114990234,88.58067321777344,115.02753448486328,78.85321044921875,
09-20,,39.80897903442383,39.78031539916992,52.21558380126953,78.09783935546875,,,85.39183044433594,89.57938385009766,114.1086196899414,78.26380920410156,
09-21,36.66020965576172,40.666595458984375,38.09540557861328,52.39952850341797,,,71.64820098876953,88.3389892578125,89.30355072021484,114.34791564941406,,38.42313766479492
09-22,37.90054702758789,41.00238037109375,35.045223236083984,,,94.52880859375,70.43094635009766,87.47940063476562,89.93131256103516,,,38.06672668457031
09-23,37.07966995239258,40.68928909301758,33.661659240722656,,78.09320831298828,93.692626953125,68.38976287841797,84.7778549194336,,,77.4231948852539,36.01736068725586
09-24,36.10543441772461,41.79648208618164,,52.05923080444336,79.5870132446289,94.90046691894531,68.59576416015625,,,118.6840591430664,75.90623474121094,36.284671783447266
09-25,35.60477828979492,,,51.695953369140625,79.25865173339844,93.24663543701172,68.15569305419922,,91.58631896972656,120.2634506225586,74.17669677734375,37.07669448852539
09-26,,,35.01326370239258,50.859039306640625,79.5870132446289,94.65888214111328,,84.31501770019531,92.13799285888672,119.94757080078125,72.55345153808594,
09-27,,41.40623092651367,35.89451599121094,52.05463409423828,78.95804595947266,,,83.6537857055664,92.56599426269531,121.56525421142578,72.4471664428711,
09-28,36.14152908325195,41.64673614501953,33.921932220458984,51.52581787109375,,,65.00958251953125,88.75462341308594,92.09043884277344,122.11087036132812,,37.06679153442383
09-29,36.82258987426758,42.572425842285156,33.689056396484375,,,94.64960479736328,65.66503143310547,89.78423309326172,92.01432800292969,,,35.829254150390625
09-30,37.666011810302734,42.18672180175781,32.42423629760742,,78.28744506835938,92.00160217285156,68.16504669189453,91.3522720336914,,,71.71284484863281,35.58174514770508
10-01,36.55646896362305,43.638771057128906,,52.5098876953125,79.61475372314453,89.98541259765625,68.90472412109375,,,123.9487075805664,69.16202545166016,34.51251220703125
10-02,36.425662994384766,,,52.94674301147461,79.71187591552734,90.18051147460938,72.1538314819336,,92.43285369873047,124.43688201904297,67.44215393066406,34.4630126953125
10-03,,,31.237049102783203,51.07976150512695,79.45286560058594,89.72525787353516,,90.78550720214844,91.78606414794922,124.80062103271484,68.44701385498047,
10-04,,43.43458938598633,33.63426208496094,51.23612594604492,80.74317169189453,,,89.86924743652344,91.62435913085938,124.65702819824219,68.5243148803711,
10-05,37.214969635009766,44.165130615234375,35.06803894042969,50.54174041748047,,,75.51525115966797,91.98514556884766,91.83361053466797,125.44193267822266,,36.096561431884766
10-06,38.14862823486328,44.70512390136719,35.862548828125,,,88.35015869140625,77.56582641601562,91.7584457397461,91.4912109375,,,35.631248474121094
10-07,38.20726013183594,44.723270416259766,34.20047378540039,,79.92922973632812,86.97505950927734,78.43661499023438,91.09723663330078,,,67.40350341796875,36.34407043457031
10-08,40.45341110229492,45.131675720214844,,50.50035095214844,79.295654296875,87.85771179199219,81.49842834472656,,,124.27415466308594,66.40829467773438,37.294498443603516
10-09,40.41282653808594,,,51.06597900390625,79.32339477539062,85.44200897216797,81.74187469482422,,91.78606414794922,126.68630981445312,66.27301788330078,37.18560028076172
10-10,,,36.25981140136719,50.35320281982422,80.86803436279297,83.46298217773438,,91.900146484375,92.05238342285156,121.05793762207031,66.58221435546875,
10-11,,45.177040100097656,36.5931396484375,50.50495910644531,82.77809143066406,,,90.72884368896484,92.19506072998047,116.41548919677734,66.91072845458984,
10-12,40.854835510253906,44.88209915161133,36.96299743652344,50.022117614746094,,,80.55272674560547,90.9649887084961,91.9287338256836,116.95149993896484,,37.82911682128906
10-13,40.426361083984375,44.87981414794922,36.702205657958984,,,77.82320404052734,79.85047912597656,90.36695861816406,91.90020751953125,,,38.25483322143555
10-14,41.309547424316406,44.99798583984375,38.422481536865234,,83.73539733886719,77.89754486083984,80.47716522216797,89.40177154541016,,,65.88653564453125,37.244998931884766
10-15,42.07756805419922,45.466094970703125,,50.77743911743164,83.31781005859375,82.08511352539062,81.75311279296875,,,117.32483673095703,66.91072845458984,38.08000183105469
10-16,41.92848587036133,,,52.384830474853516,84.39183807373047,84.97115325927734,82.09086608886719,,92.62242889404297,117.23853302001953,66.15198516845703,37.41999816894531
10-17,,,37.24666213989258,53.0756721496582,83.9751968383789,84.92462158203125,,88.7394027709961,92.85108947753906,115.20559692382812,64.78392791748047,
10-18,,46.05237579345703,39.35581970214844,52.84999465942383,85.08627319335938,,,88.12434387207031,92.09838104248047,113.68091583251953,62.52323913574219,
10-19,42.624202728271484,45.21159362792969,40.202239990234375,52.07624435424805,,,79.56713104248047,89.95059967041016,91.2408676147461,112.83702850341797,,36.189998626708984
10-20,42.651309967041016,45.502464294433594,39.95975112915039,,,86.35834503173828,79.62342071533203,89.80867767333984,92.26990509033203,,,36.279998779296875
10-21,41.98721694946289,44.90254211425781,41.46041488647461,,85.33165740966797,89.40267181396484,78.60082244873047,88.83402252197266,,,65.6474609375,35.119998931884766
10-22,41.3140869140625,44.22536087036133,,51.634098052978516,85.71588897705078,85.7159652709961,80.49594116210938,,,111.4753646850586,67.50064086914062,36.93000030517578
10-23,40.27954864501953,,,50.736000061035156,82.60948944091797,86.95416259765625,80.14881896972656,,92.39374542236328,106.55608367919922,69.8001480102539,37.5099983215332
10-24,,,41.670875549316406,50.98469924926758,83.99370574951172,85.74388122558594,,88.58799743652344,91.92688751220703,101.78060150146484,69.8292465209961,
10-25,,44.293540954589844,40.04209899902344,51.77686309814453,84.92427825927734,,,87.68907165527344,91.6124496459961,102.7203598022461,70.32408142089844,
10-26,39.24045944213867,43.51637649536133,39.996360778808594,52.546016693115234,,,78.23490905761719,87.18754577636719,92.34610748291016,102.183349609375,,34.93000030517578
10-27,39.19981002807617,43.52092361450195,42.47611618041992,,,82.32719421386719,77.58757781982422,86.80906677246094,93.82296752929688,,,34.58000183105469
10-28,38.07039260864258,43.14825439453125,43.54670715332031,,84.45205688476562,85.185302734375,79.54837799072266,85.91958618164062,,,68.9366226196289,32.5099983215332
10-29,38.77967834472656,43.502750396728516,,,85.68350982666016,86.70280456542969,80.23326873779297,,,97.84900665283203,69.67401123046875,33.970001220703125
10-30,36.89128112792969,,,,83.48446655273438,85.8556137084961,80.5428466796875,,94.83293914794922,101.17648315429688,67.54915618896484,34.2400016784668
10-31,,,40.91598129272461,53.6513786315918,82.5909652709961,88.49030303955078,,85.55999755859375,95.15689849853516,101.01345825195312,67.24836730957031,
11-01,,43.661800384521484,39.29177474975586,53.83099365234375,82.8594741821289,,,86.26024627685547,97.46269226074219,102.49980926513672,69.03365325927734,
11-02,37.031333923339844,44.42078399658203,43.94017028808594,53.0572509765625,,,80.74923706054688,86.05205535888672,98.091552734375,98.1462631225586,,35.150001525878906
11-03,37.49665451049805,40.2850456237793,45.765682220458984,,,86.87968444824219,82.98212432861328,87.13079071044922,99.56839752197266,,,35.02000045776367
11-04,38.53572082519531,40.12596130371094,46.520591735839844,,84.93351745605469,84.04952239990234,81.12452697753906,86.8658447265625,,,71.49810028076172,36.040000915527344
11-05,39.76904296875,40.27140808105469,,53.798770904541016,83.2066879272461,89.46784210205078,81.12452697753906,,,101.98197174072266,71.80857849121094,35.599998474121094
11-06,40.817142486572266,,,56.17988967895508,81.77617645263672,92.13977813720703,79.99870300292969,,101.91230773925781,102.9217300415039,69.29560852050781,34.58000183105469
11-07,,,46.28723907470703,55.267967224121094,79.43363189697266,92.67975616455078,,88.40823364257812,101.08335876464844,104.66697692871094,72.5168685913086,
11-08,,40.65771484375,46.62581253051758,53.31977081298828,79.14659881591797,,,88.34198760986328,99.40641021728516,100.54358673095703,72.4780502319336,
11-09,41.74325942993164,41.80753707885742,44.94214630126953,52.744049072265625,,,80.09252166748047,88.40823364257812,99.83516693115234,101.17648315429688,,40.310001373291016
11-10,41.19210433959961,42.66651153564453,45.77024459838867,,,91.70219421386719,81.22771453857422,87.65120697021484,99.64461517333984,,,42.189998626708984
11-11,40.7719612121582,42.771034240722656,47.58659744262695,,79.37344360351562,91.93494415283203,78.16925811767578,86.49679565429688,,,71.62422180175781,41.90999984741211
11-12,40.144004821777344,41.83480453491211,,52.85460662841797,77.3595962524414,90.82707977294922,76.63999938964844,,,97.0914535522461,71.1099853515625,40.4900016784668
11-13,39.98137283325195,,,53.094093322753906,78.4521484375,89.2350845336914,77.16539764404297,,99.53028869628906,94.47356414794922,70.45022583007812,42.66999816894531
11-14,,,47.4767951965332,52.209815979003906,78.54937744140625,91.38569641113281,,87.69853973388672,97.63420867919922,94.04206085205078,70.19795227050781,
11-15,,42.007503509521484,46.83171081542969,53.499393463134766,79.34102630615234,,,89.48695373535156,96.57659912109375,97.41747283935547,71.29434967041016,
11-16,40.898460388183594,41.38033676147461,46.06763458251953,53.734283447265625,,,79.54837799072266,90.10202026367188,96.64327239990234,100.87920379638672,,45.349998474121094
11-17,40.649986267089844,40.980384826660156,44.3885383605957,,,89.70059967041016,77.85026550292969,87.37678527832031,96.84335327148438,,,45.66999816894531
11-18,40.08980941772461,41.862083435058594,44.76369857788086,,78.01699829101562,90.92948913574219,79.88611602783203,88.14325714111328,,,69.140380859375,46.95500183105469
11-19,39.267581939697266,42.24838638305664,,54.627777099609375,77.72532653808594,91.5439453125,77.54067993164062,,,101.36827087402344,68.30595397949219,
11-20,39.06428146362305,,,54.07048797607422,77.2762451171875,92.57733917236328,77.52190399169922,,96.6528091430664,98.1558609008789,69.91657257080078,
11-21,,,43.92645263671875,54.411312103271484,78.3827133178711,94.71861267089844,,90.52781677246094,96.8624267578125,101.64635467529297,71.13909149169922,
11-22,,42.03932189941406,43.45520782470703,,78.77161407470703,,,90.14930725097656,96.79572296142578,,70.81890869140625,
11-23,39.8368034362793,40.31230163574219,41.913360595703125,54.802799224853516,,,77.46561431884766,91.78633880615234,,96.56403350830078,,
11-24,40.00395584106445,40.812232971191406,,,,92.6890640258789,79.87674713134766,,96.8624267578125,,,
11-25,40.52800750732422,,41.574798583984375,,78.3271713256836,90.06365966796875,78.36627960205078,90.82117462158203,,,71.33314514160156,
11-26,,40.41228485107422,,53.725074768066406,78.33177947998047,87.57794952392578,,,,98.32846069335938,69.77104949951172,
11-27,39.40763473510742,,,53.00197982788086,77.04940795898438,,76.9496078491211,,95.10926055908203,97.76270294189453,70.19795227050781,
11-28,,,43.73428726196289,53.586891174316406,,80.73521423339844,,88.44606018066406,95.12830352783203,99.50794219970703,,
11-29,,40.54862976074219,44.94214630126953,54.18102264404297,76.38737487792969,,,87.47144317626953,95.75716400146484,101.13813018798828,68.79109191894531,
11-30,39.07332992553711,40.42593002319336,47.46306228637695,54.17182159423828,,,78.27245330810547,97.00963592529297,97.49128723144531,99.06683349609375,,
12-01,39.886497497558594,41.6439323425293,46.90947341918945,,,81.21930694580078,78.85413360595703,99.1197738647461,98.0534439086914,,,
12-02,39.34436798095703,42.65740966796875,46.923194885253906,,76.38737487792969,84.06810760498047,75.861328125,98.16405487060547,,,68.6843490600586,
12-03,39.24045944213867,42.602874755859375,,53.99681091308594,76.60960388183594,85.46458435058594,75.98328399658203,,,103.66968536376953,66.73413848876953,
12-04,39.33534240722656,,,53.96916580200195,77.37348175048828,86.58179473876953,75.51420593261719,,96.28121948242188,99.79562377929688,69.90689086914062,
12-05,,,46.71731185913086,54.678443908691406,76.56330871582031,84.48706817626953,,98.84536743164062,96.13829040527344,,68.49030303955078,
12-06,,42.89374542236328,47.989219665527344,54.51264190673828,74.09113311767578,,,98.3816909790039,94.1945571899414,97.93529510498047,71.76005554199219,
12-07,39.42570114135742,42.1347770690918,47.13822937011719,54.04747009277344,,,71.47999572753906,97.96537017822266,95.01396942138672,99.3545150756836,,
12-08,38.513126373291016,41.90298080444336,46.04018020629883,,,82.1037368774414,72.34315490722656,99.29010772705078,95.65235137939453,,,
12-09,38.71190643310547,41.9166145324707,47.46764373779297,,73.21150970458984,82.99748229980469,73.53463745117188,100.72840881347656,,,72.29370880126953,
12-10,39.15464401245117,41.24399948120117,,54.22248458862305,73.75316619873047,80.80034637451172,73.34700012207031,,,97.53255462646484,72.61388397216797,
12-11,38.874549865722656,,,54.68306350708008,72.3411636352539,80.86552429199219,70.26036834716797,,96.43367004394531,97.87775421142578,72.4489517211914,
12-12,,,46.23234176635742,55.60877990722656,73.31336212158203,80.40933990478516,,100.1417236328125,95.54753875732422,99.66136932373047,74.42826080322266,
12-13,,41.22126007080078,45.06566619873047,54.581729888916016,73.6189193725586,,,102.20458221435547,95.22357940673828,98.60655975341797,73.24455261230469,
12-14,40.835208892822266,41.653018951416016,42.627098083496094,54.802799224853516,,,72.1086196899414,98.60879516601562,94.93775177001953,95.96951293945312,,
12-15,41.47219467163086,40.95764923095703,43.20813751220703,,,79.450439453125,72.52140045166016,98.33438110351562,93.89920043945312,,,
12-16,42.15436553955078,41.13491439819336,44.69050216674805,,73.9522705078125,79.57147216796875,71.11414337158203,98.41008758544922,,,75.59258270263672,
12-17,41.802001953125,41.66210174560547,,55.7147216796875,73.91056823730469,84.85013580322266,68.76868438720703,,,92.25843811035156,76.46580505371094,
12-18,41.991729736328125,,,57.07337951660156,74.99850463867188,86.06974792480469,67.0142822265625,,95.19500732421875,90.1488265991211,78.1928482055664,
12-19,,,43.72514343261719,56.3963508605957,76.54015350341797,88.46235656738281,,97.91803741455078,96.64327239990234,89.1611099243164,78.83322143554688,
12-20,,41.56665802001953,44.823184967041016,57.280635833740234,78.01699829101562,,,97.61524200439453,98.65370178222656,86.05419158935547,80.20128631591797,
12-21,42.7778205871582,41.653018951416016,44.91926193237305,56.91218948364258,,,65.90723419189453,97.03803253173828,101.33109283447266,83.6760482788086,,
12-22,44.169254302978516,41.90298080444336,44.98788833618164,,,88.4996109008789,65.49443054199219,97.58685302734375,102.05522155761719,,,
12-23,45.12699508666992,41.562129974365234,44.96043395996094,,77.60032653808594,89.75645446777344,69.13457489013672,96.54598236083984,,,80.89986419677734,
12-24,45.4387092590332,,,56.54372787475586,77.89662170410156,87.55931091308594,68.88125610351562,,,79.4567642211914,81.31707000732422,
12-26,,,,55.98183822631836,77.78549194335938,87.3451919555664,,,104.2466812133789,85.33499908447266,81.1618423461914,
12-27,,40.95764923095703,45.29899597167969,56.0186882019043,78.31327819824219,,,97.02857971191406,103.24623107910156,85.14320373535156,80.66700744628906,
12-28,45.145057678222656,40.894039154052734,44.123172760009766,54.627777099609375,,,66.13237762451172,96.1864013671875,103.33197784423828,83.92536163330078,,
12-29,44.84689712524414,41.4439582824707,44.85977554321289,,,87.82001495361328,66.69529724121094,95.8362808227539,102.81746673583984,,,
12-30,44.63908386230469,41.698463439941406,45.07024002075195,,77.47532653808594,86.302490234375,66.24494934082031,95.66594696044922,,,79.93931579589844,
12-31,43.9569206237793,41.543941497802734,,55.63180923461914,77.70217895507812,85.7159652709961,66.4138412475586,,,83.62809753417969,81.26856231689453,
