,2009,2010,2011,2012,2013,2014,2015,2016,2017,2018,2019,2020,ups,downs,end_day_sum,avg
01-02,-4.349237442016602,0.5473003387451172,0.06842803955078125,-0.7042045593261719,2.4675979614257812,0.7830810546875,-1.8767967224121094,-2.953269958496108,0.29355621337889204,-0.43286895751953125,4.515541076660156,2.9927291870117188,7.0,5.0,01-17,0.11265468597411872
01-03,-3.7291069030761683,0.5473003387451172,0.05132293701171875,-0.6955108642578125,2.3172378540039134,1.0350837707519531,0.0,-2.953269958496108,0.4545288085937358,-0.9137954711914062,5.481071472167969,2.63714599609375,7.0,5.0,01-18,0.35266733169555514
01-04,-3.7291069030761683,0.45467376708984375,0.556079864501946,-0.6172714233398438,1.7246589660644602,1.3501052856445312,0.0,-3.102355957031264,-0.8427886962890625,0.7983627319335938,3.550018310546875,2.6272659301757812,7.0,5.0,01-19,0.2308034896850577
01-05,-3.2908744812011683,0.033687591552734375,1.0009498596191406,0.12172317504882812,2.096130371093757,1.3501052856445312,-0.7507057189941477,-3.353893280029304,0.00946807861328125,-0.06732940673828125,2.6917800903320312,2.6272659301757812,8.0,4.0,01-20,0.20569229125976532
01-06,-2.951858520507809,0.11787796020507812,1.0266304016113281,0.2086639404296875,2.096130371093757,1.3501052856445312,0.5126724243164062,-2.850788116455078,-0.01892852783203125,-0.34626007080078125,2.6917800903320312,4.118705749511719,8.0,4.0,01-21,0.49622758229573655
01-07,-3.1172218322753906,-0.27786827087402344,1.1036376953125,0.260833740234375,2.5118141174316406,0.38703155517578125,-0.0640869140625,-1.798046112060554,-0.18938446044921875,0.038482666015625,3.8816070556640483,4.355758666992173,7.0,5.0,01-22,0.5910464922587048
01-08,-2.736883163452145,-0.3031196594238281,1.0522880554199219,0.5042533874511719,0.5395011901855469,-0.9361076354980398,-1.6204490661621094,-1.9098472595214915,-0.8996047973632812,1.3562698364257812,4.066925048828111,2.3803634643554545,6.0,6.0,01-23,0.12446578343709103
01-09,-1.7942695617675746,-0.3283824920654297,0.684417724609375,-0.20865249633789062,0.7429351806640625,-0.6840438842773438,-1.0345306396484304,-1.8539314270019602,-1.9317779541015625,1.029205322265625,2.8868331909179545,0.9975662231445312,5.0,7.0,01-24,-0.12455256779988695
01-10,-1.6619739532470632,-0.6230716705322266,0.4876251220703125,-0.321685791015625,0.8225402832031179,-0.9540672302246094,-0.9429817199707031,-2.9066848754882812,-0.35039520263673296,1.8564224243164062,2.7307891845702983,-0.1185302734375,4.0,8.0,01-25,-0.1651678085327172
01-11,-1.9761753082275355,-0.6314945220947266,0.7015113830566335,-0.31299591064452414,0.6810302734375,-0.12598419189453125,-0.6042366027832031,-1.4626541137695312,0.47347259521485796,1.87567138671875,2.5844879150390625,-0.5234832763671875,5.0,7.0,01-26,0.056595802307130384
01-12,-1.9596385955810476,-0.6483573913574219,0.29943084716797586,0.25211334228515625,0.5129928588867188,-0.7470474243163991,-1.4739646911621094,-2.501258850097649,0.09469604492188921,1.5774993896484375,3.3354721069335938,1.1556167602539205,7.0,5.0,01-27,-0.008537133534744612
01-13,-1.686782836914059,-0.7493686676025355,0.5646286010742188,0.24341964721679688,0.76947021484375,-2.3851966857910085,-1.0241851806640696,1.7618942260742188,-0.06627655029295454,1.8852920532226562,3.091644287109375,0.90869140625,7.0,5.0,01-28,0.27610254287719904
01-14,0.2749977111816371,-0.47993469238280895,0.3165245056152344,0.06954574584960938,0.7075576782226562,-4.143264770507805,-1.3115463256835938,1.6864089965820455,0.08522796630860796,3.0684127807617188,3.3452301025390483,0.355560302734375,9.0,3.0,01-29,0.3312266667683937
01-15,0.7840518951416016,-0.025260925292965197,-0.19677734375,0.4086341857910085,-0.23312759399414062,-3.674285888671868,-1.2964744567871023,2.319919586181662,-0.0189361572265625,2.789459228515625,2.9941177368164062,-0.3758087158203125,5.0,7.0,01-30,0.28962596257527934
01-16,1.3215084075927734,-0.5725612640380824,-0.325092315673821,0.521636962890625,0.531269073486321,-3.9543838500976562,-1.92816162109375,2.27331924438478,0.094696044921875,1.4332122802734375,3.4831085205078125,-1.8969650268554688,7.0,5.0,01-31,0.08179887135823716
01-17,2.429483413696289,-0.8167304992675781,-1.0779457092285156,0.5827522277832031,0.062252044677734375,-3.2703208923339844,-1.6901397705078125,2.666332244873047,-0.2667236328125,1.1263885498046875,2.312858581542983,-1.008033752441392,6.0,6.0,02-01,0.08751440048218011
01-18,2.0638637542724574,-1.1872196197509766,-0.7086868286132812,0.47948455810547586,-0.19423294067382812,-3.2073097229003977,-0.8533592224121094,4.75305557250978,-0.18054962158203125,0.480987548828125,0.5963592529297017,0.6611785888671875,6.0,6.0,02-02,0.22529760996500858
01-19,1.5486698150634766,-0.9927291870117188,0.17452621459960938,1.213928222656257,0.0799407958984375,-2.43927001953125,-0.7522087097167969,4.200962066650391,1.4522247314453125,-0.8367996215820312,1.8154449462890625,1.2556304931640625,8.0,4.0,02-03,0.560026645660401
01-20,0.8589763641357422,-0.15728950500489347,0.4651069641113281,1.9268341064453196,-0.21332931518554688,-2.8097419738769602,-0.35680770874022727,3.544750213623054,2.4843978881835938,0.269378662109375,2.950706481933608,0.235137939453125,8.0,4.0,02-04,0.7665100097656264
01-21,-0.1495742797851598,0.06975364685058594,0.6618995666503906,1.900756835937507,0.4087715148925781,-4.96026611328125,-0.5401802062988281,6.309906005859375,1.7173843383789062,-0.290557861328125,3.3715362548827983,1.9491500854492188,8.0,4.0,02-05,0.8707149823506665
01-22,-0.10128021240234375,0.07817649841308594,0.12291336059570312,1.2546653747558594,0.3909873962402344,-4.1567230224609375,-1.1088066101074148,4.865875244140625,1.1372146606445312,-1.2945709228515625,3.6651535034179688,1.6223373413085795,8.0,4.0,02-06,0.5396618843078608
01-23,-0.11781692504883168,0.07817649841308594,-0.0488433837890625,1.865814208984375,0.8788757324218821,-3.3820533752441477,-0.23907852172850852,5.88584899902343,1.5652313232421875,-3.7655258178710938,3.9423675537109375,0.854736328125,7.0,5.0,02-07,0.6264777183532712
01-24,-0.41548156738281605,-0.6828441619873047,0.12291336059570312,1.987537384033196,0.9423255920410156,-1.7439041137695384,-0.5057487487792898,5.034317016601555,0.12406158447264204,-3.9468536376953125,4.695114135742202,1.1016616821289205,7.0,5.0,02-08,0.5594248771667477
01-25,-0.11632347106933594,-0.7420253753662145,0.9212570190429616,1.6569404602050781,1.0042381286621094,-0.9939308166503906,0.03678131103515625,3.9862899780273366,-0.3614654541015767,-5.072059631347656,4.441528320312528,1.723930358886733,7.0,5.0,02-09,0.5404300689697275
01-26,0.5318164825439453,-0.5900440216064595,0.9994888305664062,1.0995826721191548,1.6618843078613281,-0.8132171630859375,0.5149459838867188,2.376800537109389,0.5225906372070312,-4.7931060791015625,3.963653564453139,1.3870697021484517,9.0,3.0,02-10,0.5717887878418004
01-27,-0.38223457336425426,-0.538558959960941,0.84442138671875,0.9865798950195384,1.6263465881347585,0.08133697509765625,0.6988449096679688,3.8927001953125,0.40895843505859375,-3.436859130859375,4.31597900390625,0.564735412597642,9.0,3.0,02-11,0.7551875114440906
01-28,-2.3349838256835938,-0.5818672180175746,1.5972747802734446,0.9254646301269602,1.306396484375,-0.23492431640625,1.5080490112304616,3.2938461303710938,0.7703781127929688,-5.821388244628906,3.767913818359375,-0.16843414306640625,7.0,5.0,02-12,0.33564376831054776
01-29,-1.7533130645751918,-0.21137809753417613,1.2280158996582102,1.4231338500976562,0.45323944091796875,0.4246826171875,0.6252975463867188,1.2071228027343608,0.7893905639648295,-5.068382263183594,3.6798248291015625,0.10898590087892046,9.0,3.0,02-13,0.2422183354695638
01-30,-1.238119125366211,-0.40586853027343395,1.3482437133789062,0.7945060729980469,0.7554054260253906,-0.2439727783203196,0.5241470336914062,1.75921630859375,1.949737548828125,-4.9139251708984375,4.2670440673828125,-1.8130950927734375,7.0,5.0,02-14,0.23194328943888318
01-31,-0.5484256744384766,-0.40586853027343395,1.2194328308105469,0.0,1.457477569580071,0.12649917602539062,0.12874603271483664,1.75921630859375,1.388580322265625,2.2204208374023438,3.601547241210909,-0.7926025390625,8.0,4.0,02-15,0.8462519645690886
02-01,-0.5484256744384766,1.9786453247070312,0.4723167419433594,-1.0564498901367188,0.835376739501946,2.2770233154296804,0.12874603271483664,1.880836486816392,-0.10462188720703125,3.687835693359375,3.1807174682617188,-2.5066146850585938,8.0,4.0,02-16,0.8521154721577933
02-02,-0.3240699768066406,1.657325744628917,0.5152473449707031,-0.3405036926269531,0.8531608581542898,2.2770233154296804,0.4873657226562358,3.7242507934570312,-0.1236419677734375,4.6918487548828125,2.8871002197265483,-2.5066146850585938,8.0,4.0,02-17,1.1498743693033828
02-03,-0.7146186828613388,1.496673583984375,0.6784095764160156,-0.9516525268554688,0.8531608581542898,2.7107582092285085,1.0023002624511719,0.7486114501953125,-0.5516586303710938,7.02813720703125,2.8871002197265483,-1.0303878784179688,8.0,4.0,02-18,1.1797361373901334
02-04,-1.4292411804199183,1.9955596923828125,0.50665283203125,-0.9516525268554688,0.7642974853515625,2.3854331970214915,1.8666648864746094,1.057403564453125,-0.1426696777343608,7.02813720703125,1.8790512084960938,-0.27741241455075283,8.0,4.0,02-19,1.2235186894734744
02-05,-1.8945846557617188,2.0547409057617223,-0.214691162109375,-0.9516525268554688,0.497669219970696,2.4215927124023438,1.85748291015625,2.1054306030273438,-0.1426696777343608,7.520515441894531,0.8514556884765625,-2.585876464843764,7.0,5.0,02-20,0.9599510828653969
02-06,-2.542724609375,1.9532699584961044,-0.214691162109375,-0.6548004150390625,0.7465362548828125,1.8252372741699219,1.3793182373046875,0.3181610107421733,0.8084259033203267,7.761848449707031,-0.03913879394532671,-2.4967193603515625,7.0,5.0,02-21,0.7370602289835609
02-07,-2.060775756835934,2.3253288269043075,0.06011199951171875,-0.5412979125976562,-0.533222198486321,0.9306831359863281,2.0046157836914062,0.2526550292968608,1.1127777099609375,6.9605865478515625,0.3033905029296875,-1.6743850708007528,8.0,4.0,02-22,0.761705716451012
02-08,-2.3433055877685547,2.511356353759769,-0.28338241577147727,-0.6024208068847727,-0.2132720947265625,1.002979278564446,2.0137863159179688,-0.14035797119142046,0.9891204833984375,8.476249694824219,0.8514556884765625,-0.7827072143554545,6.0,6.0,02-23,0.9566251436869301
02-09,-2.4596385955810547,2.367605209350586,-0.8587493896484446,-1.1437416076660156,-0.14218902587890625,1.3011512756347585,2.3172492980957102,-1.5065383911132812,0.656272888183608,7.723243713378906,0.5480728149414062,-0.8619613647460938,6.0,6.0,02-24,0.661731402079265
02-10,-2.3183670043945312,2.5197944641113175,-1.5715179443359375,-0.5151138305664062,-0.17774200439453125,1.1114044189453054,2.3356170654296946,-1.2352066040039062,-0.5040740966796875,7.2984771728515625,1.3897323608398438,-3.7847061157226562,5.0,7.0,02-25,0.37902482350667227
02-11,-1.720083236694336,0.465057373046875,-1.4427070617675781,0.02619552612303977,0.34660720825196023,0.4879341125488281,2.409198760986328,-0.3836364746093608,-0.1616668701171875,7.732902526855469,0.34255218505860796,-6.776824951171889,7.0,5.0,02-26,0.1104607582092297
02-12,-1.6452960968017685,0.3466835021972656,-1.2366104125976562,0.6460838317870952,-0.5421104431152344,0.5963668823242188,1.6367797851562642,-1.3006668090820312,-0.29485321044921875,8.099746704101562,-0.743804931640625,-7.6982269287109375,5.0,7.0,02-27,-0.17799234390258878
02-13,-1.2962913513183594,0.574981689453125,-1.5371589660644531,0.7071952819824148,-0.6309776306152273,0.46985626220703125,1.1862144470214915,-0.0374298095703125,-0.06656646728515625,1.0233230590820312,-1.458236694335909,-11.41357421875,5.0,7.0,02-28,-1.0398886998494437
02-14,-0.3157615661621236,0.498882293701179,-1.0305023193359375,0.7857818603515554,0.2932853698730469,0.15362930297850852,0.5517311096191406,0.36490631103515625,0.6182098388671875,-1.1198654174804688,-0.3523101806640625,-11.879234313964858,7.0,5.0,02-29,-0.9526039759318063
02-15,-0.2908287048339879,0.6426200866699219,-0.8845062255859304,0.29685211181640625,0.25774383544921875,-0.036136627197265625,0.9287528991699148,-0.580169677734375,1.2459259033203125,-1.689483642578125,-0.5186920166015625,-10.482269287109375,5.0,7.0,03-01,-0.9258492787679039
02-16,0.04986000061034801,1.0484962463378906,-1.485626220703118,0.02619171142578125,-0.3110504150390625,0.47890090942383523,0.5701141357421804,-0.22460174560545454,1.7690277099609375,-2.326629638671875,-0.13701629638671875,-12.7412109375,6.0,6.0,03-02,-1.1069620450337714
02-17,-1.3461475372314524,1.5643157958984375,-1.78619384765625,-0.0349273681640625,0.16884231567382812,1.0752525329589844,1.1494293212890554,1.0573883056640625,2.054351806640625,-1.583282470703125,0.1761627197265625,-14.058929443359375,7.0,5.0,03-03,-0.9636448224385591
02-18,-1.3960075378418004,1.4712867736816406,-1.769023895263679,0.24446487426757812,-0.24886703491210938,0.3162574768066406,0.055156707763671875,1.0386734008789205,1.3981170654296875,-1.988739013671875,-0.7242355346679545,-11.572113037109375,6.0,6.0,03-04,-1.0979191462198878
02-19,-0.6979999542236293,1.285259246826179,-0.9102745056152344,0.38414764404296875,-0.3110504150390625,1.111400604248054,-0.20228958129882812,1.4316864013672017,1.1603469848632812,-1.3322677612304688,0.05870819091796875,-12.136833190917983,6.0,6.0,03-05,-0.8465971946716294
02-20,-0.5816669464111293,1.2007179260253906,0.11164474487303977,0.6111755371093821,1.3597297668457031,0.9758834838867188,-0.5057525634765696,1.5065383911132812,1.37908935546875,-0.6371688842773438,-0.7731552124023438,-7.420814514160156,7.0,5.0,03-06,-0.23114824295043976
02-21,0.2825241088867223,1.2007179260253906,-0.47231292724609375,0.7421188354492188,1.910736083984368,1.1656303405761719,-0.5976905822753906,2.2457733154296733,1.0081787109375,0.5888824462890625,-2.573913574218764,-4.498069763183594,8.0,4.0,03-07,0.08354791005452207
02-22,-0.39055824279785156,1.801067352294929,-0.6183013916015554,-0.253192901611321,1.3863868713378764,1.4095916748046875,-1.1402130126953125,2.994392395019517,1.1508102416992188,-0.45374298095703125,-1.5267333984375284,-1.7536544799804688,5.0,7.0,03-08,0.21715434392292998
02-23,-0.6066055297851598,2.029369354248054,1.6573867797851562,-0.8468971252441264,2.0262718200683523,1.2469367980957102,-1.8390769958496094,2.6668930053710938,1.7310104370117188,-0.820587158203125,-1.047172546386733,-5.1816864013671875,6.0,6.0,03-09,0.08465353647867868
02-24,-1.6286792755126953,1.46282958984375,1.5801010131835938,-0.908008575439446,2.1595687866210938,1.2288665771484375,-1.9494400024414062,1.7591934204101562,1.5027236938476562,-0.6178512573242188,-1.6441726684570312,-1.8923492431640767,6.0,6.0,03-10,0.08773183822631776
02-25,-1.0885505676269425,1.6319541931152273,1.0734443664550781,-0.908008575439446,2.7994461059570312,0.8674468994140625,-1.931041717529304,1.4130172729492188,1.3885955810546875,-0.8012771606445312,-1.0667495727539062,-5.439285278320298,6.0,6.0,03-11,-0.1717507044474269
02-26,-1.254751205444336,1.4882164001464844,0.9618072509765554,0.03491973876953125,2.568378448486328,0.10842514038085938,-2.666675567626953,2.35809326171875,1.3030014038085938,0.0868988037109375,0.6948547363281108,-0.6836318969726705,9.0,3.0,03-12,0.41662804285684923
02-27,-1.5954399108886719,1.0823402404785156,-0.12022018432617898,0.27066802978516336,1.7418594360351562,-0.424694061279304,-2.3080368041992188,2.0025253295898295,2.1970291137695312,1.2357101440429688,0.8318710327148438,-3.2893218994140625,7.0,5.0,03-13,0.1353575388590477
02-28,-0.19943237304687145,1.1415290832519531,-0.02576065063477273,0.7421188354492259,1.2353134155273438,-1.0210456848144531,-2.8873519897460938,1.553352355957017,2.1304550170898438,1.0426559448242188,0.5382690429687642,-1.9716033935546875,7.0,5.0,03-14,0.18987496693929065
02-29,0.0,0.0,0.0,1.4231185913085938,0.0,0.0,0.0,1.937019348144517,0.0,0.0,0.0,-4.4584197998046875,2.0,1.0,03-15,-0.0915234883626314
03-01,0.46533203125,1.1753501892089844,0.8072166442871023,1.3271026611328125,1.6530227661132812,-0.2620506286621094,-2.7034454345703054,0.69244384765625,0.4470062255859375,1.0329818725585938,1.4386672973632812,-9.095191955566406,9.0,3.0,03-16,-0.25179704030354816
03-02,0.8641948699951207,0.5834274291992259,0.214691162109375,1.1000747680663991,1.7152061462402344,-1.0662193298339844,-3.126434326171875,1.637580871582017,1.360076904296875,0.3765106201171875,0.655723571777358,-7.1235809326171875,9.0,3.0,03-17,-0.23406235376993786
03-03,1.0386962890625,0.591899871826179,-1.1163711547851491,0.9691314697265625,1.8485069274902344,-0.740936279296875,-1.9310302734375,1.2632522583007812,1.1413345336914062,-0.3185882568359375,1.2527084350585938,-14.742546081542969,7.0,5.0,03-18,-0.8953285217285144
03-04,1.113479614257809,0.727191925048821,-0.5324134826660156,1.344554901123054,2.0440330505371094,-0.7138252258300852,-1.8482704162597656,0.5146331787109375,1.5122451782226562,-0.11585235595703125,1.4093093872070312,-10.888473510742188,7.0,5.0,03-19,-0.45278231302897226
03-05,3.0994720458984375,0.12684249877928266,-0.386425018310554,1.2135887145996094,1.5641326904296875,-0.4156608581542969,-0.99310302734375,0.776641845703125,1.2649383544921875,-0.2413482666015625,2.1922378540039062,-7.163208007812486,7.0,5.0,03-20,0.08650906880696556
03-06,3.3155193328857457,0.033828735351555395,-0.309154510498054,2.1215934753417898,1.2708511352539134,-0.8041877746582102,-0.2942390441894531,1.4410476684570312,1.3600616455078125,-0.7819747924804688,3.0436859130859517,-10.452545166015597,7.0,5.0,03-21,-0.004626115163165245
03-07,3.5232582092285156,-0.19446945190429688,0.19751358032225852,1.9295196533203054,1.8840713500976562,-0.7861175537109375,-0.21148681640625,1.0948104858398438,2.25408935546875,-0.34754180908203125,3.98321533203125,-4.656578063964844,7.0,5.0,03-22,0.7225236892700183
03-08,3.9470481872558594,-0.549610137939446,-0.635467529296875,0.8818130493164134,1.2441940307617188,-0.6325149536132812,-0.49654388427734375,1.487823486328125,0.789398193359375,-0.34754180908203125,3.405792236328125,-2.5462646484375284,6.0,6.0,03-23,0.5456771850585925
03-09,3.481710433959961,-0.41432952880859375,-0.32633209228515625,0.6460647583007812,1.1553268432617188,-0.8132286071777344,-0.8735580444335938,2.0773468017578125,0.9511032104492188,-1.2357177734375,1.88885498046875,-8.857406616210952,6.0,6.0,03-24,-0.1933471361796073
03-10,3.7393016815185547,-0.2874908447265625,0.8157997131347656,0.59368896484375,0.808727264404304,-0.7319183349609304,-0.33103179931640625,2.526519775390625,0.05707550048828125,-1.1488189697265625,3.4449539184570455,-19.874687194824205,7.0,5.0,03-25,-0.865656693776445
03-11,3.573110580444336,-1.0231399536132741,0.7213401794433594,0.34923553466796164,0.7909584045410156,-0.7861099243163991,0.12873077392578836,2.142852783203125,0.095123291015625,-2.7224273681640625,1.7714157104492188,-10.918205261230469,8.0,4.0,03-26,-0.4897596041361479
03-12,3.2989006042480504,-1.0569610595703054,0.498077392578125,0.6024093627929688,0.56878662109375,-0.7951393127441406,-0.5333404541015696,2.6481781005859375,0.38994598388671875,-3.8712692260742188,2.2020263671875,-4.181022644042969,7.0,5.0,03-27,-0.019117355346679393
03-13,2.9000377655029297,-0.7187232971191406,0.6268882751464844,0.44527435302733664,1.1730995178222656,-0.5240821838378906,-0.1103515625,2.7136764526367188,-0.1236419677734375,-2.2108001708984375,3.092620849609361,-6.1526336669921875,6.0,6.0,03-28,0.09261369705200018
03-14,2.9415817260742188,-0.9808540344238352,0.4894981384277344,0.2881011962890625,1.0397987365722656,-0.849365234375,-0.7448310852050781,2.0118637084960938,0.08560943603515625,-1.9211578369140625,2.5739288330077983,2.2787551879882812,8.0,4.0,03-29,0.6010773976643863
03-15,4.246181488037109,-0.7441062927246165,1.0476760864257812,0.04364395141600852,0.8442726135253906,-1.2559776306152344,-0.7448310852050781,2.0118331909179688,-0.16170501708984375,-2.1238937377929688,2.417327880859361,8.243148803710952,7.0,5.0,03-30,1.1519641876220692
03-16,3.930421829223633,-0.6510925292968821,1.2881088256835938,0.17461013793945312,0.96868896484375,-1.1475639343261648,-0.5609169006347585,1.8340682983398438,0.05707550048828125,-1.9983978271484375,1.7714080810546733,6.063468933105469,8.0,4.0,03-31,0.9774899482727045
03-17,2.48455810546875,-0.6426315307617116,1.8978347778320312,0.3055686950683594,1.1375312805175852,-0.6234779357910156,0.08275604248047586,1.3755340576171875,-0.03804779052734375,-1.8149566650390625,2.4271316528320312,3.9927749633789062,8.0,4.0,04-01,0.8820479710896828
03-18,1.3295307159423864,-0.4143333435058594,1.3911666870117188,0.2793693542480469,1.5908012390136719,0.5692558288574148,-0.39540863037109375,1.721771240234375,-0.7608718872070312,-1.5446319580078125,2.6228561401367188,2.764221191406236,8.0,4.0,04-02,0.7628105481465642
03-19,0.8641910552978516,-0.05919265747071023,0.5410003662109375,0.15714645385742188,1.0309181213378906,1.9788589477539062,-0.1103515625,1.2632675170898438,-0.93206787109375,-0.12548828125,4.022361755371094,-2.645324707031236,7.0,5.0,04-03,0.49877659479777076
03-20,1.32952880859375,0.04228973388671875,0.9789657592773438,0.5238265991210938,0.5154609680175852,2.2408599853515625,0.26666259765625,0.9638290405273438,-0.8084182739257812,-1.7859954833984375,3.200294494628892,3.6658172607421875,10.0,2.0,04-04,0.9277601242065424
03-21,0.232666015625,-0.2874794006347656,1.5371589660644531,0.8556175231933594,0.3377113342285085,2.1595497131347585,0.119537353515625,1.6001434326171875,-0.3043365478515625,-0.028961181640625,1.8888626098632812,12.16656494140625,9.0,3.0,04-05,1.6897528966267892
03-22,1.620361328125,-0.16064834594726562,1.9150123596191406,1.1000709533691477,0.3554801940917969,2.6655387878417898,0.23907470703125,0.786041259765625,-0.1046295166015625,1.6894454956054688,3.562400817871108,12.10711669921875,10.0,2.0,04-06,2.147938728332521
03-23,1.695150375366211,-0.2452087402343821,2.2155685424804688,0.8468971252441406,0.5687713623046875,2.2499008178710866,-0.22069168090820312,-0.374298095703125,-1.0271759033203125,2.838287353515625,2.8968963623047017,10.16522216796875,8.0,4.0,04-07,1.8007766405741374
03-24,2.0026092529296875,0.4988861083984304,2.0695877075195312,0.2968406677246236,0.5954360961914062,1.6716156005859304,-0.1103515625,0.5520858764648438,-0.5135879516601562,1.4481124877929688,3.5134658813476562,12.582687377929688,10.0,2.0,04-08,2.0506156285603843
03-25,0.6564598083496094,0.8963088989257812,2.2069778442382812,-0.11350631713866477,0.07999038696289062,1.1385040283203125,0.11954116821289062,-0.30879974365234375,-0.5135879516601562,2.1142578125,4.139808654785156,10.838943481445312,9.0,3.0,04-09,1.7712415059407558
03-26,-0.6481399536132812,0.6595611572265625,2.26708984375,-0.5063781738281179,-0.23105621337890625,2.0601654052734375,0.4045982360839844,-0.30879974365234375,-0.08560943603515625,0.27999114990234375,3.4743194580078125,4.874549865722642,7.0,5.0,04-10,1.0200242996215814
03-27,-0.3323802947998047,0.27904510498046875,1.7518386840820312,-0.5587654113769531,-0.35546875,2.3041419982910085,0.22068405151366477,-0.8983001708984375,-0.43749237060546875,1.7570419311523438,2.583724975585966,7.054229736328125,7.0,5.0,04-11,1.1140249570210787
03-28,0.6232223510742188,0.5242538452148438,1.2537651062011719,-1.3969306945800781,-0.08887863159179688,1.7800559997558594,-0.2574729919433665,-0.8889617919921875,-0.17119598388671875,4.2091522216796875,2.7892227172851705,0.6340866088867188,7.0,5.0,04-12,0.7508598963419603
03-29,1.2547492980957067,1.141510009765632,1.0562705993652344,-0.8818092346191406,0.24883270263671875,0.12650299072266336,-0.34023284912110086,-1.0761032104492188,-0.11412811279296875,2.3362655639648438,2.593498229980483,3.596466064453111,8.0,4.0,04-13,0.8284851710001636
03-30,2.1189460754394496,1.073871612548821,-0.20609283447265625,-0.7595863342285156,0.24883270263671875,-0.352405548095696,-0.19309616088867898,-1.0667495727539062,0.05706787109375,4.170539855957031,1.3016433715820455,6.727272033691392,7.0,5.0,04-14,1.0933535893758128
03-31,1.4209346771240199,1.5220260620117188,-0.43796539306640625,-0.9603767395019531,0.45323944091796875,-1.2469291687011648,-0.08275604248046875,-0.20586395263671875,-0.06658172607421875,4.170539855957031,1.908439636230483,2.7840423583984375,6.0,6.0,04-15,0.7715624173482274
04-01,0.7561721801757812,1.9279212951660156,-0.9961585998535156,-0.4365196228027344,-0.062221527099609375,-1.6806793212890554,-0.3218345642089844,-0.8421783447265625,0.44701385498046875,4.604972839355469,2.5445785522460938,7.737838745117202,6.0,6.0,04-16,1.1399087905883807
04-02,-0.33238220214843395,1.7926177978515696,-1.3053131103515625,-0.80322265625,-1.635234832763679,-1.0029487609863281,-0.13793182373046875,-0.6737594604492188,-0.20925140380859375,4.6532440185546875,2.613067626953139,4.735847473144531,4.0,8.0,04-17,0.6412277221679702
04-03,-0.4071712493896449,1.7926177978515696,-1.2623634338378906,-0.8643455505371094,-0.6931991577148438,-0.587310791015625,-0.3494224548339915,-0.4304656982421875,-0.6182022094726562,4.5856781005859375,2.104156494140611,6.677742004394531,4.0,8.0,04-18,0.8289761543273917
04-04,-0.4071712493896449,2.2745742797851634,-0.7814598083496094,-0.2531852722167969,-1.4752655029296875,-0.00902557373046875,-0.3494224548339915,0.31813812255859375,0.5040740966796875,6.1978912353515625,1.4875869750976562,0.168426513671875,6.0,6.0,04-19,0.6395967801411949
04-05,-2.1771068572998047,2.6973609924316477,-1.6917343139648438,0.1222229003906321,-0.9598197937011719,0.5511970520019531,-0.34023284912110086,1.7685317993164062,1.4171295166015625,5.029754638671861,0.8612442016601562,1.0799179077148438,8.0,4.0,04-20,0.6965387662251784
04-06,-2.6424388885498047,2.6889190673828125,-1.176483154296882,0.2881164550781321,-1.2264328002929688,0.8855209350585938,-0.49654388427735086,1.37554931640625,0.970123291015625,6.864021301269517,0.6165618896484375,2.1598587036132812,8.0,4.0,04-21,0.8588976860046369
04-07,-2.3848495483398473,2.4352455139160156,-0.6612319946289134,0.2881164550781321,-1.6174697875976491,1.0391120910644531,-0.275848388671875,2.2644882202148438,1.3220062255859375,5.512458801269517,-1.2624969482421733,5.7662353515625,7.0,5.0,04-22,1.0354804992675783
04-08,-2.3682289123535156,2.2915077209472656,-0.16315841674805398,0.3405113220214915,-1.1642189025878906,1.1113929748535227,-0.6436767578125,2.2551498413085938,0.6277236938476562,4.7304840087890625,-0.7633819580078125,1.991439819335966,7.0,5.0,04-23,0.6871287027994821
04-09,-3.415237426757809,1.6742515563964773,0.10304641723632102,0.6460876464843821,-0.8709373474121094,1.2469444274902415,-0.4137840270996094,2.2551498413085938,0.884521484375,4.3829345703125,0.753578186035142,-0.961036682128892,8.0,4.0,04-24,0.5237932205200199
04-10,-2.8751087188720703,1.5981369018554759,0.8158149719238281,0.8032379150390696,-0.9686965942382812,1.3463401794433594,-0.5609207153320312,1.1416244506835938,1.0461883544921875,1.5736083984374858,0.9982528686523295,3.91351318359375,9.0,3.0,04-25,0.7359992663065581
04-11,-2.8751087188720703,1.767242431640632,1.1335411071777344,0.30554962158203125,-0.64642333984375,2.240863800048828,-0.5057411193847656,2.1709442138671875,1.3125152587890625,0.8978271484375,0.2740325927734233,3.91351318359375,9.0,3.0,04-26,0.8323963483174636
04-12,-2.484556198120117,1.885631561279304,1.6485862731933594,0.6495628356933665,-0.13096237182617188,1.816192626953118,-0.4505767822265554,1.6175613403320312,2.3777542114257812,0.4344482421875,-0.3621063232421875,2.6453323364257812,8.0,4.0,04-27,0.8039056460062675
04-13,-2.135549545288086,1.7757301330566406,2.0629653930664062,1.016265869140632,1.2109909057617188,1.9607582092285085,-0.12873077392578125,1.9108734130859375,3.3668365478515625,0.38617706298828125,0.04894256591796875,1.7536544799804688,10.0,2.0,04-28,1.1024095217386882
04-14,-1.3457374572753906,0.9036102294921875,2.2699317932128906,0.8503761291503906,0.9163856506347656,1.7619667053222585,-0.21238327026366477,1.6957473754882812,1.9687423706054688,-1.1198654174804688,-0.43062591552734375,8.480941772460923,8.0,4.0,04-29,1.3115908304850248
04-15,-1.836950302124027,0.6337776184082031,1.7890281677246094,0.39452743530272727,0.22011566162109375,1.0392684936523438,0.054241180419921875,0.9471435546875,1.9687423706054688,-0.9943771362304688,1.4973831176757812,10.508674621582031,10.0,2.0,04-30,1.351797898610432
04-16,0.5927104949951172,0.21099090576171875,2.338642120361328,0.64874267578125,-0.23328399658202414,0.9045677185058594,-0.16738510131835938,0.5915908813476562,1.4456634521484375,-0.8206024169921875,1.6637496948242188,8.503852844238281,9.0,3.0,05-01,1.3066032727559413
04-17,1.0580425262451172,0.15179824829101562,2.536846160888679,0.2024688720703125,1.1916351318359375,1.0231666564941406,-0.011074066162109375,-0.0377197265625,2.8818206787109375,-2.5389862060546875,3.8177413940429545,7.423912048339844,9.0,3.0,05-02,1.4749709765116368
04-18,1.756048202514652,0.8051567077636719,2.6144027709960938,0.3601989746093679,1.0202789306640554,0.562335968017571,0.01650238037109375,-3.127960205078125,2.3577651977539062,-1.9983825683593608,4.860130310058594,3.4608688354492188,10.0,2.0,05-03,1.0572787920633948
04-19,1.9564685821533203,0.2281646728515625,2.4437904357910227,0.1850738525390554,0.5670280456542969,0.562335968017571,-0.426849365234375,-2.1611557006835938,2.8255767822265625,-2.162506103515625,4.1554718017578125,0.4790496826171733,9.0,3.0,05-04,0.7210373878478986
04-20,1.6725387573242223,0.8811073303222656,1.3432235717773438,-0.12050247192383523,0.22931671142577414,0.3536567687988281,1.4019432067871094,-3.4938278198242188,2.8074951171875,-1.8149566650390625,4.1554718017578125,-0.45525360107421875,8.0,4.0,05-05,0.5800177256266267
04-21,1.5588474273681605,0.6523475646972656,0.6032371520996094,0.42954635620116477,0.3453636169433594,-0.10911178588867188,1.4015769958496165,-2.5587387084960938,2.6458282470703125,-1.728065490722642,4.3420257568359375,1.0230941772460795,9.0,3.0,05-06,0.7171626091003415
04-22,1.7333106994628906,-0.382232666015625,0.6635589599609375,0.6925392150878906,0.6935119628906179,-0.542613983154304,0.36777496337890625,-3.5880584716796875,2.3509597778320312,-3.118255615234361,5.176612854003892,-0.3976593017578267,7.0,5.0,05-07,0.3041206995646135
04-23,1.5515327453613281,-0.5006217956542969,0.6635589599609375,-0.28052139282227273,0.142822265625,-0.4988136291503906,0.40497970581053977,-3.2499008178710938,3.248565673828125,-2.0176925659179545,5.2194671630859375,0.17476654052734375,7.0,5.0,05-08,0.4048452377319336
04-24,1.2025260925292969,-0.5091056823730469,0.19820785522460938,-0.3857154846191406,-0.32135772705078125,-0.5435791015625,0.08313369750976562,-2.7802658081054688,3.7451400756835938,-0.366851806640625,4.3059539794921875,1.0664443969726562,6.0,6.0,05-09,0.4745442072550456
04-25,1.1190261840820312,-1.4764060974121094,0.12064743041991477,-1.0782623291015696,0.2588996887207031,-0.34478759765625,0.28632736206053977,-2.5736160278320312,3.9091110229492188,-1.035400390625,4.805152893066406,-7.315406799316406,6.0,6.0,05-10,-0.2770595550537127
04-26,0.7599353790283203,-2.3419036865234375,0.3533134460449219,-0.68377685546875,0.955169677734375,-0.3811073303222656,0.19395828247069602,-3.1747970581054688,3.300323486328125,0.00160980224609375,2.8771438598632812,-6.709098815917969,7.0,5.0,05-11,-0.4041024843851731
04-27,0.9436607360839844,-0.4582061767578125,0.23266983032226562,-0.9379920959472727,0.9908828735351491,-0.18147659301757812,0.3417396545410085,-2.70513916015625,4.195793151855469,-0.1721649169921875,2.9750213623046875,-4.661590576171889,6.0,6.0,05-12,0.04693317413329782
04-28,0.9102535247802699,-0.6448860168457031,-0.6463203430175852,-0.6925315856933594,0.5445327758788991,-0.28129196166991477,0.2586174011230469,-2.3106231689453125,2.7596359252929688,-0.21079254150390625,2.00299072265625,-4.840492248535142,5.0,7.0,05-13,-0.26257562637329074
04-29,0.30898475646972656,-0.8824615478515625,-0.723876953125,-0.82403564453125,1.0176582336425781,0.34478759765625,0.8866806030273509,0.7796173095703125,2.9983596801757812,0.59326171875,2.59210205078125,-6.092864990234361,8.0,4.0,05-14,0.08318440119425634
04-30,-0.7181758880615199,-0.3054695129394531,-1.0513458251953125,-0.9818267822265625,-0.10712051391601562,-0.39016342163085227,2.0874099731445312,-0.01877593994140625,2.6737136840820312,1.0776443481445455,1.5316848754882812,-4.6317672729492045,4.0,8.0,05-15,-0.06951602300007813
05-01,-0.4342460632324219,-0.8400306701660156,-0.31023788452147727,-2.0513343811035227,0.7409286499023438,-0.37201690673828836,0.2586174011230469,0.7326278686523438,2.5782089233398438,0.1477813720703125,0.16692352294921875,-3.6974639892578125,6.0,6.0,05-16,-0.2566868464152024
05-02,-0.9687023162841797,-1.1879196166992188,-0.44811248779296875,-2.4458045959472656,0.9551811218261648,0.09075164794921164,0.341754913330071,0.11270904541015625,2.3204193115234375,-0.13643646240234375,0.23563385009765625,-4.363395690917969,6.0,6.0,05-17,-0.457826773325604
05-03,-0.5094070434570312,-2.4267616271972656,0.46537017822264914,-3.112060546875007,0.6070327758789062,0.036312103271484375,1.1545448303222585,1.549835205078125,2.2344741821289062,2.6487579345703267,-0.5989532470702983,-4.323638916015625,7.0,5.0,05-18,-0.18954118092854758
05-04,-0.5678596496582031,-1.943084716796875,0.09479904174804688,-2.1389999389648438,0.5356216430664062,-0.6895866394042969,1.1453018188476491,-0.15027618408203125,0.8498611450195312,1.5481948852539205,-1.7477035522460938,-5.2778167724609375,5.0,7.0,05-19,-0.6951290766398106
05-05,-0.2672233581542969,-1.8497695922851562,1.6201286315917969,-2.0250396728515625,0.44635772705078125,-0.5444145202636719,2.4568443298339844,-0.7608261108398438,0.3532867431640625,1.026878356933608,-0.8934783935546875,-1.4014511108398438,5.0,7.0,05-20,-0.1532255808512358
05-06,-0.25887489318847656,-0.9333839416503906,1.6976890563964915,-3.0244140625,0.8926849365234375,0.23592376708984375,2.761627197265625,-0.9674758911132812,-0.21965789794921875,0.78466796875,-1.217491149902358,-1.1231460571289062,5.0,7.0,05-21,-0.1143209139506028
05-07,-0.08351325988769531,-0.0678863525390625,0.8445510864257812,-3.4101295471191406,0.8212623596191406,-0.6079254150390625,2.2721099853515625,-1.2210540771484375,-0.35335540771484375,1.0462417602539062,-0.9131240844726562,-1.0535736083984375,4.0,8.0,05-22,-0.22719971338907877
05-08,-0.2672386169433594,-1.6121902465820312,0.6377296447753906,-2.831535339355476,0.4731254577636719,-0.6170120239257812,2.12432861328125,-1.596771240234375,-0.14325714111328125,2.1796875,-0.500740051269517,-3.101081848144517,4.0,8.0,05-23,-0.43791294097900213
05-09,-0.04175949096679332,-2.7661666870117188,0.23268890380859375,-2.7438735961914062,0.5802536010742188,-0.5171966552734446,2.2166900634765625,-1.145904541015625,0.34374237060546875,0.9687347412109233,0.1472778320312358,-1.8884735107422017,6.0,6.0,05-24,-0.3844989140828489
05-10,-0.04175949096679332,-2.9273834228515625,-0.723876953125,-2.2091217041015625,0.10712814331053977,-1.3428993225097656,2.2166900634765625,-2.1509475708007812,0.305572509765625,0.2906036376952983,-0.4418334960937642,-1.8884735107422017,4.0,8.0,05-25,-0.7338584264119504
05-11,-0.2922801971435476,-3.071624755859382,-0.12065505981446023,-2.05133056640625,0.5623893737792969,-1.3428993225097656,1.7179412841796875,-0.4226837158203125,0.8212051391601562,-0.19377899169924717,0.34365081787107954,-1.212608337402358,4.0,8.0,05-26,-0.43855619430542525
05-12,-0.4008445739746094,-3.775901794433601,-0.3533172607421946,-1.122089385986321,0.5623893737792969,-1.4336395263671804,0.9143905639648366,-1.2022933959960938,0.9167098999023438,0.6974716186523295,0.34365081787107954,1.1430358886718608,6.0,6.0,05-27,-0.30920314788818776
05-13,1.2192268371581996,-3.139518737792976,-0.21544265747070312,-1.122089385986321,0.6338043212890625,-0.9073448181152415,-0.3325042724609375,-0.5823745727539062,0.7257156372070312,0.6974716186523295,0.15709686279296875,7.086799621582031,6.0,6.0,05-28,0.35173670450846145
05-14,-0.016698837280269885,-1.900676727294929,-0.7411270141601491,-1.1133193969726491,-0.0714111328125,-0.7531280517578125,-0.67425537109375,-0.98626708984375,0.7257156372070312,0.6393585205078125,-0.04910278320313921,10.02886962890625,3.0,9.0,05-29,0.4239964485168454
05-15,0.04175376892090199,-2.2570648193359446,-0.7411270141601491,-0.9906005859375,-0.17853927612304688,-0.01813888549803977,-0.6650123596191406,-0.98626708984375,1.451446533203125,1.918121337890625,-0.3338165283203125,10.983047485351562,4.0,8.0,05-30,0.6853168805440276
05-16,-0.25053405761718395,-2.2570648193359446,-0.8100738525390554,-0.49967193603515625,-0.2678108215332031,-0.16331100463866477,-1.0898857116699219,-0.911102294921875,1.5087356567382812,-0.2228240966797017,-1.3844146728515625,8.349105834960952,2.0,10.0,05-31,0.16676235198974698
05-17,-0.4593048095703125,-1.0861053466796875,0.19818496704101562,-0.2366790771484375,-0.7141380310058594,-0.6079368591308523,-1.0806427001953125,1.6343231201171875,2.1580657958984375,0.6490707397460795,-1.060401916503892,7.40485382080081,5.0,7.0,06-01,0.5666074752807647
05-18,0.0083465576171875,-0.3903236389160156,0.146484375,0.14903640747070312,-0.7052154541015625,-0.23592376708984375,-1.7456588745117259,1.8879776000976562,2.740570068359375,0.3874969482421733,-0.333831787109375,7.196128845214844,7.0,5.0,06-02,0.758757273356118
05-19,0.7599315643310547,-1.0182075500488281,-0.7497482299804688,-0.6048812866210866,0.1606903076171875,-0.036308288574211645,-2.022735595703125,2.2167205810546875,2.5304718017578125,-0.04845428466798296,0.46146392822265625,7.6433868408203125,6.0,6.0,06-03,0.7743608156840006
05-20,1.5198688507080078,0.8060874938964915,-0.3447074890136719,0.09642410278321023,-0.3035087585449219,0.6260833740234375,-1.3946685791015625,1.7658538818359375,2.0721282958984375,-1.6371917724609375,0.2258148193359375,7.613571166992202,8.0,4.0,06-04,0.9204796155293806
05-21,1.7202873229980433,0.9673042297363352,0.4825859069824219,-0.26299667358397727,-0.12498092651367188,0.18148040771484375,-0.7204322814941335,2.2730712890625,3.2657699584960938,-1.2012557983398438,0.540016174316392,8.140373229980469,8.0,4.0,06-05,1.2717685699462893
05-22,1.770395278930664,1.086101531982436,0.3533363342285156,-0.3243408203125,-0.026782989501953125,0.22684478759764914,-0.332508087158196,2.4045791625976562,3.33258056640625,-0.09687042236326704,2.523368835449247,8.13043212890625,8.0,4.0,06-06,1.587261358896896
05-23,0.9770641326904332,1.035198211669929,-0.35332489013671875,-0.5698089599609375,-0.8123397827148438,0.16331100463867188,0.15700912475586648,2.2636642456054688,2.5400161743164062,-0.16467285156247158,4.094329833984375,3.7073898315429688,8.0,4.0,06-07,1.0864863395690956
05-24,1.0188217163085973,-0.09333419799803266,-0.7928161621093679,0.4558525085449219,-0.3927803039550781,0.19962692260742188,-0.046199798583984375,0.6668777465820312,1.9957199096679688,-0.116241455078125,4.1237869262695455,2.574302673339858,7.0,5.0,06-08,0.799468040466313
05-25,0.6764297485351598,-0.1781921386718608,-1.0255088806152344,0.8503341674804688,-0.6159515380859375,0.5262794494628906,0.2863197326660156,1.07080078125,1.4705276489257812,-0.1646881103515625,4.153236389160156,3.8266677856445312,8.0,4.0,06-09,0.9063545862833674
05-26,0.9353103637695348,-0.48365020751953125,-1.1892433166503906,0.7626686096191406,-0.16962051391600852,1.0525550842285227,-0.20320892333984375,1.211669921875,1.260467529296875,0.5812530517578125,7.1970062255859375,4.005577087402344,8.0,4.0,06-10,1.246732076009116
05-27,1.937417984008789,-1.9770488739013778,-1.4046707153320312,1.0782623291015625,0.47312164306640625,1.1614418029785227,-0.30478668212889914,0.5447921752929688,1.09814453125,-0.06780242919921875,8.8563232421875,-0.07952117919921875,7.0,5.0,06-11,0.942972819010417
05-28,2.405069351196289,-1.900671005249034,-2.4129486083984375,1.4815139770507812,0.6427383422851562,1.061603546142571,-0.23091506958007812,0.4320526123046875,0.6779937744140625,0.33907318115234375,10.132743835449219,0.03975677490232954,9.0,3.0,06-12,1.0556675593058242
05-29,1.937417984008789,-1.2218723297119247,-1.99066162109375,0.9292259216308594,0.5177497863769531,0.20869064331054688,0.43410110473633523,0.49781036376953125,1.0599441528320312,0.4940643310547017,9.700729370117173,0.24848175048829546,10.0,2.0,06-13,1.067973454793295
05-30,0.9687099456787109,-0.39031982421875,-2.5852890014648366,2.1915855407714915,-1.0623092651367188,0.00907516479491477,0.31402587890625,0.882904052734375,0.8594207763671875,0.18407440185548296,7.9628448486328125,0.2186737060546875,9.0,3.0,06-14,0.7961163520813006
05-31,1.5532722473144638,0.059398651123046875,-1.6804351806640625,1.1396293640136719,-0.5981101989746094,0.09073257446289062,0.812786102294929,-0.45085906982421875,1.1172409057617188,1.9374847412109375,8.198493957519531,-7.126548767089844,8.0,4.0,06-15,0.42109044392903794
06-01,1.5449295043945312,-0.059398651123046875,-0.4481086730957031,1.4990501403808594,-0.7141532897949219,-0.36293792724609375,0.6280670166015696,-0.723236083984375,-0.00955963134765625,1.5015487670898438,7.452278137207031,-6.0232696533203125,5.0,7.0,06-16,0.3571008046468105
06-02,0.3590927124023473,0.26305389404296164,-1.1892547607421875,1.5340957641601562,0.3927803039550781,-0.08167648315429688,0.29555511474609375,-0.9674835205078125,-0.0763702392578125,0.44561767578125,6.568611145019531,-6.6196365356445455,7.0,5.0,06-17,0.07703208923339695
06-03,0.15032196044921875,0.729736328125,-0.4825935363769531,1.8935089111328196,0.16960906982421875,-0.5262870788574219,0.7019615173339773,-0.826568603515625,0.3819732666015625,0.9687576293945312,5.950042724609361,-5.85430908203125,8.0,4.0,06-18,0.27134609222411993
06-04,0.24217605590820312,1.8582687377929616,0.03446197509765625,1.797100067138679,0.4999122619628906,0.14517974853515625,0.8220367431640696,-0.7232513427734375,0.36287689208984375,1.0268630981445312,4.3692474365234375,-5.1983108520507955,10.0,2.0,06-19,0.43638006846109967
06-05,0.5845680236816406,2.2316207885742116,0.10340118408203125,1.9461288452148438,1.3925895690917969,-0.4173889160156179,0.4895172119140696,-0.5541763305664062,0.0955047607421875,0.8912506103515483,2.3171768188476562,-6.450675964355469,9.0,3.0,06-20,0.21912638346354107
06-06,0.3256874084472656,2.095844268798821,-0.060337066650390625,0.7451438903808594,0.28565597534178977,-0.94366455078125,0.979045867919929,-0.6950836181640625,1.2127304077148438,0.329376220703125,-0.8051300048827983,-6.629585266113281,7.0,5.0,06-21,-0.26335970560709576
06-07,0.20042800903320312,2.121295928955078,-0.18957901000976562,0.26300048828125,-0.357086181640625,-1.05255126953125,1.4039154052734375,0.122100830078125,1.1458816528320312,1.3562469482422017,-2.464447021484361,-6.550071716308594,7.0,5.0,06-22,-0.333405494689939
06-08,0.13361167907714488,1.7818794250488352,0.603240966796875,-0.14025115966796875,-0.526702880859375,-0.4990653991699219,1.4224014282226562,-0.037567138671875,1.6710586547851562,0.9493713378906392,-3.7408676147460795,-5.9437637329101705,6.0,6.0,06-23,-0.36055453618367367
06-09,-0.8350925445556676,1.170946121215838,0.0,0.4120368957519531,-1.6693305969238281,-0.544414520263679,1.24688720703125,0.4884185791015625,1.2891082763671875,0.7943801879882812,-3.3481292724609233,-4.890190124511733,6.0,6.0,06-24,-0.49044831593831323
06-10,-0.9353065490722656,-0.00848388671875,0.5946273803710866,-0.5610389709472656,-1.9282073974609375,-0.67144775390625,0.8682212829589844,0.10332489013671875,1.4896316528320312,-0.697502136230483,-3.77032470703125,-4.174552917480469,4.0,8.0,06-25,-0.8075882593790707
06-11,-1.494817733764659,-0.4582023620605469,-0.3102264404296875,-0.04381942749024148,-1.8032150268554688,-0.5444259643554688,-0.30478668212891336,1.4370880126953125,1.3177413940429688,-1.1528091430664205,-3.731056213378892,1.6797637939453125,3.0,9.0,06-26,-0.4507304827372254
06-12,-1.4864749908447266,-0.3394050598144531,-0.54290771484375,-1.4552040100097727,-1.0622978210449219,0.26312255859375,-0.12006759643555398,3.1559677124023438,1.29864501953125,-1.9084320068359375,-0.5498504638671875,0.5764846801757812,4.0,8.0,06-27,-0.18086830774943152
06-13,-0.876846313476566,-0.517597198486321,-0.7238960266113281,-1.218505859375,-2.0799560546875,-0.018138885498046875,0.16626358032226562,-0.0281829833984375,0.9166946411132812,-1.5596847534179688,-1.4531402587890625,0.5267868041992188,3.0,9.0,06-28,-0.5721836090087887
06-14,-0.275579452514652,-0.21213531494140625,-0.4825897216796875,-1.4464340209961009,-1.8567848205566406,0.6805305480957031,0.009243011474609375,-1.7282943725585938,0.11458587646484375,-2.6737518310546875,-0.834571838378892,2.176727294921861,4.0,8.0,06-29,-0.5440878868103036
06-15,0.05846405029296875,-0.7806434631347656,0.8876152038574219,-1.3500251770019602,-1.9460639953613281,0.6079368591308594,0.19396209716796875,-0.5917205810546875,0.668426513671875,-2.7318572998046875,-0.9131164550781392,2.2959976196289062,6.0,6.0,06-30,-0.300085385640464
06-16,0.6764259338378906,-2.0704002380371023,1.1806297302246094,-1.6568336486816406,-1.5443534851074219,1.2430915832519531,-1.0714073181152273,0.2066497802734375,0.9357986450195312,-2.6543655395507812,1.3549652099609233,1.848731994628892,7.0,5.0,07-01,-0.12925561269124466
06-17,0.5261058807373082,-2.265544891357422,1.3443679809570312,-1.8321609497070312,-1.7228851318359375,0.6170005798339844,-0.9605712890625142,0.34755706787109375,0.17188262939453125,-2.0634384155273438,4.094329833984361,5.039283752441392,7.0,5.0,07-02,0.27466058731078774
06-18,0.6513652801513707,-2.290996551513679,1.1978569030761719,-1.3763198852539062,-1.2408370971679688,1.3066177368163991,-1.3854408264160227,-0.8453445434570312,-0.24828338623046875,-1.4143753051757955,4.693275451660156,4.9597702026367045,5.0,7.0,07-03,0.33394066492716085
06-19,0.718181610107429,-1.9346160888671875,1.1978569030761719,-1.2097663879394531,-0.5802345275878906,0.753131866455071,-1.4039268493652415,-0.8453445434570312,-0.24828338623046875,-0.8428192138672017,4.7718124389648295,4.353462219238281,5.0,7.0,07-04,0.39412117004394237
06-20,1.4614086151123082,-1.9346160888671875,1.4563865661621094,-0.40326690673828125,0.42848968505859375,0.7984809875488281,-1.5978736877441548,1.4183120727539062,-0.02864837646484375,-1.0171813964843892,3.662322998046861,4.403160095214844,7.0,5.0,07-05,0.7205812136332161
06-21,1.7453479766845739,-2.1043186187744247,1.6718292236328125,1.2272834777832031,0.6873664855957031,1.0162620544433594,-1.5239715576171946,1.3995208740234375,0.07640838623046875,0.8621978759765625,4.0845184326171875,4.900131225585952,10.0,2.0,07-06,1.1702146530151367
06-22,1.3611965179443395,-0.8230628967285227,1.7838554382324219,0.710063934326179,0.8658981323242188,0.3175697326660156,-1.5794029235839915,0.38510894775390625,0.44881439208984375,1.3175048828125,4.673637390136719,7.3750381469726705,10.0,2.0,07-07,1.4030184745788583
06-23,0.7849826812744141,-1.0606498718261719,2.8869094848632812,1.5954704284667969,0.9373130798339844,0.5262832641601562,-1.2376594543457031,-1.3149871826171875,0.4679107666015625,1.7534332275390625,7.01043701171875,7.772621154785156,9.0,3.0,07-08,1.676838715871175
06-24,0.26722717285156605,0.11030960083007102,3.0678977966308594,1.569183349609368,1.5979042053222656,0.38111114501953125,-0.13854598999022727,1.8691635131835938,0.1432342529296875,2.2862167358398438,5.724220275878892,9.154190063476562,11.0,1.0,07-09,2.169342676798501
06-25,-0.4676494598388672,-0.19515228271484375,2.6973190307617188,0.6574668884277415,1.8210830688476491,-0.13610076904296164,-0.775848388671875,3.8886260986328125,0.16233062744140625,1.8406143188476562,2.8768539428710795,5.297698974609389,8.0,4.0,07-10,1.4722701708475754
06-26,-0.8016929626464879,-0.619415283203125,2.843822479248054,-0.7539215087890625,2.535228729248047,0.0090789794921875,-0.9605674743652344,3.6538009643554688,0.9071502685546875,2.3153152465820312,4.742355346679702,5.178428649902344,8.0,4.0,07-11,1.5874652862548844
06-27,-1.1607818603515625,-0.16971206665039062,2.7317962646484375,-1.1045684814453125,2.3924026489257812,-0.6260757446289062,-0.27709197998047586,4.8748779296875,1.8429489135742188,3.8846817016601562,1.9931640625,3.6576995849609517,7.0,5.0,07-12,1.5032784144083664
06-28,-1.144081115722667,-0.008480072021484375,1.5942878723144531,-1.1396293640136719,2.570934295654297,-0.6260757446289062,-0.3048057556152415,4.236152648925781,1.1840591430664062,2.8771820068359375,-0.7462005615234375,4.4826736450195455,6.0,6.0,07-13,1.0813347498575843
06-29,-0.9018993377685547,0.7466964721679688,1.16339111328125,-1.5954704284667969,1.9103507995605469,-0.6805000305175852,-0.05542373657227273,3.4659347534179688,2.3777084350585938,2.228118896484389,-0.6774826049804688,5.665458679199247,7.0,5.0,07-14,1.1372402509053572
06-30,-0.37580299377441406,2.4861602783203196,0.7842025756835938,-2.2354202270507812,3.0083465576171875,-0.5988426208496094,0.4525756835937642,1.0332260131835938,2.024383544921875,2.0246658325195312,-0.2454681396484375,1.4412078857422017,8.0,4.0,07-15,0.816602865854902
07-01,-0.6513748168945348,2.596460342407237,0.0086212158203125,-2.393218994140625,3.3029441833496094,-0.8801460266113281,0.08311080932617188,0.9956512451171875,1.814300537109375,2.0827789306640625,-0.8443984985351562,3.8067855834960938,8.0,4.0,07-16,0.8267928759257005
07-02,1.1273765563964808,2.248577117919922,0.07754898071289062,-1.7006759643554688,3.5350341796875,0.07260513305664062,0.13854217529296875,1.4183197021484375,1.4800796508789062,1.2399826049804688,-0.6087570190429688,2.9122467041015767,10.0,2.0,07-17,0.9950733184814462
07-03,1.5449237823486328,2.8340415954589844,-0.5515403747558594,-2.533489227294929,3.1690406799316406,-0.5625648498535156,0.09235000610351562,1.3807525634765625,2.2440109252929688,-0.6781463623046875,-2.7099075317382955,2.6240005493164205,7.0,5.0,07-18,0.5711226463317866
07-05,2.162900924682617,2.1128158569335866,-1.318511962890625,-1.9198379516601491,2.4638214111328125,-0.06351470947265625,0.4248657226562571,1.1177520751953125,2.3394927978515625,0.0775299072265625,-1.0604095458984375,1.9679946899414205,8.0,4.0,07-20,0.6920749346415219
07-06,1.6618385314941406,2.0194625854492188,-0.5428962707519602,-1.0081214904785227,2.213878631591804,-1.2612380981445312,0.0831298828125,0.8265762329101562,2.6546173095703125,0.52313232421875,-0.45166015625,4.114913940429702,8.0,4.0,07-21,0.9028027852376308
07-07,2.722404479980465,1.484893798828125,-1.0944557189941406,0.5172195434570312,2.615581512451179,-0.33571624755858664,-0.3140449523925781,1.7001190185546875,1.9097976684570312,-0.46498870849609375,0.36328887939454546,4.1149139404296875,8.0,4.0,07-22,1.1015844345092793
07-08,2.6722774505615234,1.0182266235351562,-0.9824295043945241,0.8678741455078125,2.3924026489257812,-0.762187957763679,-0.33251190185546875,0.47904205322265625,1.7092666625976562,1.1915512084960938,-0.5792999267577983,5.218193054199219,8.0,4.0,07-23,1.0743670463562023
07-09,2.7641639709472763,0.85699462890625,-0.3447303771972585,0.34188079833984375,1.642547607421875,-2.3500709533691335,-0.3786773681640625,0.09393310546875,1.3368377685546875,0.6587448120117188,-0.8934860229492472,4.711273193359375,8.0,4.0,07-24,0.7032842636108395
07-10,2.521982192993164,0.9757957458496023,-0.26715087890625,0.2717628479003906,1.3211822509765625,-2.35009765625,-0.6280593872070312,-0.244232177734375,1.155426025390625,-0.9397048950195312,0.9131240844726562,3.5284881591796733,7.0,5.0,07-25,0.5215430259704572
07-11,2.0125942230224574,2.503120422363274,-0.3705711364746094,-0.4207878112792969,-0.5534591674804688,-2.431755065917976,-1.1637611389160227,0.24419403076171875,1.5383224487304688,-0.9009246826171875,-0.7167510986328125,5.039276123046875,5.0,7.0,07-26,0.39829142888386837
07-12,2.3132209777831996,3.0631561279296804,-0.5687713623046875,0.26299285888671164,-0.8480567932128906,-2.6041526794433665,-1.662528991699233,-0.15100860595703125,0.02692413330078125,-0.9784088134765625,-0.11782073974609375,4.979644775390625,5.0,7.0,07-27,0.30959924062092775
07-13,2.2881679534912074,2.307952880859368,-0.5946197509765625,-0.4295501708984446,-0.9462432861328125,-2.495258331298821,-2.3183021545410227,0.3480377197265625,-0.24260711669921875,-0.13561248779296875,0.36328887939453125,5.387161254882798,5.0,7.0,07-28,0.2943679491678847
07-14,1.7263336181640625,2.2400779724121094,-0.904857635498054,-0.25421142578125,-1.2676048278808594,-2.7583885192871023,-2.106231689453132,-0.16124725341796875,-1.0065383911132812,1.39501953125,0.0,3.518547058105483,4.0,8.0,07-29,0.03507486979166726
07-15,0.0969448089599716,2.1891555786132812,-1.025524139404304,0.1490478515625142,-1.6246986389160227,-3.29498291015625,-1.2526321411132812,0.092376708984375,-1.3502960205078125,2.6931228637695312,1.5415115356445312,0.502601623535142,7.0,5.0,07-30,-0.106947739919027
07-16,-0.814544677734375,2.8934211730957102,-0.13788604736328836,0.885417938232429,-0.6128578186035156,-3.12371826171875,2.172576904296868,0.10175323486328125,-1.40777587890625,9.309654235839844,1.7476959228515767,1.916275024414034,7.0,5.0,07-31,1.0775009791056303
07-17,-0.31348228454589844,2.986774444580078,-0.336090087890625,0.5785751342773366,-0.6578826904296875,-2.3999176025390554,2.514312744140625,-0.218780517578125,-6.8606414794921875,7.614334106445298,0.6262054443359659,-0.23064422607424717,5.0,7.0,08-01,0.27523024876912316
07-18,-0.8813438415527344,2.7746543884277344,-0.31012725830077414,-0.2629966735839844,-1.0595855712890625,-3.325439453125,2.486621856689446,-1.350128173828125,-8.135360717773438,7.896133422851577,-2.93603515625,-0.12130737304688921,3.0,9.0,08-02,-0.4354095458984375
07-19,-0.5794486999511719,2.996192932128899,-1.9993820190429545,-1.3061866760253906,-0.8364067077636648,-2.735633850097649,3.553627014160149,-1.8696975708007812,-6.955421447753906,6.239593505859389,-1.9934463500976562,-1.0185470581054688,3.0,9.0,08-03,-0.5420630772908505
07-20,-0.6297702789306641,2.9299545288085938,-2.529064178466804,-0.7801933288574219,-0.8899726867675781,-3.6561203002929688,3.822711944580071,-3.1966476440429688,-6.8321685791015625,6.772399902343764,-1.7578048706054545,-3.720245361328125,3.0,9.0,08-04,-0.8722434043884265
07-21,0.19128608703613637,2.8702354431152344,-2.8835906982421875,-0.49091339111328125,0.4727973937988281,-3.6287841796875,4.162303924560554,-2.8490676879882812,-6.6507568359375,7.392410278320327,-5.164833068847642,0.8324279785156392,6.0,6.0,08-05,-0.4788737297058061
07-22,0.25878143310546875,1.479248046875,-2.780170440673828,-1.0607223510742188,0.9838218688964844,-1.8856430053711009,4.8392791748046875,-3.337493896484375,-6.909507751464844,7.926994323730469,-4.711875915527315,0.47449493408203125,6.0,6.0,08-06,-0.3935661315917951
07-23,-0.33533668518066406,0.9192123413085938,-2.5130271911621094,0.24544906616210938,0.5890579223632812,-2.204864501953118,6.154506683349624,-3.1395187377929688,-6.909507751464844,9.015609741210938,-6.962989807128906,0.27492523193359375,6.0,6.0,08-07,-0.40554030736287255
07-24,-0.3102836608886719,0.2658729553222656,-4.382469177246094,1.0782585144042969,0.9174308776855469,-1.812480926513679,6.810279846191413,-2.9886627197265625,-6.804100036621094,9.500305175781236,-3.1655349731445312,-0.13259124755857954,5.0,7.0,08-08,-0.08533128102620442
07-25,0.24318313598632812,0.30847930908203125,-4.122825622558594,0.8076248168945384,1.26568603515625,-1.5493507385253977,6.893772125244155,-3.1677932739257812,-5.702018737792969,8.878189086914062,-0.8919525146484375,-1.1265258789062642,6.0,6.0,08-09,0.15303897857666016
07-26,-0.1341686248779297,0.4107208251953196,-6.1227264404296875,0.28990936279296164,1.6227798461914134,-1.266815185546875,6.48554992675782,-3.8937759399414062,-5.0982666015625,7.006614685058594,-2.4334640502929688,-1.8243789672851705,5.0,7.0,08-10,-0.41316843032836914
07-27,0.05870628356933594,0.5379981994628977,-3.253376007080071,-0.4464607238769531,0.905517578125,-1.212146759033196,6.8752403259277415,-3.5260391235351562,-5.289939880371094,0.39008331298828125,-2.8752975463867188,-0.2392578125,5.0,7.0,08-11,-0.672914346059161
07-28,0.02514457702635653,0.1031494140625,-4.855365753173828,-0.2974281311035156,1.6586265563964844,-0.501270294189446,7.070072174072266,-2.979248046875,0.16292572021484375,0.7775726318359375,-1.683807373046875,-1.046783447265625,6.0,6.0,08-12,-0.13053433100382517
07-29,0.7547206878662074,-0.8009490966796875,-4.881328582763679,-0.37667083740234375,1.4613761901855469,-0.42835235595703125,2.6257781982421875,-1.847900390625,1.4854049682617188,1.6912155151367188,-3.4464187622070312,-2.063659667968736,5.0,7.0,08-13,-0.4855653444925941
07-30,0.6121559143066406,-1.0224876403808523,-4.83806228637696,-0.3238487243652344,1.6406898498535156,0.21873855590819602,1.1876258850097656,-1.055938720703125,0.555816650390625,0.2138214111328125,-3.7122879028320455,0.179443359375,7.0,5.0,08-14,-0.5286944707234719
07-31,0.6624774932861328,-1.4144477844238281,-3.1590347290039134,0.16740798950195312,1.757244110107429,1.831878662109375,0.9185409545898438,-1.1690826416015625,1.1595458984375,-1.0011291503906392,0.1969451904297017,2.8811416625976562,8.0,4.0,08-15,0.23595730463663736
08-01,0.025157928466793322,-1.3207244873046875,-2.7695579528808665,0.8511543273925781,0.3586120605468821,1.8045425415039062,1.3917388916015554,-1.6593170166015625,0.38330841064453125,-0.43738555908204546,1.5065689086914062,-0.568260192871108,7.0,5.0,08-16,-0.03618017832438477
08-02,0.24319267272948863,-1.4314994812011719,-1.2982177734375,1.76434326171875,-0.15241241455077414,1.5766983032226562,1.6237030029296804,-1.0465316772460938,0.47916412353515625,-1.5940475463867188,1.0536117553710795,-0.13957977294924717,6.0,6.0,08-17,0.08986870447794211
08-03,-0.19287872314453125,-1.3377647399902344,-1.4020843505859304,0.4581718444824219,0.30483245849610086,1.6040267944336009,2.403076171875007,-1.3764877319335938,1.245819091796875,-2.6826629638671875,1.9792251586914062,-0.16948699951171875,6.0,6.0,08-18,0.06948216756185133
08-04,-0.9727401733398438,-0.8180084228515554,0.2856101989746094,0.5283012390136719,-0.6903572082519531,1.7498512268066406,2.0041046142578125,-0.9333724975585938,1.140411376953125,-2.7895660400390483,1.230865478515625,-0.3688659667968608,6.0,6.0,08-19,0.030519485473635772
08-05,-0.5450668334960902,-0.9373092651367116,0.025966644287109375,0.7924652099609375,-0.609649658203125,2.4698524475097727,0.9464187622070099,-0.754241943359375,0.7762451171875,-2.468818664550753,3.1214828491210795,-0.47853851318359375,6.0,6.0,08-20,0.1949005126953134
08-06,0.1090164184570277,-1.03955078125,2.172374725341797,0.7572517395019531,-0.206207275390625,2.3787002563476562,0.6865882873535156,-0.35825347900390625,-0.5845870971679688,-1.4093551635741903,0.492340087890625,0.02990722656248579,7.0,5.0,08-21,0.2523520787556975
08-07,-0.08385848999023793,-1.03955078125,0.74432373046875,0.4578742980957031,-0.14345169067383523,1.9777030944824148,0.29689788818359375,0.6222610473632812,-0.5654220581054688,-0.6706695556640625,-2.7374420166015625,-1.5552139282226847,5.0,7.0,08-22,-0.22471237182617573
08-08,0.18449211120605113,-1.5933876037597727,1.2116928100586009,0.396221160888679,-1.2910499572753906,1.2668266296386648,-0.7515335083007812,0.5751190185546875,-1.197906494140625,0.32074737548828125,-3.4858169555664062,0.6878890991210795,7.0,5.0,08-23,-0.30639219284057767
08-09,0.24318885803223012,-1.4570579528808665,-0.6923675537109375,0.8893089294433523,-1.0937995910644531,1.4491004943847656,-1.7164840698242259,1.055908203125,-0.3450164794921875,-0.6998062133789062,-1.72320556640625,0.5483169555664062,5.0,7.0,08-24,-0.295159498850506
08-10,0.5283031463623047,-1.2866477966308594,2.0944747924804688,0.8364868164062429,-1.1834602355957031,1.6131553649902273,-2.1432952880859375,1.055938720703125,0.09583282470703125,0.777587890625,-0.699127197265625,0.7975540161132812,8.0,4.0,08-25,0.20723358790079635
08-11,-0.01677131652831676,-0.749847412109375,0.7962493896484375,0.7572479248046804,-0.5648307800292969,1.3306236267089844,-2.8113327026367188,1.3953475952148438,-0.5078964233398438,1.7301101684570312,0.492340087890625,2.3627395629882812,7.0,5.0,08-26,0.3511649767557777
08-12,-0.184478759765625,-0.7754020690917969,0.4067726135253906,0.4754905700683594,-0.3406982421875,1.2486000061035085,-3.006175994873047,1.8855819702148438,-1.245819091796875,1.4676666259765625,0.21663665771484375,0.03987884521484375,7.0,5.0,08-27,0.01567109425862571
08-13,-0.6708641052246094,-0.6646270751953125,-0.12982940673828125,0.7396316528320312,-0.25104522705079546,0.7746620178222656,-2.1525840759277344,1.961029052734375,-1.75372314453125,2.332740783691392,-0.2264862060547017,0.07975769042970171,5.0,7.0,08-28,0.003221829732256746
08-14,-0.2347927093505895,-0.6816787719726562,-0.9174079895019531,0.47547149658203125,-1.3986282348632884,0.783802032470696,-2.931957244873061,2.423004150390625,-0.498321533203125,2.4882431030273438,2.373107910156236,0.10966491699217329,6.0,6.0,08-29,0.16587559382120265
08-15,0.3689861297607422,-0.7839279174804688,0.06923675537109375,0.545928955078125,-0.349639892578125,0.6379776000976562,-3.1360816955566406,2.80010986328125,-0.852935791015625,2.4785308837890483,3.4759521484375,0.3489227294921733,8.0,4.0,08-30,0.46692164738972747
08-16,0.3018970489501953,0.11928939819335938,1.843475341796868,0.22893142700195312,-0.4303474426269531,0.29164886474608664,-2.2546234130859375,3.412933349609375,-1.4853973388671875,2.945075988769517,1.5853347778320455,1.7944869995117188,9.0,3.0,08-31,0.6960587501525867
08-17,0.033552169799815346,-1.4059410095214915,2.1983184814453125,0.2641448974609375,-0.3855171203613281,0.29164886474608664,-2.208240509033196,2.7341232299804688,0.80499267578125,1.8856124877929545,1.6148834228515625,-0.11963653564454546,8.0,4.0,09-01,0.47566175460815224
08-18,-0.4276809692382848,-0.766857147216804,3.773509979248047,0.30817413330078125,-0.3855171203613281,0.30987548828125,-2.291748046874986,1.084197998046875,0.78582763671875,1.7884140014648438,1.6148834228515625,0.5084457397460938,8.0,4.0,09-02,0.5251270929972334
08-19,-0.9056739807128871,0.7327842712402344,3.306140899658196,0.30817413330078125,-0.02690887451171875,0.0182342529296875,-3.0711174011230398,1.1313400268554688,1.4183120727539062,1.7884140014648438,1.447502136230483,1.8044509887695455,9.0,3.0,09-03,0.6626377105712917
08-20,-1.0985374450683594,0.5964546203613281,3.2801780700683594,-0.08805465698242188,-0.47516632080077414,0.7199859619140625,-1.4752426147460866,0.8296661376953125,1.4183120727539062,1.7884140014648438,3.2888641357421875,4.695564270019531,8.0,4.0,09-04,1.123369852701824
08-21,-1.383651733398434,0.9287757873535156,3.2801780700683594,0.2465362548828054,-0.47516632080078836,0.21872711181641336,-1.048431396484375,0.8296661376953125,2.031646728515625,1.3801879882812358,0.31510162353514204,4.446327209472656,9.0,3.0,09-05,0.8974914550781223
08-22,-1.2746410369873011,0.9287757873535156,2.172351837158203,0.14087677001954546,-0.8696556091308594,0.5012588500976562,0.30617523193359375,0.82025146484375,1.6866531372070312,3.1102981567382812,1.3785781860351562,3.140350341796875,10.0,2.0,09-06,1.0034394264221207
08-23,-1.2746410369873011,1.3122215270996094,0.13846588134765625,0.07923507690429688,-1.0937881469726562,0.41011428833008523,0.30617523193359375,1.71588134765625,1.5716552734375,5.122276306152358,1.6542816162109375,3.140350341796875,10.0,2.0,09-07,1.0901856422424336
08-24,-1.1404743194580078,2.4369583129882812,-0.6144828796386719,-0.184906005859375,-1.2999954223632741,0.9295959472656321,1.1412239074707031,1.7724761962890625,1.69622802734375,4.257202148437528,0.9354629516601562,0.059814453125,8.0,4.0,09-08,0.8324252764383987
08-25,-0.9979171752929688,2.13873291015625,0.9953079223632812,0.088043212890625,-1.4165458679199148,1.3488426208496236,1.6051597595214915,2.0930023193359375,0.440826416015625,3.537956237792983,0.206787109375,0.5881958007812642,10.0,2.0,09-09,0.8856992721557665
08-26,-0.18449974060058594,2.488086700439453,0.008663177490234375,0.25534820556640625,-1.3986129760742045,0.6835479736328125,1.2154693603515625,1.7158966064453125,0.948760986328125,4.2863693237304545,-0.10831451416014204,-2.5322113037109375,8.0,4.0,09-10,0.6148753166198743
08-27,0.06708908081054688,1.584869384765625,-1.3847618103027344,0.8628997802734446,0.3586273193359375,-0.109375,0.11132431030274148,1.423614501953125,1.6770858764648438,3.265808105468736,-2.363258361816392,-2.1533889770508097,8.0,4.0,09-11,0.278377850850422
08-28,0.33543395996092684,2.4540061950683594,-1.0905075073242188,0.114471435546875,0.6096572875976562,-0.4374656677246094,0.06494140625,0.40540313720703125,1.8783416748046875,4.539108276367202,-2.7078933715820455,-0.23926544189454546,8.0,4.0,09-12,0.49385261535644326
08-29,0.6624851226806641,2.547740936279297,-1.7569313049316406,0.23775100708007812,0.2689781188964844,-0.5559501647949148,0.3896751403808665,-1.2445068359375,2.989959716796875,3.7129287719726562,-3.013168334960966,-0.4984741210937642,7.0,5.0,09-13,0.31170733769734466
08-30,0.7463397979736328,2.5732955932617188,-2.1031150817871094,0.7132034301757812,0.6275863647460938,-0.9113731384277273,-0.4175376892089844,-0.1697235107421875,2.1370697021484375,4.558547973632798,-3.5350418090820455,-1.196319580078125,6.0,6.0,09-14,0.25191100438435693
08-31,0.9224491119384801,2.581798553466804,-1.7136611938476562,0.5547218322753906,1.022075653076179,-0.6835250854492188,0.037109375,-0.414825439453125,0.8529129028320312,4.548828125,-1.00439453125,-0.0299072265625,7.0,5.0,09-15,0.5561318397521987
09-01,1.4759082794189453,1.8745880126953196,0.025966644287109375,0.2465362548828054,0.6993179321289134,-1.67694091796875,0.8535995483398366,-0.5656661987304688,0.5941696166992188,2.925628662109361,-1.5755081176757528,-0.4187164306640625,8.0,4.0,09-16,0.37157360712687293
09-02,2.3647918701171804,2.138721466064453,1.0732040405273438,1.0037803649902273,0.5737991333007884,-1.6222610473632812,1.7907180786132812,-1.6875839233398438,1.197906494140625,4.3155364990234375,-1.2308654785156108,-3.9179534912109375,8.0,4.0,09-17,0.4999828338623053
09-03,2.490591049194336,1.5934028625488281,1.4453506469726562,1.285541534423821,1.748271942138679,-1.4399833679199219,1.5401802062988281,-1.9704437255859375,1.552490234375,5.433311462402344,-3.1214752197265483,-1.3957061767578267,8.0,4.0,09-18,0.7634609540303549
09-04,2.3564109802246094,1.8234596252441406,1.808868408203125,1.2327117919921804,0.7979354858398438,-2.9619827270507812,1.6422348022460866,-1.4707794189453125,1.3991470336914062,4.7820892333984375,-4.8545379638671875,-0.9470901489258097,8.0,4.0,09-19,0.4673722585042282
09-05,1.8113441467285156,1.7638206481933594,1.4453506469726562,1.3119659423828196,1.5510368347167969,-3.3812294006347727,0.9463691711425781,-1.7536239624023438,2.0987319946289062,3.314422607421861,-2.8556060791015625,1.7047576904296733,9.0,3.0,09-20,0.6631116867065406
09-06,1.6687984466552628,1.4400215148925781,0.8308525085449219,1.4176216125488281,1.5331039428710866,-2.934650421142578,0.3711280822753906,-0.8013839721679688,2.5970535278320312,2.118896484375,-2.5405044555664205,-0.09969329833984375,8.0,4.0,09-21,0.4667703310648574
09-07,1.4675426483154261,1.457061767578125,-0.3288764953613281,0.8100700378417898,0.9593086242675781,-2.8343963623046875,-0.8072090148925781,-1.4801864624023438,2.4053955078125,3.1394577026367188,-0.787750244140625,-1.016876220703125,6.0,6.0,09-22,0.24862845738728753
09-08,1.6771697998046875,0.6987037658691406,-1.8780937194824219,1.1446609497070312,0.8606910705566406,-3.2354164123535156,-0.3618583679199219,-0.74481201171875,2.2041397094726562,2.4979476928710795,-1.230865478515625,-2.6020050048827983,6.0,6.0,09-23,-0.0808115005493164
09-09,1.618453979492191,0.400482177734375,-1.211669921875,1.3823966979980469,0.9772415161132812,-2.4424972534179688,-0.964946746826179,0.9050979614257812,0.9583282470703125,1.875885009765625,-1.0339202880859233,-3.5490875244140483,7.0,5.0,09-24,-0.09035301208495887
09-10,1.752645492553711,0.3749275207519531,-1.0385818481445312,1.3735809326171875,0.8158493041992188,-2.3696022033691406,-0.21340560913085938,-0.08484649658203125,0.9870758056640625,1.7106552124023438,-0.9945373535156108,-5.0345306396484375,6.0,6.0,09-25,-0.2267308235168445
09-11,1.5765361785888636,-0.19596481323242898,-1.8002243041992188,1.2855262756347727,0.8068923950195312,-2.5427703857421804,-0.6680526733398438,0.8956756591796875,0.5749893188476562,1.8078536987304688,-0.1181640625,-6.2009429931640625,6.0,6.0,09-26,-0.38155380884806284
09-12,1.2243385314941406,-0.4601135253906321,-1.4972991943359375,0.6251640319824219,0.995166778564446,-1.5493545532226491,-0.037120819091796875,0.26397705078125,1.4949798583984375,-0.6123352050781108,1.0536193847656108,-6.918731689453125,6.0,6.0,09-27,-0.45147577921549537
09-13,0.7631015777587891,0.12781906127928977,-1.2895698547363281,-0.29055023193359375,1.120685577392571,-1.604034423828118,-1.0391693115234375,0.49025726318359375,2.156219482421875,-2.15777587890625,0.7089767456054688,-6.799095153808594,6.0,6.0,09-28,-0.6510945955912278
09-14,0.40251922607421875,-0.3067474365234446,-1.3934326171875,-0.5723114013671875,-0.053787231445319605,-1.7498512268066406,-1.1041183471679688,0.34882354736328125,1.60040283203125,-3.2755508422851562,2.5995864868164062,-6.958610534667969,4.0,8.0,09-29,-0.8719231287638358
09-15,0.46122932434082387,-0.24710845947265625,-3.461933135986328,-0.5194816589355469,0.22414779663085938,-1.2577018737792969,-3.952556610107422,0.6693954467773438,1.7537460327148438,-2.62432861328125,2.40264892578125,-5.951705932617202,5.0,7.0,09-30,-1.0419707298278817
09-16,0.2264232635498047,-0.076690673828125,-3.0984153747558594,-0.686786651611321,-0.6006851196289062,-0.76556396484375,-3.804096221923828,0.952239990234375,1.0541610717773438,-2.877044677734375,2.1564788818359375,-5.134216308593736,4.0,8.0,10-01,-1.0545163154602033
09-17,0.35220146179200285,0.24710845947265625,-2.483917236328125,-0.6075553894042969,0.5558547973632812,-0.7199935913085866,-2.282447814941399,0.0,1.5716552734375,-3.4602127075195312,1.4179458618164062,-2.7515487670898438,5.0,7.0,10-02,-0.6800758043924947
09-18,0.5534572601318395,0.23006820678710938,-1.7742347717285156,-0.3169822692871165,0.7800064086914134,-2.132648468017578,-1.1041107177734304,-1.319915771484375,0.8337326049804688,-3.712921142578125,-0.620361328125,-1.8343658447265625,4.0,8.0,10-03,-0.8681896527608227
09-19,0.3438301086425781,0.3237762451171875,-3.3321151733398438,-0.475475311279304,0.15240859985351562,-1.73162841796875,-1.5494613647460866,-1.1313629150390625,2.2233200073242188,-2.896461486816392,-2.4617233276367188,-0.2492370605468892,4.0,8.0,10-04,-0.8986775080362955
09-20,-0.4444465637207031,-0.00852203369140625,-4.621696472167969,-0.5723381042480469,0.035858154296875,-1.7680931091308594,-0.3618621826171875,-1.282196044921875,2.213714599609375,-2.4201889038085795,-2.6586685180664205,0.2492370605468608,3.0,9.0,10-05,-0.9699335098266614
09-21,-0.6960220336914062,0.596466064453125,-1.756927490234375,-0.5635223388671875,-0.10757827758789062,-1.7042922973632812,0.3247528076171875,-2.1873016357421875,1.9070587158203125,-2.2549591064452983,-2.7079010009765625,-0.5981597900390767,3.0,9.0,10-06,-0.8123655319213867
09-22,-0.32703971862793324,1.6956405639648509,-0.12115478515625,-0.5459136962890696,-0.6006889343261719,-0.9934120178222727,1.5494918823242188,-3.1583938598632812,2.3191452026367188,-2.313270568847642,-3.0623931884765625,0.219329833984375,4.0,8.0,10-07,-0.4448882738749183
09-23,-0.4444541931152344,1.9342384338378906,-0.42407989501953125,-0.29936981201171875,-0.2420654296875,-0.6470832824707102,0.9278488159179688,-2.5266952514648438,1.3224868774414062,-3.197776794433608,-0.758216857910142,2.4125823974609375,4.0,8.0,10-08,-0.1618820826212571
09-24,0.21803855895996094,1.3463058471679688,-1.1684036254882812,-0.0704345703125071,-0.13448333740235086,-1.868328094482429,2.8577117919921875,-1.8384628295898438,1.3224868774414062,-3.1200103759765625,-1.920143127441392,2.7116622924804688,5.0,7.0,10-09,-0.1386717160542812
09-25,0.5786209106445312,1.5422782897949219,-0.45871734619140625,0.3698272705078125,-0.1434478759765554,-0.8384666442871094,2.9226608276367188,-1.3387908935546875,1.744140625,-1.0594558715820312,-4.273567199707031,2.8711776733398438,6.0,6.0,10-10,0.15968831380208393
09-26,-0.23480606079101562,1.329254150390625,-0.9174118041992116,-0.11447906494140625,-0.7172393798828125,-1.3306159973144531,4.203056335449219,-2.2815628051757812,1.6387252807617188,-2.79925537109375,-2.40264892578125,2.611968994140639,4.0,8.0,10-11,-0.08458455403645655
09-27,-0.008380889892578125,1.5678291320800852,-0.32888031005859375,-0.378612518310554,0.10759353637695312,-1.6678276062011719,5.084529876708999,-1.6876144409179688,1.84954833984375,-5.754051208496094,-2.1564788818359375,4.147247314453139,5.0,7.0,10-12,0.06457519531250237
09-28,0.5282993316650391,1.116241455078125,1.7569236755371094,-0.4578437805175781,-0.3227500915527344,-2.9073028564453125,5.669040679931641,-3.3375015258789062,1.226654052734375,-5.1708831787109375,-1.9398269653320312,4.436355590820327,6.0,6.0,10-13,0.04978386561075965
09-29,0.47798156738281605,0.9628639221191406,1.9386825561523509,-0.4842720031738281,0.7172431945800781,-3.8733749389648438,5.223705291748047,-1.4613418579101562,1.9645767211914062,-5.200042724609375,-2.1072235107422017,5.403388977050781,7.0,5.0,10-14,0.2968489329020179
09-30,0.570220947265625,1.19293212890625,3.496562957763679,-0.41384124755859375,1.1834602355957031,-4.119449615478523,3.896903991699226,-1.6498947143554688,0.45999908447265625,-6.026222229003906,-2.0875244140625,4.346641540527344,7.0,5.0,10-15,0.07081572214762429
10-01,2.0712852478027273,1.5252304077148438,5.123661041259773,-0.4490623474121094,0.7441329956054545,-2.6156692504882812,2.2546463012695312,-1.6027603149414062,0.5845718383789062,-5.948455810546875,-1.792144775390625,2.7316055297851562,7.0,5.0,10-16,0.21892007191975793
10-02,2.3228607177734304,1.4314956665039062,4.716880798339844,-0.36980819702147727,0.8606986999511719,-2.451618194580078,1.5680313110351562,-1.6687698364257812,0.91998291015625,-5.831817626953125,-0.16739654541015625,3.5790023803710938,7.0,5.0,10-17,0.40912850697835285
10-03,1.828094482421868,1.3633499145507812,5.063072204589844,0.07044219970703125,1.7213935852050852,-3.1624984741210866,1.1690673828125,-1.2539291381835938,0.4887542724609375,-2.332725524902358,0.47265625,1.8842086791992188,9.0,3.0,10-18,0.6093238194783522
10-04,0.8301925659179723,1.1673545837402344,2.4666290283203125,0.6075439453125,1.3627700805664134,-3.2718582153320312,1.1876449584960795,0.0942840576171875,0.8050003051757812,-2.011962890625,-1.8315200805664205,1.7845077514648438,9.0,3.0,10-19,0.2658821741739894
10-05,0.6541042327880859,0.332324981689446,2.5185546875,0.37860870361328836,1.2462158203125142,-2.351360321044922,1.3267898559570312,0.26399993896484375,0.4408416748046875,-2.0897293090820455,-1.0733108520507812,1.7944793701172017,9.0,3.0,10-20,0.2867932319641125
10-06,0.5869903564453125,-0.02556991577147727,0.8914566040039134,0.5194854736328196,2.232421875,-1.3944129943847656,2.143280029296861,-0.15082550048828125,0.01918792724609375,-2.575714111328139,-0.00984191894532671,0.58819580078125,7.0,5.0,10-21,0.23538780212402166
10-07,0.0,1.0480499267578125,1.3501510620117188,0.2905616760253906,2.6269111633300852,0.9934120178222656,1.6794013977050781,0.7919464111328125,0.134185791015625,-3.304718017578139,1.2013168334960938,1.9739303588867188,10.0,2.0,10-22,0.7320957183837885
10-08,-0.6037788391113281,0.8094749450683523,0.23368072509766336,-0.061641693115234375,3.0931167602539062,1.2121429443359375,0.22265625,0.49968719482421875,0.17250823974609375,-3.2560958862304688,3.0722503662109375,1.2162628173828267,9.0,3.0,10-23,0.5508553187052421
10-09,-1.1404590606689453,0.5538444519042969,0.614501953125,0.7924613952636719,4.007591247558594,1.85009765625,-0.36185455322264204,0.0188446044921875,0.7091751098632812,-1.7009658813476562,0.17724609375,0.9271545410156392,9.0,3.0,10-24,0.5373031298319523
10-10,-1.115301132202152,-1.4826202392578054,1.0818557739257812,0.4578437805175781,2.169666290283203,2.8161697387695312,-0.6494903564452983,1.1407852172851562,0.5366668701171875,1.2246856689453125,1.0437774658203267,-0.29907989501951704,8.0,4.0,10-25,0.577079931894942
10-11,-0.6541004180908239,-1.4400253295898366,1.6444053649902415,0.13208389282226562,1.7034492492675781,4.019191741943359,0.66802978515625,1.8195877075195312,0.7283172607421875,-1.448219299316392,1.024078369140625,0.26917266845704546,9.0,3.0,10-26,0.7054975827535026
10-12,-0.8301982879638707,-1.2270050048828125,-0.31157684326172586,0.16730499267578125,1.282073974609382,5.103740692138672,0.7701034545898438,1.2633438110351562,0.0,-1.5259857177734233,1.4967498779296875,0.309051513671875,7.0,5.0,10-27,0.5414668718973804
10-13,-0.8130397796630859,-1.6445159912109375,0.6145057678222656,-0.026416778564453125,1.470348358154304,5.23133468627929,1.057716369628892,0.6411285400390625,-0.33541107177734375,-2.011970520019517,1.4672012329101562,-0.09969329833984375,6.0,6.0,10-28,0.4625989596048991
10-14,-2.073129653930657,-1.5508193969726562,0.2683143615722656,-0.026416778564453125,2.115875244140632,3.6273040771484375,1.1876296997070312,0.226287841796875,-0.431243896484375,-0.8358840942382812,1.9989395141601562,-0.43312835693359375,6.0,6.0,10-29,0.3394773801167818
10-15,-1.782510757446289,-1.3548240661621094,1.2549514770507812,-0.026416778564453125,2.62689208984375,4.201480865478516,2.004112243652358,0.06601715087890625,0.0,-1.7398300170898438,2.9737625122070312,-3.6434326171875,6.0,6.0,10-30,0.3816835085550956
10-16,-1.6064224243164027,-1.4144821166992188,1.5318984985351634,-0.7132034301757812,2.115863800048821,3.080474853515632,1.8649673461914062,0.075439453125,-0.9679031372070312,-5.2875213623046875,3.3499603271484375,-3.653404235839858,6.0,6.0,10-31,-0.1353610356648766
10-17,-1.6399402618408168,-1.3633232116699219,1.4107284545898438,-1.1886787414550852,0.726207733154304,2.123527526855476,1.725791931152358,-2.9980850219726705,-2.4149856567382812,-3.2120895385741903,3.017395019531264,-2.4570846557617188,5.0,7.0,11-01,-0.52254470189412
10-18,-1.3789196014404297,-1.6615715026855469,-0.5192909240722656,-1.285552978515625,0.33171844482421875,0.9022674560546946,2.180412292480497,-4.370368957519531,-1.1562652587890625,-1.9076690673827983,1.8062362670898438,-1.857078552246108,4.0,8.0,11-02,-0.7430068651835094
10-19,-1.7409820556640625,-1.18402099609375,-1.1337928771972727,-0.933349609375,0.008960723876953125,1.5220108032226562,3.3123626708984517,-5.2317352294921875,-0.8675384521484375,-1.9562911987304688,1.6880569458007812,-0.7070846557617188,4.0,8.0,11-03,-0.601950327555338
10-20,-1.6752033233642578,-1.9590568542480469,-0.614501953125,-1.1446762084960938,0.546905517578125,2.0050506591796804,5.140266418457031,-4.466819763183594,-1.404205322265625,-1.6160888671875,0.601593017578125,1.5884704589843608,5.0,7.0,11-04,-0.24985551834106623
10-21,-1.0705070495605433,0.20572280883788352,-1.0818557739257812,0.4842872619628906,0.3048286437988281,0.6916999816894531,4.8211669921875,-5.5887603759765625,-1.2412872314453125,-0.42626190185545454,-6.6678924560546875,2.1808547973632812,6.0,6.0,11-05,-0.6156670252482087
10-22,-1.6832695007324219,0.16312789916991477,-2.0252265930175852,-2.720783233642571,0.08224105834960938,1.8242034912109446,2.0782470703125,-5.4379119873046875,-2.0204315185546875,0.1784210205078267,-7.540794372558594,1.1026077270507528,6.0,6.0,11-06,-1.3332974116007499
10-23,-1.507171630859375,-0.007293701171875,-0.6231422424316406,-1.6009597778320312,0.6101570129394531,1.9572792053222656,1.9761734008789062,-5.485252380371094,-1.693389892578125,-1.4122695922851562,-8.249801635742188,1.0627288818359233,4.0,8.0,11-07,-1.247745196024578
10-24,-1.599802017211914,0.985095977783196,-0.7096977233886719,-0.9122352600097656,0.9529228210449219,1.8296852111816477,2.0689544677734375,-4.973899841308594,-2.8280868530273438,4.251953125,-7.4004592895507955,1.9500045776367045,6.0,6.0,11-08,-0.5321304003397648
10-25,-1.0609149932861328,1.1562156677246094,0.3287773132324219,-1.9032783508300781,0.30739593505859375,3.2423362731933594,2.2738876342773438,-2.2088088989257812,-2.3493881225585938,4.060890197753906,-7.9321975708007955,5.810005187988281,7.0,5.0,11-09,0.14374335606892785
10-26,-1.2461643218994176,1.181499481201179,-0.2774810791015625,-2.2114486694335938,0.40602874755859375,3.3888168334960938,2.096900939941392,-0.1853790283203125,-2.7710113525390625,4.964836120605469,-8.24729156494142,6.5,6.0,6.0,11-10,0.2999421755472798
10-27,-0.20208358764648438,1.1131820678710938,-1.6237831115722727,-1.885650634765625,-0.45803070068358664,4.276844024658203,1.667022705078125,-0.7913818359375,-1.8031082153320312,5.1592254638671875,-8.336181640625,7.519996643066406,5.0,7.0,11-11,0.3863375981648763
10-28,0.4378414154052699,1.5325546264648438,-1.5026130676269531,-2.4605484008789062,0.2980308532714844,4.188915252685547,1.3816223144531392,2.2821426391601705,-0.3943634033203125,5.178733825683608,-8.731269836425781,15.270004272460938,8.0,4.0,11-12,1.4567542076110873
10-29,0.1852436065673828,1.8308029174804688,-0.49864959716796875,-2.681652069091797,0.8645057678222656,4.123935699462891,0.945625305175767,3.47528076171875,-1.3273849487304688,4.3595046997070455,-9.807868957519545,14.669998168945327,8.0,4.0,11-13,1.3449451128641765
10-30,0.5473060607910156,1.7366981506347585,-0.22045516967773438,-2.7966346740722656,0.9799346923828196,3.4217872619628977,-0.1863250732421875,-0.00949859619142046,-1.18310546875,0.39009857177732954,-10.894340515136719,13.520004272460938,6.0,6.0,11-14,0.4421224594116193
10-31,0.8672618865966797,1.5484657287597585,0.7358970642089844,-3.4511337280273438,1.0630416870117188,2.9387474060058736,-2.4781646728515625,0.3882293701171875,-1.4235916137695312,0.40961456298828125,-8.425086975097642,9.419998168945327,8.0,4.0,11-15,0.1327732404073109
11-01,0.5641345977783203,1.026630401611321,1.9026679992675781,-6.061817169189453,1.3051185607910156,3.149322509765632,-4.5836334228515625,2.7366714477539205,-1.731414794921875,-1.0728073120117188,-1.1556015014648295,9.419998168945327,7.0,5.0,11-16,0.4582724571228063
11-02,0.9009475708007848,0.958160400390625,1.3590087890625,-2.8567466735839915,0.909088134765625,2.9479103088378906,-3.9128570556640625,2.329505920410142,-1.0773162841796875,-1.677490234375,0.9383239746093892,9.419998168945327,8.0,4.0,11-17,0.8532110850016285
11-03,1.2714157104492152,0.1967620849609375,-0.22563934326172586,-3.2105140686035156,0.7560653686523438,2.8380584716796875,-2.4781494140625,2.5567626953125,-1.40435791015625,0.19506072998048296,1.777862548828125,8.050003051757798,8.0,4.0,11-18,0.8602774937947583
11-04,1.591379165649414,-0.7442893981933452,-0.1390838623046946,-3.422779083251953,0.7740707397460938,2.902149200439446,-1.1738815307617188,2.04541015625,-0.3559112548828125,2.8380813598632812,1.2741317749023438,8.559997558593764,7.0,5.0,11-19,1.1791062355041515
11-05,0.7914752960205078,-0.9154090881347585,-0.11301803588867188,-3.077850341796875,0.9000778198242188,1.235931396484375,-0.01859283447265625,-0.7196807861328125,0.25008392333984375,4.2912445068359375,1.659324645996108,4.6999969482421875,7.0,5.0,11-20,0.748631954193117
11-06,0.9767246246337926,-0.8469581604003906,-0.6955299377441406,-2.8479118347167898,0.018001556396484375,0.9429702758789062,0.15839385986329546,-0.7102127075195455,-0.19237518310546875,1.0532913208007528,0.9975738525390767,4.010002136230469,7.0,5.0,11-21,0.2386641502380368
11-07,0.4799461364746094,-0.744304656982429,-0.41732025146484375,-1.7512054443359304,0.4320220947265554,0.054943084716796875,0.9130172729492188,-0.6439285278320455,-0.24045562744140625,0.06826782226561079,1.2840042114257812,4.44000244140625,7.0,5.0,11-22,0.3229157129923473
11-08,0.31996154785156605,-0.6501922607421946,-0.8346214294433594,-1.1497764587402344,-0.3240394592285156,-0.6591567993164062,1.1458969116210938,-1.4204254150390483,-0.2500762939453125,-0.7997283935547017,1.6790924072265625,4.44000244140625,4.0,8.0,11-23,0.12474473317464163
11-09,0.26100921630859375,-0.23099136352539062,0.23473358154296875,-0.9286727905273438,-0.7470703125,-0.7323989868164062,1.7142181396484233,-0.8238449096679545,1.712158203125,0.01950073242186079,2.093933105468764,4.44000244140625,7.0,5.0,11-24,0.5843814214070638
11-10,0.6146621704101456,-0.7015228271484375,0.2869110107421875,-0.813690185546875,-0.5580520629882812,-0.41196441650390625,0.7546234130859233,3.844604492187514,1.5678787231445312,2.4772186279296875,2.6865615844726705,0.0,7.0,5.0,11-25,0.81226921081543
11-11,0.6062393188476456,-1.000946044921868,-0.6694412231445312,-0.8313941955566406,-0.46804046630860086,0.0732269287109304,0.7360000610351562,3.4468765258789062,0.9138031005859375,1.6872406005859375,1.5210723876953267,0.0,7.0,5.0,11-26,0.5012197494506833
11-12,0.7662143707275391,-0.4791107177734304,-0.30429840087890625,-0.23881149291992188,-0.1440277099609446,0.15563201904296164,3.2420730590820312,1.8749542236327983,0.250091552734375,2.0773544311523438,2.6964187622070312,0.0,7.0,5.0,11-27,0.8247075080871564
11-13,0.4294013977050746,-0.4962005615234304,-1.095458984375,0.5660514831542969,-0.7650794982910156,0.29296493530272727,2.5712966918945312,2.405273437499986,0.6348495483398438,1.2776031494140625,1.3136291503906108,0.0,8.0,3.0,11-28,0.5945275624593073
11-14,-0.1684093475341797,0.3764305114746094,-1.4519157409667969,1.1232414245605469,-0.4950408935546875,0.4028167724609304,2.0309600830077983,2.424194335937486,1.086944580078125,0.2145690917968608,2.0642852783202983,0.0,8.0,3.0,11-29,0.6340063412984159
11-15,0.09262657165527344,0.2737693786621094,-0.3738365173339844,1.5743064880371094,-0.5130462646484375,-0.19225692749024148,2.580635070800767,2.9260711669922017,1.3755111694335938,-0.7412261962890625,2.5680160522460795,0.0,7.0,4.0,11-30,0.797547499338784
11-16,-0.6735954284667969,0.5133094787597656,0.20864105224609375,1.2293777465820312,-0.3690376281738281,-0.17394638061522727,2.7110595703125,1.9980621337890625,1.3947219848632812,-2.1943893432617188,2.192695617675753,0.0,7.0,4.0,12-01,0.5697415669759097
11-17,-0.6651744842529297,0.2737464904785085,2.6777801513671946,0.5660438537597585,0.15299606323242188,-0.2105712890625,2.3384246826171733,-0.3787841796875,1.8371810913085938,-1.1215744018554545,2.459388732910142,0.0,7.0,4.0,12-02,0.6607880592346174
11-18,-0.2441787719726527,1.1720695495605469,2.3995704650878977,0.7340850830078054,0.12600326538085938,0.10071182250976562,1.4347000122070312,-0.445068359375,2.0103073120117188,-1.297119140625,1.7581176757812358,0.0,8.0,3.0,12-03,0.645766576131184
11-19,0.05052566528319957,1.0779571533203125,2.9038276672363352,0.6456336975097585,0.5220413208007812,0.4760589599609304,0.23291015625,-1.0037765502929972,2.8279190063476562,-1.1020660400390483,1.4914321899414062,0.0,9.0,2.0,12-04,0.6768719355265279
11-20,0.10947799682617188,0.7015228271484375,2.7212562561035156,-0.017704010009765625,0.28802871704102273,1.5380516052246094,-0.33541107177732954,-0.15151214599610796,2.0487899780273438,-0.25357818603515625,1.9852752685546875,0.0,7.0,4.0,12-05,0.7195164362589525
11-21,-0.17681694030760653,1.2747116088867188,3.042926788330078,0.11499786376953125,-0.26102447509765625,1.2176170349121094,0.07452392578125,0.10416412353514204,1.4620437622070312,0.9362716674804688,0.47408294677732954,0.0,9.0,2.0,12-06,0.6886248588561997
11-22,-0.5220432281494034,1.8821372985839844,2.9733810424804688,-0.3272399902343679,-0.35103607177733664,0.9979133605957031,-0.36331939697265625,-1.9980468750000142,3.029937744140625,-0.936271667480483,1.6395721435546733,0.0,5.0,6.0,12-07,0.5020820299784328
11-23,-0.12630844116209872,1.7709312438964773,3.295055389404297,-0.3272399902343679,-0.3870277404785156,1.1260643005371094,0.4658203125,-2.130645751953125,1.8468017578125,-0.936271667480483,0.8197937011718608,0.0,6.0,5.0,12-08,0.45141442616780453
11-24,0.10945510864257812,0.6929702758789062,3.6080322265625,-0.4776039123535085,-0.14400863647460938,0.84228515625,-0.0558929443359375,-2.4525833129882812,1.8468017578125,-0.7314529418945455,0.987701416015625,0.0,6.0,5.0,12-09,0.3521420160929356
11-25,-0.11788368225098722,0.2994270324707031,3.6080322265625,-0.0972900390625,0.40505218505859375,0.558452606201179,-1.183197021484375,-2.4525833129882812,1.3754806518554688,-2.0090713500976562,1.116111755371108,0.0,6.0,5.0,12-10,0.12521092096964606
11-26,0.6735954284667969,0.2994270324707031,2.1735000610351562,-0.07958602905273438,0.19802474975585938,0.8880538940429616,-1.7980651855468892,-2.8313674926757812,1.5774917602539062,-3.823089599609375,0.06914520263671875,0.0,7.0,4.0,12-11,-0.2210725148518898
11-27,0.6735954284667969,0.6929702758789062,1.4779701232910156,0.4156761169433665,-0.6030349731445312,0.12818145751953125,-1.7980651855468892,-2.1495819091797017,1.1157760620117188,-3.11114501953125,-0.879051208496108,0.0,6.0,5.0,12-12,-0.3363924026489287
11-28,0.49677276611328125,0.7357444763183594,2.234363555908203,0.14151382446289062,-1.5391273498535085,0.12818145751953125,-1.304298400878892,-1.6287460327148438,0.35589599609375,-5.227500915527344,0.4444580078125,0.0,7.0,4.0,12-13,-0.43022855122883935
11-29,0.159978866577152,1.0009765625,1.1476249694824219,-0.17689132690429688,-1.5391273498535085,0.2654914855957031,-0.9782028198242045,-1.0132369995117188,-1.0869140625,-3.823097229003892,0.4444580078125,0.0,5.0,6.0,12-14,-0.46657832463582033
11-30,0.3873100280761719,1.0437431335449219,-0.9824523925781321,-0.08843994140625,-1.5841293334960866,0.5309829711914062,-1.5092391967773295,1.126884460449233,-1.6544342041015625,-4.018150329589844,0.5531005859375,0.0,5.0,6.0,12-15,-0.5162353515624977
12-01,0.19366264343261363,-0.06844711303710938,-1.382354736328125,0.5483665466308594,-1.4131011962890625,-0.42113494873046875,-2.2545547485351562,-0.9753570556640625,-0.87530517578125,-4.418022155761719,2.143310546875,0.0,3.0,8.0,12-16,-0.74357811609904
12-02,0.1599750518798828,-0.7271842956542969,-1.7040252685546875,0.22113418579101562,-1.1430816650390625,-1.364105224609368,-0.8105239868164062,-1.2310333251953125,-1.3177719116210938,-4.037658691406264,1.9358901977539062,0.0,3.0,8.0,12-17,-0.8348654111226406
12-03,0.5809803009033203,-1.3346099853515625,-1.9648513793945312,-0.026519775390625,0.14400863647460227,-2.389465332031257,-0.0093536376953125,-0.31249237060545454,-1.6255722045898438,-4.018157958984375,1.5901947021484375,0.0,3.0,8.0,12-18,-0.7804865837097168
12-04,0.18524551391601562,-0.735748291015625,-1.1476287841796875,0.26532745361327414,0.5940513610839915,-1.1992912292480398,-0.8384933471679688,-0.39771270751950283,-1.0388259887695312,-4.193695068359361,1.5506896972656392,0.0,4.0,7.0,12-19,-0.5796734491983996
12-05,0.09263420104980469,-0.09412002563477273,-0.060863494873046875,0.27419281005858664,0.9000816345214844,-0.9155120849609304,-0.7173843383789062,-0.42613983154295454,-2.3373870849609375,-3.598785400390625,1.1161117553710795,0.0,4.0,7.0,12-20,-0.4805976549784348
12-06,-0.3620491027831996,-0.35076522827147727,-0.6085968017578125,0.3449287414550781,0.35102081298828125,-0.5676002502441335,-1.8260040283203125,0.0,-1.529388427734375,-5.89068603515625,0.9877014160155966,0.0,3.0,8.0,12-21,-0.7876199086507171
12-07,-0.5978031158447301,0.0598907470703125,1.3302001953125,0.3272247314453125,0.44103240966796875,0.6683197021484446,-2.897377014160142,0.47347259521484375,-1.9718856811523438,-4.076667785644531,0.4444732666015625,0.0,7.0,4.0,12-22,-0.48325999577840023
12-08,-0.4125785827636612,0.6245307922363281,2.0518150329589844,0.25649261474608664,0.17101287841796875,1.1443748474121165,-1.8073577880859375,-0.7954330444335795,-1.5101699829101562,-3.4329833984375,0.6222610473632812,0.0,6.0,5.0,12-23,-0.2573362986246724
12-09,-0.3452205657958949,0.581756591796875,1.2954216003417969,0.3626365661621094,0.6930618286132812,0.7598533630371094,-0.7173385620117188,-1.3162689208984375,-0.9138107299804688,-3.9986495971679688,2.3013458251953267,0.0,6.0,5.0,12-24,-0.10810105005899917
12-10,-0.008426666259765625,0.3165245056152344,1.9822463989257812,0.3626365661621094,0.9720878601074219,1.5563507080078125,-1.0434341430664062,-1.183685302734375,-0.9138107299804688,-3.9986495971679688,2.982849121093764,0.0,6.0,5.0,12-25,0.0853907267252616
12-11,-0.2357578277587855,0.46198272705078125,1.9822463989257812,0.01767730712890625,2.3762054443359304,1.6113014221191406,-0.5123977661132812,-1.183685302734375,-1.462066650390625,-4.9934234619140625,2.7655715942382812,0.0,6.0,5.0,12-26,0.06897115707397432
12-12,-0.20208930969237926,0.9154167175292969,1.9561614990234375,0.3714752197265625,2.69122314453125,2.5634193420410156,-0.22357940673828125,-1.5056381225585795,-0.5097808837890625,-9.97711181640625,0.5432281494140625,0.0,6.0,5.0,12-27,-0.281439622243244
12-13,-0.31154632568359375,0.838409423828125,2.5386810302734375,0.3007049560546946,2.42120361328125,3.2775230407714844,0.8478012084960938,-0.7196807861328125,-1.2504730224609375,-8.338661193847642,0.7506484985351562,0.0,7.0,4.0,12-28,0.02955087025960464
12-14,-0.14315414428710938,1.1207313537597656,3.0689964294433594,0.5483589172363352,1.8181648254394531,3.387367248535149,0.69873046875,1.060577392578125,-0.7214202880859375,-8.358161926269531,0.40496063232421875,0.0,8.0,3.0,12-29,0.2404292424519857
12-15,-0.2273387908935547,1.2918281555175781,1.70404052734375,0.14151382446290484,2.1781883239746094,3.6620254516601634,0.6055679321289062,0.7196807861327983,-1.30816650390625,-6.7001953125,0.49385833740235796,0.0,8.0,3.0,12-30,0.21341689427693863
12-16,-0.3283767700195348,0.5047607421875071,0.6172752380371094,0.34493255615235086,2.115184783935547,4.1746788024902415,0.5496902465820455,0.74810791015625,-0.913787841796875,-6.115005493164077,0.6913986206054688,0.0,8.0,3.0,12-31,0.19907156626383612
12-17,0.12630653381346946,0.7614059448242116,1.6344947814941406,0.34493255615235086,2.025177001953118,2.856353759765618,1.6583099365234517,-0.07575225830078125,-0.913787841796875,-6.115005493164077,1.6494674682617188,0.0,8.0,3.0,01-01,0.3293251991271955
12-18,0.362060546875,0.5560798645019531,1.6344947814941406,-0.19458389282226562,2.205181121826172,1.3641014099121023,2.7296829223632812,-0.07575225830078125,0.1731414794921875,-5.1104583740234375,2.647033691406264,0.0,8.0,3.0,01-02,0.5242484410603847
12-19,0.14313888549804332,0.419189453125,2.1561355590820312,-0.30954742431640625,2.7272415161132812,0.8880462646484304,2.2172927856445455,-0.10416412353515625,-0.2885589599609375,-1.4824295043945312,2.3309783935547017,0.0,7.0,4.0,01-03,0.7247769037882502
12-20,0.10946273803710582,0.18820953369140625,-0.017383575439453125,0.504138946533196,2.2051925659179688,0.9246559143066406,1.8260116577148438,-0.501899719238267,0.65411376953125,-4.710601806640625,0.6518936157226562,0.0,8.0,3.0,01-04,0.15281613667806018
12-21,-0.3789043426513672,0.5903129577636719,0.052158355712890625,0.88446044921875,1.76416015625,-0.22887420654296875,0.922332763671875,-0.32195281982420454,1.3755035400390625,-3.2866973876953125,0.2469329833984375,0.0,7.0,4.0,01-05,0.1349527041117362
12-22,-0.05052185058594105,-0.11977386474608664,0.17387771606445312,0.6810264587402344,1.1520843505859375,-0.40280914306640625,-0.2142791748046733,1.1458129882812358,1.2408218383789062,0.46813201904296875,-1.669219970703125,0.0,6.0,5.0,01-06,0.20042928059895862
12-23,0.025247573852539062,0.025665283203125,-0.165191650390625,0.8490638732910156,0.9000816345214844,-2.600048065185547,-1.667633056640625,0.5871124267578125,1.7314224243164062,-0.5949172973632812,-1.3136367797851562,0.0,6.0,5.0,01-07,-0.18523613611857095
12-24,0.3199653625488281,-0.14544296264648438,-0.11303329467773438,1.4416427612304688,0.0990142822265625,-3.341583251953118,-1.975067138671875,0.05683135986328125,0.5963973999023438,1.3361358642578125,-0.6716232299804688,0.0,6.0,5.0,01-08,-0.19973023732503195
12-26,0.3031177520751953,-0.5133171081542969,-0.5825042724609375,3.6969718933105398,1.2781295776367188,-3.2775039672851634,-2.357025146484375,-0.6344528198242188,1.7410202026367188,1.7067413330078125,-1.580322265625,0.0,5.0,6.0,01-10,-0.018262068430583867
12-27,0.3031177520751953,-0.5903244018554688,-0.634674072265625,3.0159454345703125,1.3411331176757812,-3.7535476684570312,-3.6799392700195312,-0.46399688720703125,0.7406539916992188,1.0825576782226847,-1.7778625488281108,0.0,5.0,6.0,01-11,-0.36807807286580047
12-28,0.328369140625,-0.6245231628417969,0.0521697998046875,3.396251678466797,0.6120796203613281,-2.0781822204589844,-3.5681381225585938,-0.8522491455077983,-1.0388259887695312,0.7607192993164205,-2.508758544921861,0.0,5.0,6.0,01-12,-0.4600906372070277
12-29,0.37889099121094105,-0.15398406982421164,-0.599884033203125,3.0601654052734375,0.19802474975585938,-2.6641006469726634,-3.9315032958984517,-0.6155242919922017,-0.5867462158203125,-0.5754089355468608,-1.0864639282226562,0.0,3.0,8.0,01-13,-0.5480445226033538
12-30,0.42943000793457387,0.3079872131347656,-0.3216819763183594,2.794841766357429,0.468048095703125,-2.499317169189453,-3.5215911865234375,-0.3882446289062784,-1.2889328002929688,0.49739837646485796,0.029632568359375,0.0,6.0,5.0,01-14,-0.29103581110636423
12-31,0.9682979583740234,0.5389671325683594,-0.4173088073730469,2.936351776123047,-0.6120758056640625,-1.5288963317871023,-3.4843063354492188,0.01892852783200283,-1.2889328002929688,0.6436996459960938,0.5728530883789062,0.0,6.0,5.0,01-15,-0.13770182927449723
