,2009,2010,2011,2012,2013,2014,2015,2016,2017,2018,2019,2020,ups,downs,avg
01-02,-17.212042934568252,1.761988945340113,0.16597889997585452,-1.5737274905444127,5.412223000619454,1.2794158037971048,-3.173379412042896,-4.6002002619081885,0.42275355277162485,-0.5198759130418227,4.883448341570293,2.5961775366854516,7.0,5.0,-0.8797699942788064
01-03,-14.757854410004182,1.761988945340113,0.12453585079069171,-1.5540000858084728,5.080471102170124,1.6911787145277826,0.0,-4.6002002619081885,0.653065791746386,-1.1015823297414844,5.9339064522316205,2.287720152420543,7.0,5.0,-0.373397506519589
01-04,-14.757854410004182,1.468181399543832,1.3410388064964114,-1.373837229644036,3.7812696809753064,2.2058823529411766,0.0,-4.843639026988637,-1.213535674235032,0.9557741094675835,3.8433105530936507,2.279150075898466,7.0,5.0,-0.5261882802046217
01-05,-12.801542369580973,0.11037779711558794,2.3843451726549088,0.2687644254911413,4.595693127612387,2.2058823529411766,-1.2856690349928315,-5.288671206494546,0.013612051950899845,-0.08061645229273683,2.914161295439128,2.279150075898466,8.0,4.0,-0.39037606368811595
01-06,-11.727982013276641,0.37950499312754715,2.4655783714573016,0.4607442460429199,4.595693127612387,2.2058823529411766,0.8686231777380041,-4.492069047585715,-0.027213720948366504,-0.4145562247041282,2.914161295439128,3.527320356866196,8.0,4.0,0.0629739095591509
01-07,-12.955321309259151,-0.9061006250573461,2.650497533104879,0.5759248150926384,5.457340704505081,0.6395007716195592,-0.10901681330370923,-2.8453490388852787,-0.2721787412973978,0.045851577839109495,4.1488620288463025,3.758946508852914,7.0,5.0,0.0157464510048001
01-08,-10.898911341702597,-0.9884696003596611,2.527223317261509,1.1075005311949797,1.165680468196653,-1.5483116627628064,-2.75101705502985,-3.022254705917949,-1.306196761163247,1.5912466452964409,4.26861059896172,2.0842308137680003,6.0,6.0,-0.6475557293547339
01-09,-7.145209141682463,-1.070849049844961,1.6583810611990966,-0.4655706731693875,1.6147638315957102,-1.1345009112793296,-1.7563023735315733,-2.9338018724016135,-2.8475724914957383,1.2234160828092013,3.0692648377638103,0.8731689485814286,5.0,7.0,-0.7429009792879847
01-10,-6.6183739655522915,-2.0515710693864566,1.1872520615535462,-0.7173302030827013,1.7950208078072492,-1.5823335151374414,-1.6008804279101847,-4.677665501248955,-0.510700844951531,2.2031967337829856,2.875329124395708,-0.10374578411141464,4.0,8.0,-0.8168168819867908
01-11,-7.969327493289141,-2.079866809310527,1.6858546568952693,-0.6998456842194548,1.4862004195209844,-0.20898551143879635,-1.0199407687331348,-2.3003658532222984,0.6799020856340909,2.2108809701960546,2.7212918168277604,-0.4581990037924817,5.0,7.0,-0.4960334312443064
01-12,-7.897370280432351,-2.135331193675431,0.7209031506099862,0.5602726240998087,1.1194785093244484,-1.251876566298515,-2.5251011095229168,-4.457068053148764,0.13618204236075054,1.8594098031668043,3.512013006167197,0.9968524929372686,7.0,5.0,-0.7801362978676428
01-13,-6.717151635845014,-2.472220526801215,1.3513510347053876,0.5409559280846998,1.6698636417751684,-4.109791809121244,-2.195386076731944,2.24144453049023,-0.09532846865490856,2.222221261099169,3.26366545720637,0.7855240580300383,7.0,5.0,-0.29290438381360534
01-14,0.5855572755888482,-1.5741499840817434,0.7575735682407719,0.15455567803629755,1.5375730459922279,-7.649839680431879,-2.719031803256994,2.135231316725979,0.12257111114135763,3.5670383881477274,3.521922504026995,0.30903993214298886,9.0,3.0,0.062336779356048054
01-15,2.4780396141005236,-0.0828572072707015,-0.47092453218213415,0.9012487189859135,-0.9992129944849822,-6.800694134724543,-2.7218531527714176,3.1032032813890122,-0.0272731084965046,3.25331113499612,3.136493441939677,-0.6380942105547084,5.0,7.0,0.09428223757718801
01-16,4.516934330666928,-1.8779351625760596,-0.7804499462581445,1.1476635197602625,0.6741111064415192,-7.323231289379704,-3.8331471448966044,3.032024560025578,0.13617388370243366,1.698398992533838,3.297940858094186,-1.9665333200671227,7.0,5.0,-0.10650413432940753
01-17,8.720197153323959,-2.700448970350285,-2.635428331606558,0.8632279948574264,-0.347088899069261,-6.123732979863745,-3.414396725196988,3.6083139782559552,-0.8248535767691328,0.9693306874789885,2.0722731709566173,-1.1902684357069993,5.0,7.0,-0.08357291114083526
01-18,7.442748450506718,-3.974069519740575,-2.101536189498519,0.629526951324694,-0.9062884982097551,-6.013253664601898,-1.9206334674169145,6.556925485934338,-0.698920279154073,0.20590289286888103,0.2756192788789203,0.2673841482321442,6.0,6.0,-0.019716200906336596
01-19,5.580789521043824,-3.7401517575766414,0.04107713766229906,2.18528569973045,-0.30852264853265826,-4.609872491321132,-1.7429859982296805,5.794488941334164,1.6364607039762002,-1.3612473877046833,1.551650323879342,0.7808509138154158,7.0,5.0,0.4839852465064083
01-20,2.9676538727604354,-0.9423401348000604,0.7407341706934225,3.716850288453523,-0.9509056667466037,-5.282130050445486,-1.0544509903864108,4.893435051462577,3.1106342653700203,-0.04575716811391275,2.703793614723466,-0.10388288024265763,6.0,6.0,0.8128028643940262
01-21,-1.0985349988304474,-0.194443596733941,1.2139921216295069,3.660812571828383,0.40206602778703515,-9.36177168905757,-1.3707186079329978,8.817504365129569,2.0151547795049334,-0.7139598948963882,3.1240587795206984,1.3732519956391933,7.0,5.0,0.6556176544656644
01-22,-0.908480699871189,-0.1666704813639323,-0.08230641313423857,2.3106011811256577,0.3639123348797191,-7.822302771773856,-2.3568456738365,6.698566539530954,1.2000611766517435,-1.9347272420415549,3.4151187629698896,1.0944838073517607,6.0,6.0,0.15095087670737115
01-23,-0.9757769926900396,-0.1666704813639323,-0.4958633392629428,3.5887816241968453,1.4081786384644615,-6.420551948125505,-0.8541554735896368,8.598770723609727,1.8026590580913566,-5.0611673779230495,3.650937422131237,0.4241961384144439,6.0,6.0,0.45827816599608034
01-24,-2.187084592518264,-2.735051113685177,-0.08230641313423857,3.8504698566187345,1.5309041308391418,-3.499204087592086,-0.8699766315101357,7.447393981881876,-0.2590353719956593,-5.263153102433749,4.390195142480971,0.6362942076216659,5.0,7.0,0.24662050054775664
01-25,-0.9640987907676075,-2.9403443616529152,1.8001606277707822,3.1437132266992998,1.663203686737998,-1.765653775745139,0.06268753277929572,5.989879037842417,-0.9624596671704325,-6.654742913056657,4.134262328618364,1.1707854845643035,7.0,5.0,0.3897827013849758
01-26,1.5878151698862795,-2.4182032353406564,1.9670805865904892,1.9552493470226393,3.534301525756344,-1.4400024414062387,0.8705135354444843,3.4780240421521182,0.31271699169303674,-6.308886120206686,3.6519334759429753,0.884881244217758,9.0,3.0,0.6729520101460453
01-27,-1.5191514994764435,-2.2303810174106156,1.6164942910193971,1.7108476610396925,3.461316537409264,0.1417548436109462,1.1940331783361529,5.590651064875176,0.1495589473655821,-4.62731658129964,3.992152836346329,0.17994780631041635,9.0,3.0,0.8049923390105214
01-28,-9.666320933751816,-2.394516231601243,3.3946256783150317,1.9928512614427476,2.799461917718336,-0.41002731770833484,2.5733554078586596,4.744580343208595,1.1012986463348928,-7.802907738791948,3.461881997593583,-0.14680325083354667,7.0,5.0,-0.029376685017920203
01-29,-7.194001417797965,-1.140244271103584,2.889473139375484,3.0319890333126955,0.9727296075947618,0.7363327702028345,1.0678396700957806,1.7387799879723151,1.128179739700447,-6.779454048871952,3.697143185510149,0.09478725330364939,9.0,3.0,0.02029622077455118
01-30,-5.080121974067485,-1.3682996498916933,3.1634085453059764,1.7156859572106757,1.6125943632799016,-0.42227160394541285,0.8951000189896203,2.5340407345279297,2.741012203052676,-6.162232519749834,4.2611421260316025,-1.595328956202912,7.0,5.0,0.19122743704508718
01-31,-2.2502551964845603,-1.3682996498916933,2.869842728541639,0.0,3.084445074527565,0.21895432069957838,0.21984828671091985,2.5340407345279297,1.9615733957898822,2.5635343518331126,3.57976672755831,-0.6974135281517202,8.0,4.0,1.0596697704717468
02-01,-2.2502551964845603,6.174142634242614,1.1169842262583474,-2.3122473574128466,1.767911715404203,3.941195670765954,0.21984828671091985,2.704523875785819,-0.14899174810164176,4.2135530221860025,3.161478505369001,-2.2055608050643998,8.0,4.0,1.3652152358049507
02-02,-1.3175654885889205,5.1524685523144,1.2195168282808624,-0.7441316366798173,1.805527774182541,3.941195670765954,0.8272183265511861,5.285528812260366,-0.17760230632854135,5.360688742595718,2.869654173211877,-2.2055608050643998,8.0,4.0,1.8347448869584355
02-03,-2.947226186968273,4.686260090843727,1.6060116342453583,-2.079756068997036,1.805527774182541,4.656938971237348,1.6883463121282687,1.0818058896245801,-0.7923522612504912,8.030008950610739,2.869654173211877,-0.895009417246846,8.0,4.0,1.6425174884684826
02-04,-6.142854690551745,6.300055173599299,1.1994311223003933,-2.079756068997036,1.6205023842037747,4.075954472407365,3.1111092403017135,1.5401456187966978,-0.20492012586416966,8.030008950610739,1.8866053181462124,-0.2399921005325069,8.0,4.0,1.591357441201728
02-05,-8.201441543947963,6.4869203538849725,-0.5082333949573563,-2.079756068997036,1.054417937969044,4.124352079749615,3.068510407986573,3.0666483791358683,-0.20492012586416966,8.544478525810483,0.8534458757562646,-2.264446088823334,7.0,5.0,1.1616646948085803
02-06,-11.007199486580129,6.166571316205009,-0.5082333949573563,-1.4218009478672986,1.562790981558866,3.1308071112298634,2.2785963212481475,0.46341005118879525,1.1455505513214586,8.755309545042838,-0.039382850744418996,-2.1911108566726494,7.0,5.0,0.6946090284144271
02-07,-8.92086876851003,7.255936383332974,0.14138496707195636,-1.1737957884644055,-1.147883047381881,1.5963964944041624,3.3115604504622596,0.368355063055434,1.5832180578989472,7.917855565319229,0.3031539032976874,-1.4694329020269934,8.0,4.0,0.8138233648716118
02-08,-10.269489061153807,7.791179142771871,-0.6667973432318648,-1.31428309849329,-0.459150299727775,1.7203918992664238,3.3262377488186154,-0.205819884099778,1.3942798460824044,9.738249835920637,0.8507752086911071,-0.6868975748661855,6.0,6.0,0.9348897016648633
02-09,-10.834557192114703,7.326015076737112,-2.0622808112709867,-2.497612086822654,-0.30610263250599334,2.220506801220113,3.808367406377064,-2.211539207226294,0.9291710497670549,8.873114102769362,0.5476287661741331,-0.7569848988705146,6.0,6.0,0.41964386451947444
02-10,-10.616434304723887,7.829741026566451,-3.828455774609791,-1.1248811134522951,-0.38292315660029913,1.9028458444467475,3.8328010102529793,-1.8114445520398081,-0.713706927081134,8.385098581318545,1.3770420486018755,-3.4113230758245705,5.0,7.0,0.11986330057123444
02-11,-7.5935424704474395,1.430427116117696,-3.5146450460050103,0.057202275610527924,0.73835553180939,0.8389014952403697,3.9517385007308334,-0.5547233289139071,-0.22892292493265717,8.84008617401486,0.342975103428542,-6.263166399254779,7.0,5.0,-0.16294283105013116
02-12,-7.16871644487353,1.066319477962906,-3.012557456883346,1.392027239636685,-1.1708265416832202,1.0216716145535638,2.7031113447882986,-1.8806647554815819,-0.41823738141731953,9.220793039483256,-0.7483282340490219,-7.265753194015214,5.0,7.0,-0.5217634409982103
02-13,-5.648078995444669,1.7685313177710222,-3.77239386037147,1.5217008834431889,-1.3534104019510076,0.8007456928110288,1.958999157812168,-0.054110789001780846,-0.09413622142234648,1.1676554008012292,-1.4707388501339889,-11.004964281125272,5.0,7.0,-1.3483500789009915
02-14,-1.3758115467788978,1.5380608529726594,-2.4979199418616007,1.6907715929389042,0.6179809393727335,0.2617890236349313,0.9111594351166248,0.5246158311278492,0.8727195174305742,-1.2960934772171786,-0.35498764220194806,-11.453952836086016,7.0,5.0,-0.8801390209626136
02-15,-1.2658241819112572,1.972484675866577,-2.138265794367774,0.6445500522993187,0.5430728600013155,-0.0615967262450441,1.5243013940052488,-0.845486297158303,1.758160180418639,-1.9570566269679905,-0.5226296816463762,-10.106994459505735,5.0,7.0,-0.8712737171009484
02-16,0.21382561327276667,3.178666796007173,-3.6451739899049422,0.05683740051287993,-0.6554278354308348,0.8090348985101676,0.9412520430086107,-0.32559743148889536,2.445438693208856,-2.695150650256159,-0.1380528395550511,-12.558594158908825,6.0,6.0,-1.0310784550853545
02-17,-6.141019297842621,4.70618729124577,-4.385405867540007,-0.07578801904600864,0.3522406962296387,1.7983902749602751,1.8796992481203008,1.5167748368026428,2.8398581410035733,-1.8340409564199782,0.17693925020747303,-14.039776871724808,7.0,5.0,-1.100495106166979
02-18,-6.431846645669781,4.389500228458411,-4.343245540873881,0.5305016782355677,-0.5236558311288289,0.5357392688066747,0.0910571545750778,1.491735728695832,1.9326863895449007,-2.3146039984199596,-0.7340596280978192,-11.276308262888998,6.0,6.0,-1.3877082882302336
02-19,-3.155515472415921,3.8345118092019868,-2.234875324627277,0.8311270081654134,-0.6554278354308348,1.8707275390625215,-0.33525385873294317,2.0561837567419814,1.609288035869125,-1.5388015708317722,0.05904690309356413,-11.920980678610722,6.0,6.0,-0.7983308073762397
02-20,-2.629597421195945,3.5822355974004445,0.2673740359396105,1.315790888911213,2.843863942367723,1.638103785917757,-0.8381520867765111,2.1636883901557953,1.9068971070207184,-0.7300840946622331,-0.7785561308992796,-6.9713306902187675,7.0,5.0,0.1475194436633771
02-21,1.2772356944736984,3.5822355974004445,-1.1472738162562117,1.593249294155855,3.9536621619147323,1.9566220378525818,-0.9905423183150007,3.1914813748412993,1.4011965189791395,0.6720204952256396,-2.617180753031686,-4.225615052459911,8.0,4.0,0.720590936231715
02-22,-1.8210043798075843,5.278803801650843,-1.5072246468570192,-0.5559833519472911,2.8687041975909198,2.366142198351065,-1.9068089913055197,4.210522300318668,1.6032848349030187,-0.5214124959902089,-1.5523984686546826,-1.6474279624404424,5.0,7.0,0.5679330863176469
02-23,-2.8571486159815063,5.9317789557308425,3.8809578181005353,-1.858595988172186,4.192722598769814,2.0988551382782794,-3.111871953420687,3.7638648021334897,2.396628438652597,-0.9429759040121453,-1.0647822843770036,-5.029809154348634,6.0,6.0,0.6166353209461164
02-24,-7.7470397269822575,4.3056235169154,3.733008964112747,-1.9927207183238274,4.456263267143835,2.0690712625805996,-3.303213986446591,2.4805346756933573,2.080592283722646,-0.7100059840048482,-1.682018773902518,-1.7800521699832033,6.0,6.0,0.1591702175437782
02-25,-4.979100721711435,4.790271187191706,2.5360113142262586,-1.9927207183238274,5.701360227835124,1.464306162633167,-3.294115253523307,1.9907741155006868,1.9225691829535583,-0.9227369196380028,-1.08489730730294,-5.411538352204118,6.0,6.0,0.0600152431364059
02-26,-5.776588615682216,4.368334813197225,2.2722717098372134,0.07509088639685554,5.221317921082974,0.18443762940419892,-4.577022566197881,3.322342378063715,1.8061900392192127,0.09904695121026157,0.6959410976621472,-0.6635277003372875,9.0,3.0,0.5856528786547015
02-27,-7.345065497799032,3.1769733554432382,-0.2914832254977623,0.5790089054726013,3.5404607349411235,-0.7226340930000189,-3.961493232404408,2.821357195384221,3.0082009780607466,1.4100008774055957,0.8312130416237841,-3.3508272441145937,7.0,5.0,-0.025357350373708787
02-28,-0.9181322751415271,3.3449015569938068,-0.06231570352559175,1.585818093878279,2.5122052382900026,-1.7373881265555127,-4.955807069761034,2.20247260397593,2.9185639918821256,1.1933721890107045,0.5377350693463336,-2.0084758043936626,7.0,5.0,0.38441248033332115
02-29,0.0,0.0,0.0,2.9957748073633836,0.0,0.0,0.0,2.7315910902201592,0.0,0.0,0.0,-4.541784332698269,2.0,1.0,0.09879846374043948
03-01,2.0786984491074896,3.4406018610056566,1.9421537433291916,2.791040182365801,3.361649283929005,-0.44588086015556977,-4.625548400230863,0.9835165932744715,0.6141398513000775,1.1879645813807027,1.4372323408754897,-9.724576437278094,9.0,3.0,0.2534159324086132
03-02,3.7928552612458963,1.7249965667724612,0.5243288557044365,2.3136216355399224,3.488162373586893,-1.8394392472457992,-5.388275131691696,2.2977940071589686,1.8513727922389578,0.432995882058217,0.6550627463254634,-7.459282588374413,9.0,3.0,0.19951609610994234
03-03,4.567044068950825,1.7352522565485085,-2.74725115267223,2.038194324296344,3.749095229847558,-1.271120241311674,-3.292049606492365,1.763561136114971,1.5535952633746284,-0.3663837372852247,1.244045861492787,-16.932186331211767,7.0,5.0,-0.6631835773623034
03-04,4.792554682104458,2.1234582971643516,-1.3102259845377238,2.805612921573048,4.129262487534616,-1.216134431436864,-3.159883849935652,0.7184886085320448,2.058514217847272,-0.1329228491411438,1.3973822404284468,-11.394510980712194,7.0,5.0,0.06763294661838826
03-05,12.626951029051348,0.37037413797260804,-0.9509737232493546,2.5392823560918742,3.16775034688273,-0.7026104718128647,-1.688816268135716,1.0842610032209896,1.7277237893688586,-0.27731558044204113,2.1598668243599484,-7.472871686753068,7.0,5.0,1.0486351463796093
03-06,13.50711426812955,0.09876769266010801,-0.7593347637844661,4.451365265403072,2.5622653108554667,-1.37218529335998,-0.5003844821099426,1.9932706095605612,1.8552157125139686,-0.9003974731404346,3.001931135287076,-10.904395919129508,7.0,5.0,1.0861026719071227
03-07,14.353424329916278,-0.5717115208884309,0.4791657129923503,4.062505215406272,3.7422818878717163,-1.3413548233041401,-0.3596552611295954,1.5216519420376367,3.0447009618291103,-0.4009808590402633,3.915343736710972,-4.857877982679279,7.0,5.0,1.9656244449768856
03-08,15.806988754069062,-1.6327497833690894,-1.510507937163007,1.8607191308899533,2.4713177196285674,-1.079242894935263,-0.8485243882877525,2.054789860851789,1.0811439858713585,-0.4018312591439477,3.347759335935145,-2.5991097959252936,6.0,6.0,1.5458960607017935
03-09,14.208208092836966,-1.2345721728925996,-0.776939417911981,1.3632974952309385,2.2947979112832626,-1.3918865535291565,-1.502452585508675,2.843603470451024,1.3012362002020672,-1.4287380969007393,1.856662204749042,-9.663814296368363,6.0,6.0,0.6557835209701485
03-10,14.605647770212835,-0.8510641954813168,1.9395687460557107,1.2527640391826051,1.6174900009974083,-1.250961480453668,-0.5679138883385926,3.458430842572666,0.07807099516593213,-1.328276024164718,3.335232368699993,-23.90086677666398,7.0,5.0,-0.13432313351792727
03-11,14.12615331461028,-3.090674424808958,1.7149860360115836,0.740743566442419,1.5825092065857245,-1.355343642464645,0.2204714797613189,2.9332662027397998,0.1301216344913368,-3.206002414934115,1.7432390985925263,-12.514200065845332,8.0,4.0,0.252105832598495
03-12,12.843737731971824,-3.192847895992356,1.1841527598571868,1.2709567687793208,1.1428560529436385,-1.3715667132008746,-0.9209301925537924,3.62495432575531,0.5313681216304992,-4.621415571474381,2.1529039843163416,-4.679531167024095,7.0,5.0,0.6637198504173852
03-13,11.290843702189015,-2.1711326717553976,1.485852893070847,0.9286204270516223,2.3300964859130824,-0.9123829382398067,-0.19053498373605204,3.711289414551855,-0.16966490310360613,-2.596078607068533,2.9969685024100765,-6.886226506384522,6.0,6.0,0.8181375679082151
03-14,11.45260118296342,-2.9866113358777087,1.1639772934766708,0.6023030216105835,2.0653167733951245,-1.478688761866997,-1.2861247684636832,2.778138703754127,0.11746797710624106,-2.2593072461403043,2.492415975252765,2.5504580217059574,8.0,4.0,1.267662236409683
03-15,15.732754849204944,-2.2494915443312604,2.4948899440370527,0.09100698636754741,1.6769651144765918,-2.186565040618695,-1.2861247684636832,2.7454909507252747,-0.22057631973330477,-2.4977258202854924,2.340782477148523,8.648648605779668,7.0,5.0,2.1075046195255975
03-16,14.735195824700728,-1.9459197970739144,3.072511285081033,0.36402794547022843,1.9240955396796267,-1.994034361983944,-0.9654963713281124,2.496496027438221,0.07787845000097547,-2.3501358444504383,1.7153123731763147,6.510641219768118,8.0,4.0,1.9700476908732363
03-17,9.660748319098976,-1.912426495807145,4.453847505128752,0.6370558479608981,2.2519331032031857,-1.0735996226019773,0.1412875219936458,1.8671423320518188,-0.05192226772064018,-2.1344200889368414,2.335439589336107,4.010754651724743,8.0,4.0,1.6821533662859605
03-18,5.138081263588492,-1.2330091672719723,3.2648104932622144,0.582771254258709,3.1211807296521523,0.9530972283829147,-0.6769526166198647,2.3371064255430527,-1.0384156449328947,-1.8107723665335178,2.5190340450707254,2.802894203200805,8.0,4.0,1.3299854873000678
03-19,3.3451299788455353,-0.1761441667531389,1.2696438270440042,0.3286476240119624,2.036159070662896,3.266222731885224,-0.18891519367125392,1.714728878386022,-1.2750399684580225,-0.14471473980648195,3.815802288818379,-2.7751774185145064,7.0,5.0,0.9346952427042182
03-20,5.1463505101866165,0.1258254897983909,2.2740861068393583,1.0909063165838198,1.013451023932622,3.693767873226122,0.4565505564191139,1.3136160701254291,-1.1040375343627484,-2.1039445783013355,3.0498080910574714,3.845750944237683,10.0,2.0,1.566844239145212
03-21,0.9006133331337324,-0.8640410820129711,3.5250042218588455,1.7734338979421282,0.6709058478285994,3.559725069072498,0.20466162968886614,2.1620927597052195,-0.4185738490491549,-0.03349573483099817,1.7958502682179036,12.763744825020733,9.0,3.0,2.169993432214617
03-22,5.952377764039971,-0.48100918154171457,4.360577960209589,2.2801273250169802,0.7062106558827832,4.393799486237431,0.4084872427296795,1.0645088433679866,-0.14334195128183078,1.9507301503282442,3.3869911122204623,12.709309440223041,10.0,2.0,3.049064070619386
03-23,6.210042931313351,-0.7312176415610019,5.003882393981433,1.7553337594436367,1.1299424374029994,3.7342499285745423,-0.38004411396757787,-0.5145376085292197,-1.41956073220525,3.2772293739941825,2.754256118778591,10.89287808715474,8.0,4.0,2.642704577865036
03-24,7.336371543402212,1.4846505477315655,4.675979442379212,0.6152735485252495,1.1822802022119456,2.8013301763690945,-0.189332486371858,0.7566093124984407,-0.709780366102625,1.6720544145670664,3.320995734102668,12.604212294940162,10.0,2.0,2.9625536970210944
03-25,2.4921163927886467,2.65664494424519,4.98641763518082,-0.23726455784951056,0.16045668094678758,1.9260081658547632,0.205991232543121,-0.423177978269239,-0.709780366102625,2.42256903146104,3.890009022106486,10.818831234432544,9.0,3.0,2.3490684531115025
03-26,-2.4605639133257595,1.954893644523368,5.122233881942167,-1.0673500455074991,-0.461078451932366,3.4624128050556044,0.6937853033941543,-0.423177978269239,-0.11760612664416295,0.32768465031338273,3.2571754215469815,4.86551193107651,7.0,5.0,1.262826760181095
03-27,-1.261822402380745,0.8270722266530497,4.004705841826352,-1.1819009632762092,-0.7087199426146362,3.8496366535290836,0.3784261600421337,-1.2411106702139654,-0.6039903654856466,2.024471261327296,2.440834809224231,7.041141765418621,7.0,5.0,1.2973953645041303
03-28,2.365930542427074,1.5426697015926922,2.8991244376048693,-2.9996221776228467,-0.17466982379230347,2.974035755186288,-0.4415052066829745,-1.228020864460888,-0.23410106204268533,4.702330190843476,2.613718314555945,0.632910771622862,7.0,5.0,1.0544000482692921
03-29,4.651874196310496,3.2991166532984457,2.4575415803913736,-1.873837278183159,0.4890808371997692,0.21135174239641244,-0.5842395723780508,-1.4865583205864457,-0.15600981466283967,2.623304248179201,2.4303021860132294,3.486694104444219,8.0,4.0,1.2957183802018877
03-30,7.61193802107627,3.0967975982568294,-0.4860223948527061,-1.6140981581736356,0.4890808371997692,-0.5935160479109015,-0.3307592989777465,-1.4692706184421522,0.07799994802648427,4.682926498454438,1.2197375457517028,6.329815883863642,7.0,5.0,1.584552484522666
03-31,5.20547690685516,4.374247837210419,-1.027815693689461,-2.040813437812169,0.8872622226770358,-2.132257767907077,-0.14188893607895312,-0.2813674559838884,-0.09100324556752203,4.682926498454438,1.7782277152253099,2.745478847568571,6.0,6.0,1.1632061242459886
04-01,2.843749523162842,5.457153771930417,-2.3377667722332776,-0.9174311926605505,-0.12302230746408002,-2.8531991727157227,-0.5529262133283483,-1.1510344908337986,0.6110260425004498,5.14562761607175,2.356992595109122,7.5081694007287165,6.0,6.0,1.3322782333556267
04-02,-1.2360868468392006,5.074195772679844,-3.0632819235853392,-1.7011799885276933,-3.321899571877878,-1.6810550217662263,-0.23809766012523673,-0.9208353986721987,-0.2885918688452792,5.196765169621799,2.4297007769360537,4.735954389025948,4.0,8.0,0.41546565233538263
04-03,-1.5142084503323128,5.074195772679844,-2.9595354839819574,-1.8242083202855506,-1.3963458123420274,-0.9844033589209973,-0.6031762985955988,-0.5863693202826756,-0.8575117022627898,5.036581616968966,1.9613222696675745,6.677893434449849,4.0,8.0,0.6686861955635269
04-04,-1.5142084503323128,6.351826974333346,-1.8116660475915956,-0.532111771609805,-3.0176329722997215,-0.015147866750514946,-0.6031762985955988,0.4290174610607256,0.6859050114174333,6.678454543196226,1.3866121459373393,0.16843175312720238,6.0,6.0,0.6838587068243939
04-05,-8.666883796091975,7.444571155902276,-3.972577565318532,0.2569739185476702,-1.9632827922336615,0.9238234463557751,-0.5872127542266231,2.373476648044607,1.9208429413838837,5.449219800453151,0.8027776507604284,1.0701976968291917,8.0,4.0,0.42099386253384935
04-06,-10.717891437984628,7.409125410399938,-2.730721141285686,0.6057232362889315,-2.5086368118921474,1.4759086361641585,-0.8593267253598156,1.8502122690655647,1.315285921755766,7.436461212177601,0.5747170835864369,2.1177387346737393,8.0,4.0,0.49738303229915504
04-07,-9.954911019175833,6.732111583910874,-1.5347827105169933,0.6057232362889315,-3.3351653014519616,1.7275071821403631,-0.47762972536426307,3.0337197828573035,1.7923911475809164,5.972177646712034,-1.197772471755274,5.442303686137506,7.0,5.0,0.733806086446967
04-08,-9.625121294745083,6.317022850302586,-0.3787172580043255,0.7150703760575354,-2.3783542393696138,1.8336364391155242,-1.116066541164415,3.0211810632241267,0.8510685185516764,5.168777814494,-0.7208195045708904,1.8940841351374935,7.0,5.0,0.4651468632523845
04-09,-13.984350784978774,4.615392276243115,0.23918464473663004,1.3481469703005546,-1.767038511384857,2.0408234645956957,-0.7156500561315092,3.0211810632241267,1.1950659326944655,4.807285893860602,0.7068728916819988,-0.9125057041026754,8.0,4.0,0.049534006728280976
04-10,-11.772708936126431,4.405601718232065,1.8627465939989276,1.6955366704834731,-1.9408834678586961,2.217258826540031,-0.9701027353526631,1.5525594200495203,1.4104353176705255,1.727607079787134,0.9267641883449927,3.715902600410496,9.0,3.0,0.4025597730149479
04-11,-11.772708936126431,4.849188460743932,2.5695926071061628,0.2406019921432889,-1.7345124641350942,3.690470000242981,-0.8746807056583273,2.9116461921919927,1.7624582746188273,0.9980685792336528,0.25468325730308156,3.715902600410496,9.0,3.0,0.5508924881728801
04-12,-10.013388488454973,5.1572693579337185,3.403751760808952,0.9451116929067501,-0.7079673024405294,2.9910633900534944,-0.7785219084178192,1.8096689014492084,3.175409492447113,0.4830966937898379,-0.3365427587512757,2.5423712190925785,8.0,4.0,0.722610170868088
04-13,-8.487442963001747,4.52435502848809,4.282409749553779,1.7084671372014586,1.9646028501797566,3.221493689552962,-0.22120301409901,2.1769021107546016,4.4618016757359085,0.429416553222254,0.04548212720337893,1.699965641346524,10.0,2.0,1.3171875488448295
04-14,-5.855112420000825,2.15457135176697,4.718977266,1.3631406647765127,1.3886394956802983,2.9043743907790915,-0.8122285620274384,1.8884469153573245,2.609024187508871,-1.2452989948610877,-0.40201229207371153,7.603486452979469,8.0,4.0,1.3596673713237895
04-15,-7.866668701171851,1.3969785288946661,3.6447371704371885,0.42201750869051036,0.0,1.3004525063358334,-0.3504320244996058,0.8879428371711052,2.609024187508871,-1.1042011071782876,1.3731814794835566,9.219284018586956,8.0,4.0,0.9610263670215785
04-16,1.8187767347827777,0.2328341956739824,4.872435955273559,0.9490791185884159,-0.9214130989884677,1.0727073766989736,-0.7354102159606569,0.4127086478653677,1.9291842299768096,-0.909478367694876,1.5271262602430766,7.476383739132375,9.0,3.0,1.4770778812992782
04-17,3.637547274864107,0.06985469956039946,5.290298749950822,0.01834217912506056,1.9429593266222764,1.2607512566095205,-0.46363056605046243,-0.4288010265668235,3.7733577752648384,-2.8128312870780263,3.182309406246655,6.486191198112958,9.0,3.0,1.8296957488884438
04-18,6.365706182336836,1.8298330956564266,5.452813286463106,0.34753728383497734,1.6225013630304461,0.5042959761562743,-0.41567088633380184,-4.776312175549959,2.7091478379092955,-2.2129566758221033,4.077651426002255,2.852470328323183,9.0,3.0,1.5297514201672444
04-19,7.089915289258379,0.27881678445489627,5.035024739570923,-0.018342447193046892,0.7030816316313414,0.5042959761562743,-1.1922050621961093,-3.383212134996505,3.304231916859764,-2.420057856792867,3.439409039436158,0.1307427972118786,8.0,4.0,1.1226417227834238
04-20,6.0606079439049125,2.038011053275767,2.6345953416852104,-0.6601881870722413,0.018031613503449406,0.16371574096531652,1.9359900380719164,-5.306926261473803,3.269107959208485,-2.031120281331427,3.439409039436158,-0.753724379459362,8.0,4.0,0.9006258017261985
04-21,5.489943560622365,1.424629883647352,1.0021207629218047,0.49514114030420375,0.25179747030676614,-0.599882309610394,1.9387083826124603,-3.99682949978796,3.0577988536846137,-1.9338817661422207,3.601769641437362,0.646002085744082,9.0,3.0,0.9481098504783693
04-22,6.162197713861152,-1.4117611155790442,1.4839091671241618,1.0395832399893248,0.9466022112979761,-1.3185569538206705,0.19047449505519481,-5.452624245239201,2.6724598856946904,-3.544771323725851,4.321474075437658,-0.7010283348607271,7.0,5.0,0.36566323460288874
04-23,5.416531837195448,-1.7411804199218748,1.4839091671241618,-1.0052067918084144,-0.16051391667155382,-1.250556226175386,0.25356553293378675,-4.579141339687796,3.7965307298965594,-2.265333069041703,4.312292844056207,-0.15258061394579972,5.0,7.0,0.34235981116280295
04-24,4.0861546425361475,-1.4117611155790442,0.44790564570753416,-0.8210461381902864,-0.6412551020047613,-1.3237021795760398,-0.30111322662578954,-3.8916633966394554,4.407276826946972,-0.40947978547591773,3.536017141469349,0.7057008005552748,5.0,7.0,0.36525284276033193
04-25,4.244536476215356,-4.2069580224668695,0.2731162587448227,-2.286669494889838,0.5136396036660552,-0.9927737656258625,0.4912798194771555,-3.592026622466587,4.58126127915474,-1.5148205724589847,3.9828063870596018,-7.362198336608652,6.0,6.0,-0.4890672491832551
04-26,2.9222860155694645,-6.841840136572593,0.7846887031810705,-1.4519708890033762,1.8951464969443907,-0.631766166873215,0.3333318801153274,-4.415410997609822,3.8069918662036613,-0.34423375427686415,2.2545835099458764,-6.741253937670299,6.0,6.0,-0.7024539508371982
04-27,3.6033196623798247,-1.2808370908011055,0.5152680341627971,-1.991808768633916,1.9659947367176442,-0.299856951705566,0.5858121164956365,-3.736374137263771,4.923376005587217,-0.5378657540063555,2.342309166578139,-4.696366696816244,6.0,6.0,0.11608086022452506
04-28,3.505950939975021,-1.801379855341701,-1.4532067256933348,-1.4705828050607235,1.09006544019194,-0.46554318221502,0.444025670625398,-3.2018729999279065,3.101242439539099,-0.580895999188474,1.4867259337838772,-4.580945215333928,5.0,7.0,-0.3272013632204795
04-29,1.1874163469082772,-2.4367406468861494,-1.6275918284322,-1.7547109054768286,2.0180619055995823,0.5629588939525463,1.5115715790330393,1.0803095291860332,3.7890663516092937,0.3092023805272539,2.00704120591716,-5.8970707674620515,8.0,4.0,0.06245950370632972
04-30,-2.850515771219076,-0.8434878345300888,-2.3638853057064795,-2.0977691415780715,-0.2143603659628966,-0.6418873248066486,3.51313861635781,-0.026027128191898084,3.3927001863299147,0.8378416670449402,1.3829832852686001,-4.549896256024667,4.0,8.0,-0.37176378108487995
05-01,-1.723567969667495,-2.3195826070541865,-0.6861074937606627,-4.471615241759802,1.4742416120870083,-0.6139617693980401,0.43525380277808157,1.0047646617204182,3.2755027759870754,-0.1820693626910291,0.15047423728846637,-3.6321043616568467,5.0,7.0,-0.6073976430105844
05-02,-3.8448785034096664,-3.3120361864687538,-0.9940746398626018,-5.392340568847002,1.8881237504796138,0.149743150567576,0.5751635878291177,0.15590846391951638,2.940820992312528,-0.49945612605186335,0.211937361618675,-4.286271693158007,6.0,6.0,-1.033946700922572
05-03,-1.9856791145382129,-7.008078165677503,1.0204027201704782,-6.922783027036727,1.1999232617783073,0.05989954516105656,1.9168839404226294,2.1317848751297808,2.826433073328166,2.5871265183445025,-0.5386794611965838,-4.245557791323786,7.0,5.0,-0.7465269687864909
05-04,-2.2185980869137283,-5.5542103831009,0.21153963529146635,-4.7581952018129625,1.0587585909785469,-1.1518558171701851,1.9018373033880365,-0.2121963255662928,1.0816716126062673,1.3683972276767264,-1.571881678625843,-5.231524688269718,5.0,7.0,-1.2563548176265487
05-05,-1.032257080078125,-5.406746829553232,3.5318449826840834,-4.504682972464536,0.883860708321246,-0.9071643175959864,4.051178059321988,-1.0764087157392026,0.4496780781195119,0.791103117946098,-0.7974726385482929,-1.353812781620081,5.0,7.0,-0.44757336576721074
05-06,-0.9916809458496535,-2.73224623616047,3.700922858622216,-6.880735550331332,1.7522341078454426,0.3902063898443285,4.524130775379233,-1.3687691419227574,-0.27953738496100555,0.5252415681861028,-1.08982059858763,-1.0893639418188998,5.0,7.0,-0.2949515083128687
05-07,-0.3221600231044916,-0.19871295178842133,1.8410662233027626,-7.826960422401346,1.6123413275507301,-1.0180912068007908,3.7580188189403394,-1.7275788063226742,-0.45045379757899084,0.8123071041766591,-0.8227178853888659,-1.0152260524998196,4.0,8.0,-0.44651397265957576
05-08,-1.0309268214748655,-4.719328378269414,1.396493027037413,-6.388448288181041,0.9299922414187219,-1.0299914264645924,3.513594972851313,-2.271215246884052,-0.18212909758047408,2.393362353869018,-0.4494135457784711,-2.988214737818033,4.0,8.0,-0.9021854122728731
05-09,-0.16108001155224008,-8.380458081381905,0.5140907376434715,-6.186995569627665,1.1482097136032332,-0.8633743165815227,3.6663576913353815,-1.6195422687487329,0.434564216406625,1.0642826838482322,0.13256873517990975,-1.8197431566357674,6.0,6.0,-1.0059266355425818
05-10,-0.16108001155224008,-8.912427911483254,-1.6291701516963326,-4.936337895053754,0.21197479348343784,-2.2417501244890508,3.6663576913353815,-3.0619078586639126,0.38466123985223605,0.318838807566699,-0.39769946281376517,-1.8197431566357674,4.0,8.0,-1.5481903366791936
05-11,-1.138582902003045,-9.385530102481523,-0.27200191631648435,-4.583741797373291,1.1128794582631287,-2.2417501244890508,2.865059839980133,-0.5891654802548205,1.031299456345023,-0.21256731365837633,0.3093225536024926,-1.160910898484124,4.0,8.0,-1.1888074355724947
05-12,-1.5645356501360632,-11.640075375944257,-0.7875525097900911,-2.5073508582247004,1.1128794582631287,-2.396847504463404,1.5348863232043364,-1.6764882840577027,1.1512160828625992,0.7652180033284087,0.3093225536024926,1.0941974715271365,6.0,6.0,-1.2170941908190094
05-13,4.615868236517749,-9.592949940925106,-0.4802151237135014,-2.5073508582247004,1.2524238872324467,-1.5153811674072348,-0.5627647389117846,-0.8120533843784972,0.911382829827447,0.7652180033284087,0.141639548523023,6.5084479088913,6.0,6.0,-0.1063112332700374
05-14,-0.06514185641057375,-5.807626902230406,-1.6519338704733582,-2.4872707081985888,-0.14229458310284657,-1.2585320234451116,-1.1321273100717837,-1.375249604115856,0.911382829827447,0.7018994377144931,-0.04427791695978661,8.96490776872312,3.0,9.0,-0.28218872822860436
05-15,0.16287017318102714,-6.896551383092336,-1.6519338704733582,-2.23276240760232,-0.3541649440745136,-0.030327884685584883,-1.1166153130033263,-1.375249604115856,1.8063033213296924,2.10459536394271,-0.3011482137249369,9.817861174713864,4.0,8.0,-0.005593632300411618
05-16,-0.977196187638877,-6.896551383092336,-1.808385215442699,-1.124038069641297,-0.5331424109117018,-0.2728931286752463,-1.8300251919091977,-1.2691367484365133,1.8727056769222352,-0.24649379804039706,-1.2511124226178187,7.463350775757887,2.0,10.0,-0.5727431753104967
05-17,-1.8062371864698008,-3.204001889492567,0.44035907381223816,-0.5414085894255712,-1.421715355522393,-1.0157643696860417,-1.8142438162448242,2.255636346301326,2.673293247877618,0.7130674494185185,-0.9582980126882055,6.675624596867505,5.0,7.0,0.16635929122898352
05-18,0.032248399896900225,-1.1540368224510147,0.31835576551469585,0.3408826400367736,-1.4039468795105599,-0.39173496470787306,-2.96378107382563,2.601607663285184,3.3760765491839253,0.4257146975057753,-0.3016894201348469,6.499683906491116,7.0,5.0,0.6149483717737038
05-19,2.828716169906143,-3.0721886995701384,-1.6692301696303258,-1.383602278292995,0.3144659327350941,-0.06007045761706537,-3.427221846191638,3.0565997129070954,3.1172820365681417,-0.053217382125421875,0.414061502826034,6.90180841714917,6.0,6.0,0.5806169115553411
05-20,5.5386477815550474,2.383932207322726,-0.7674626517196558,0.2170846647507967,-0.5994360812245338,1.03759765625,-2.361217050068095,2.434914228351605,2.5526476224084313,-1.8305919053214765,0.2030508822771659,6.835010309247471,8.0,4.0,1.3036814719857903
05-21,6.280486322739931,2.860726306900017,1.0744389295280041,-0.5969022319471257,-0.24626773632972837,0.30203046504050657,-1.2160879119415131,3.1343066929682,3.9647643329971483,-1.3366449693159004,0.4823252023599405,7.229875114461125,8.0,4.0,1.8277542097883839
05-22,6.4634115280386855,3.2120422291311166,0.7889163705633683,-0.736756118859326,-0.05302011015561645,0.37781473011635835,-0.5612731739589992,3.3096284539039074,4.0426334057004905,-0.10654003139870553,2.220877694187604,7.221045544953488,8.0,4.0,2.181565043518531
05-23,3.5670734863065947,3.066100006615082,-0.8015637051441489,-1.2896779593308012,-1.6314088693559592,0.2720270668833998,0.26504236133925096,3.1217566424654093,3.098422923696011,-0.18100316467161354,3.5601453656002833,3.292722252589548,8.0,4.0,1.3616363672494212
05-24,3.7138489194012867,-0.28601303424360386,-1.8199841691947822,1.0081435426599556,-0.7888175888048958,0.33247880730088225,-0.07822755505351833,0.9210002830466909,2.445020923265591,-0.12777671441611857,3.585756891255808,2.3096097306825203,7.0,5.0,0.934586669658318
05-25,2.4969158453523543,-0.5523384585593147,-2.3393010937540417,1.880576165701332,-1.2370069137799067,0.8717899319054088,0.48226130130792755,1.4711568216230968,1.797176883709832,-0.18102242819302863,3.6113684169113336,3.3950603371398573,8.0,4.0,0.9747197341137376
05-26,3.4198498907890027,-1.4999991969058388,-2.72727492041531,1.6867055364434478,-0.33760207094415245,1.7285108799871582,-0.3450999540441288,1.6598055780571865,1.5404360569680435,0.6389160687017416,6.096649443894381,3.548158755351437,8.0,4.0,1.284088005656914
05-27,7.026043799701837,-6.193519131335995,-3.221346081559436,2.3681162394251998,0.9298224198190664,1.903921381493446,-0.5144221717930734,0.7462710009584844,1.342048655752184,-0.07507474949379758,7.398291320975366,-0.07113170639847632,7.0,5.0,0.9699184147954004
05-28,8.64086681637038,-5.95428426917971,-5.533603035956299,3.2251954049497455,1.2589568513638514,1.7428842794802009,-0.3891656418329312,0.5918670577042159,0.8328435008476905,0.37369857978898147,8.375263425245185,0.03583027207634752,9.0,3.0,1.1000294367381382
05-29,6.960700494205287,-3.82775779450055,-4.521435440187601,2.0475205020633775,1.0202252100700495,0.34533893815094696,0.7316273686723321,0.6813199293729333,1.295972668507401,0.5435963951069911,8.060046284245905,0.22393407503294976,10.0,2.0,1.1300907192283351
05-30,3.4803588310294495,-1.1917174024717263,-5.952380772170392,4.773725512676894,-2.123108755761435,0.015018222912397997,0.529259572224216,1.2020394484591452,1.0533725423242077,0.20180821914700048,6.668311484296099,0.19706307945709656,9.0,3.0,0.737812498510246
05-31,5.465767490662252,0.1788900917798603,-3.790088890230053,2.5014489536704905,-1.1953648398974046,0.1501478624807545,1.3584397499235974,-0.625167184898449,1.357621449062637,2.1204410585995257,6.865651960980822,-6.877696085319244,8.0,4.0,0.6258409680678988
06-01,5.437984314889036,-0.17953242321319987,-1.0077528549239676,3.2903653242338584,-1.4272957144512917,-0.6051460440434006,1.052958014703548,-1.0073215835604319,-0.0115966796875,1.6433450559509157,6.240752997761692,-5.751706077722211,5.0,7.0,0.6395878608280873
06-02,1.2916800641336863,0.7719157730798447,-2.7278139236072896,3.367327225120129,0.7680265916822422,-0.13551623690386683,0.4978931022885946,-1.3495791187309534,-0.09275574615036232,0.4877004728170059,5.541751469315703,-6.31818214717399,7.0,5.0,0.1752039604892286
06-03,0.545786257350471,2.1156225782773035,-1.1069408412768351,4.1237109648073895,0.3331038540613484,-0.8836103541252329,1.1710356215128954,-1.1530362381246804,0.46376988507699274,1.0541851081233025,5.046213459398456,-5.484681463007987,8.0,4.0,0.5187632360061187
06-04,0.8750782162595397,5.387459678229125,0.07906881875211368,3.921942259627536,0.9800447402440818,0.24122366605222037,1.373243979594047,-1.0089054587858246,0.4406875426405101,1.116727327266791,3.7030848098923985,-4.891961040492094,10.0,2.0,1.0181412116067037
06-05,2.1122533971986472,6.469867083377361,0.236824425145353,4.218923320161224,2.720616269863407,-0.6962298873882177,0.8177731820120758,-0.771237042994281,0.11634494202636371,0.9700529359655337,1.9750612206405744,-6.070524405069954,9.0,3.0,1.0083104534115073
06-06,1.1768237683500506,6.100274433964051,-0.1386681764243092,1.6212063116032134,0.5653705007969627,-1.5740894813547506,1.6355463640241958,-0.9692179155974106,1.4639730755808718,0.3607388200431035,-0.6867093791777659,-6.238890600009648,7.0,5.0,0.2763631434832139
06-07,0.7274982305425514,6.169792625263896,-0.4343482712304936,0.5742784114064838,-0.7067164958702193,-1.7557191879331298,2.328783087547256,0.16748889231162092,1.3810530057215629,1.4792915626667367,-2.1019968426919977,-6.159457985667249,7.0,5.0,0.1391622526722515
06-08,0.4861739536735094,5.236904124762866,1.364523924658761,-0.30627841169854675,-1.0424031245471608,-0.824839605939736,2.358708675038629,-0.05149448425617283,2.0114942528735633,1.0354984508233764,-3.1906854046958886,-5.557624016483463,6.0,6.0,0.12666486118414477
06-09,-3.123048050293006,3.5384642772185315,0.0,0.8996960291003558,-3.380330698121311,-0.9005044698315071,2.0610663727039813,0.6640233166618733,1.551722384047234,0.8664409341848632,-2.8461762220149276,-4.574614625141021,6.0,6.0,-0.4369383959570777
06-10,-3.4771896256338413,-0.0259090994912386,1.350555147089857,-1.2517101042025003,-3.92513155610812,-1.1146224891891054,1.442163910716654,0.14046815704375032,1.7931006420617819,-0.7733633002188104,-3.216622596441907,-3.909155670889642,4.0,8.0,-1.080618048771927
06-11,-5.552099899627535,-1.3993286172379649,-0.7046400651328383,-0.09667292320272693,-3.6841082903672597,-0.9090885971531938,-0.5120276907378538,1.9537719665386106,1.5894923499985194,-1.2846836626267462,-3.1991943852588642,1.5952448579005365,3.0,9.0,-1.0169445797422763
06-12,-5.5210877376775525,-1.0365419131828681,-1.2396715306934507,-3.2735158299784044,-2.169155328963746,0.4368141560377038,-0.20171433509438788,4.192663633568194,1.5668209245806248,-2.1371243373629194,-0.462584833373415,0.5474814212652707,4.0,8.0,-0.774801309239579
06-13,-3.2568212853470087,-1.5893710093154139,-1.6597513188254742,-2.7481204810772155,-4.239450272685615,-0.030131454503478705,0.27928675515741014,-0.03908635739006515,1.1016744218461594,-1.7365986692380522,-1.2411970676353892,0.5002820153699684,3.0,9.0,-1.2216070603036813
06-14,-1.0012191754281639,-0.6453277985761156,-1.0971738803856252,-3.2525163429287156,-3.7845739914546894,1.129688216440834,0.015560262010643706,-2.466493304183455,0.1389403065484795,-2.9967450401272195,-0.712846770671887,2.035311192442475,4.0,8.0,-1.05311636052612
06-15,0.2098312156579843,-2.344541614660958,1.995348315787488,-3.0356809174523716,-3.96652172760257,1.010402946182104,0.32569277750298636,-0.8323387938924527,0.8052420864888804,-3.061888970189942,-0.7799398874849959,2.1444462796290633,6.0,6.0,-0.627495690836232
06-16,2.3971629220015793,-6.385769431744872,2.6325955466562245,-3.72560498068778,-3.1221792943519144,2.0444750080694423,-1.819893029284272,0.2867586251338028,1.1273476975649392,-2.975024874228891,1.1353392415999028,1.7025177211455949,7.0,5.0,-0.5585229040105202
06-17,1.8655642865719624,-7.05976204438726,2.99769666765235,-4.136157140467227,-3.4957441354469743,1.014774337409137,-1.6308563483842093,0.4822767735855886,0.20706350459435588,-2.2974838468903696,3.353706202156749,4.527593804997233,7.0,5.0,-0.3476106615507222
06-18,2.3097387288235804,-7.13908192682761,2.6710210707042976,-3.075415706734154,-2.484359911875381,2.1330208796326593,-2.352197231512021,-1.1730989462445918,-0.30061526494658763,-1.5635030278598885,3.846462467546536,4.456157656343832,5.0,7.0,-0.22265593441244422
06-19,2.5466408015811846,-6.028553140387517,2.6710210707042976,-2.7032342580593047,-1.1617474572264717,1.2294501626289418,-2.3835666408225964,-1.1730989462445918,-0.30061526494658763,-0.9316799873328344,3.9108337589451385,3.9114169954534996,5.0,7.0,-0.03442774214223687
06-20,5.182114232390179,-6.028553140387517,3.2288854065382178,-0.8883795094909059,0.8602142451599318,1.3035177825008977,-2.7128736550380714,1.90824536743013,-0.03453693194344727,-1.1219180391534118,3.019267710289265,3.956063736714916,7.0,5.0,0.7226706004175153
06-21,6.127235752536514,-6.592237141544417,3.6438812551557342,2.6651394321627544,1.3799291546446035,1.659017495395636,-2.584184127346009,1.8820233652019809,0.09187164604095936,0.9469086178067601,3.367333358653498,4.3830015629812795,10.0,2.0,1.4141600309741078
06-22,4.843985123928342,-2.5506212249240883,3.8939046289801458,1.5419714018972834,1.7383466295132468,0.5244208650343603,-2.6806694778654867,0.5208379773265873,0.5384364941844331,1.4469631250792956,3.8530047765542794,6.453855866889542,10.0,2.0,1.6770363488831617
06-23,2.8356030109755106,-3.347616483374244,6.184232208524584,3.464686345169922,1.8790250840916012,0.8660621479507626,-2.0989977277335123,-1.7780055421148113,0.561344780192767,1.925734226760142,5.670266433826332,6.784660376443054,9.0,3.0,1.9122495717260088
06-24,0.9828000040771114,0.3375675385196959,6.5718989827004135,3.4095255533854165,3.161421996816876,0.6323369173799266,-0.23327198968192664,2.52730241015816,0.17184273605869976,2.4962984847654615,4.678598669848959,7.998262233980785,11.0,1.0,2.7278819615007985
06-25,-1.7283874451254646,-0.5972562112654919,5.778101087720435,1.4574426998509258,3.585238771214297,-0.22645158622650066,-1.3240860195010504,5.257809883118331,0.19470641816388407,2.019559405718186,2.3630940847301307,4.7197394993811965,8.0,4.0,1.7916258823149065
06-26,-2.9629599977205787,-1.8956203291377605,6.072873072863596,-1.7296874280716146,4.9134951385378605,0.015081628884943047,-1.6393517540001596,4.956044713366001,1.0784390824563586,2.513143457409005,3.8929651349521146,4.613476552194673,8.0,4.0,1.6523249393112032
06-27,-4.290121370945619,-0.5122970242039799,5.847626309688121,-2.5469947249685703,4.61353124141176,-1.0404138187294043,-0.4728925886696265,6.504577493238582,2.185730734397025,4.172304766168704,1.642659612573955,3.2586560659091046,7.0,5.0,1.613530557989171
06-28,-4.225795262056327,-0.025496141593629423,3.459888248706555,-2.640664735219496,4.9578258918061495,-1.0404138187294043,-0.5204255351660524,5.623434761159037,1.4063716564828914,3.1040982558843737,-0.6149817895899697,3.9644884419302673,6.0,6.0,1.120694164467866
06-29,-3.301748276622121,2.251217868201966,2.5285605723060547,-3.6969321790522676,3.6839376554091836,-1.1319045816781006,-0.09422326162605064,4.588984297167798,2.7983877267071753,2.403849335725189,-0.5583385675580468,4.958675162739415,7.0,5.0,1.2025388126433496
06-30,-1.3505425181902215,7.190184797977377,1.708919901243398,-5.179766932300722,5.681050150407881,-0.9947304857388746,0.7625298197594188,1.3710657578086227,2.3825608750292706,2.18436868793791,-0.20158039571594905,1.2783187378480723,8.0,4.0,1.2360315330055154
07-01,-2.3402302323611317,7.522127213213614,0.018776190672681926,-5.565748388786189,6.202851078443337,-1.4577715770316013,0.14075720131512282,1.3212079566698336,2.135312940208888,2.245666987519861,-0.6968584032390522,3.2929191660680117,8.0,4.0,1.0682508443911147
07-02,3.8571384974888394,6.5142613225146295,0.1690143710570716,-3.8924530914317406,6.6265046782067225,0.11972737416950979,0.23459135815335563,1.882091578025557,1.7488383960245542,1.3492214310466395,-0.5043953431644858,2.485157139317466,10.0,2.0,1.715808142617343
07-03,5.285709926060267,8.210423125692397,-1.218582224048383,-5.821916650246986,5.973412786187354,-0.9344427442961076,0.15639423876890005,1.8331477440435733,2.6277518350685805,-0.7503450974086813,-2.2409828067300226,2.239185203970457,7.0,5.0,1.2799796114217792
07-05,7.246782403338148,6.251573095649196,-2.9633909503088365,-4.3530084812751,4.648033153560298,-0.10550067284704903,0.7154010534021995,1.489178309186474,2.7301058686912647,0.0845506539129662,-0.8742830419550618,1.6888397847292256,8.0,4.0,1.3798567646736437
07-06,5.66305605672763,5.991946110199818,-1.176685174906788,-2.2858232553977897,4.176489554777041,-2.1374741130872463,0.14077921501371274,1.1052560317203421,3.085801856257425,0.5707048191212025,-0.3723784416888831,3.4673361279238466,8.0,4.0,1.519084065555026
07-07,9.101056251556178,4.346746331243652,-2.393066638527853,1.1727293509896715,4.897209118343993,-0.5601742620625862,-0.5315884492682831,2.2540536976338994,2.2200023102441033,-0.5072877970893815,0.29752552650859904,3.470533454501429,8.0,4.0,1.9806449078394521
07-08,8.988755857864374,2.9821091274496556,-2.148105136996296,1.95227347987206,4.498154116838077,-1.284398040202264,-0.5706987717255598,0.6351209425256734,1.986894615268139,1.2768642515867445,-0.47811696158437994,4.442376025082877,8.0,4.0,1.8567691254982581
07-09,9.263927835706461,2.5099455618833644,-0.7537243794593887,0.7782865394095916,3.0851780204867922,-4.064020353352423,-0.6507934085906498,0.12454059740342166,1.5607513312315782,0.7099606534164681,-0.7388730153105763,3.999998197273854,8.0,4.0,1.3187647983415411
07-10,8.452282385824656,2.857856555444167,-0.5831478069616923,0.6227351671263511,2.484471293970678,-4.067856198790369,-1.0793655637710815,-0.3252370514080308,1.351803212596385,-1.0195514262413001,0.7469281898800801,2.995783166040336,7.0,5.0,1.0363918269758483
07-11,6.745031845195676,7.017128208124943,-0.8107094603196108,-0.9846144456129807,-1.0562162245766191,-4.209204306971302,-2.000003390842014,0.3231445925788539,1.4419862829522943,-0.9815306650931728,-0.5920964572295057,4.278480755125923,5.0,7.0,0.7642830611110405
07-12,7.675257539629145,8.454333831030713,-1.2516591184178838,0.6079012083817288,-1.618399915829701,-4.5076218456401005,-2.8818493085845835,-0.5753680192945916,-0.32698264465483035,-1.0661822770451728,-0.0973337218678842,4.229991584734191,4.0,8.0,0.7201739427034193
07-13,7.598451397997633,6.257191498323901,-1.312782741021023,-0.992911233267315,-1.8057879809483492,-4.311020474261528,-4.064780787417764,0.08717271751421984,-0.6472856127947878,-0.1477878018445195,0.30010766796533656,4.560368732461941,5.0,7.0,0.4600779485589787
07-14,5.4468033161568945,6.094181459479232,-2.0400217838700794,-0.5876411843850793,-2.434004397036881,-4.7874030165784935,-4.17073560450552,-0.5895649943631293,-1.5557606002321915,1.5201123090648045,0.0,2.9536929166433934,4.0,8.0,-0.01252846496892083
07-15,-0.08578432442008313,5.966701505332062,-2.3120237001865775,0.3413009013361385,-3.141180079326493,-6.215227876165625,-2.6324228085589447,-0.25087424131931485,-1.9645734781930653,2.8937220652938627,1.2611452500322706,0.12706609233472482,5.0,7.0,-0.5010125578200871
07-16,-3.235132238986032,7.8862158072261686,-0.310860391718307,1.9940811565709735,-1.6071099328674607,-5.9396412942099115,3.0896691326419057,-0.23833722842054694,-2.0340919494628906,9.339164691785442,1.4246828433764727,1.3214373597221625,6.0,6.0,0.974173162971498
07-17,-1.5020233212218708,8.14061128845099,-0.7611229056854707,1.3074482040355235,-1.6954986963783054,-4.7013333444705605,3.6473221169540992,-0.6676825737337564,-9.087600022839059,7.668293278391768,0.22615199484547135,-0.4965945454162379,5.0,7.0,0.17316428941104925
07-18,-3.466206816760627,7.606420865532487,-1.136144641964302,-0.599886146424134,-2.4661799220048257,-6.3435878323749195,3.6021091855497747,-2.2128464443342573,-10.885947763959562,7.624716914307279,-2.75987775568701,-0.4040092305336976,3.0,9.0,-0.953453299054483
07-19,-2.401372680333054,7.778032268070019,-4.980393952014399,-3.0272202901587795,-2.038024411449501,-5.297055036542701,5.24444580078125,-2.9480301482434634,-9.186757975287643,5.955285029724696,-1.9666211773514024,-1.1703818255935088,3.0,9.0,-1.1698411998665408
07-20,-2.5773240924144534,7.51206191009339,-6.310099441947672,-1.80820676061681,-2.1407775527766213,-7.037648378304076,5.649803480349893,-4.816606724981094,-9.057747049534575,6.492240072309052,-1.7683086088282223,-3.550350760098306,3.0,9.0,-1.617746992229125
07-21,0.22422037659871416,7.366475712259048,-7.177422344374575,-1.1377438941594364,0.45067677925446514,-6.985114318918035,6.242563948343303,-4.333071751256655,-8.826750317605434,7.117056422735342,-4.76353029926228,0.4045199242538612,6.0,6.0,-0.9515099801776402
07-22,0.445806213800765,3.5779761770397567,-6.93548900651898,-2.491247873327874,1.3888891516959667,-3.8286061147396153,7.257471342599348,-5.011741321115946,-8.765956333705358,7.6131323671755275,-4.355200106121119,0.10116569196041707,6.0,6.0,-0.9169833176047592
07-23,-1.5475498674516168,2.0642150061446376,-6.310486218559702,0.5593339718594834,0.6670026975767727,-4.428402319476028,9.228307948585352,-4.346116004033561,-8.765956333705358,8.607107796163975,-6.3460883062653295,-0.06759194883586074,5.0,7.0,-0.8905186314997698
07-24,-1.4631413741367827,0.2981588485493225,-11.15092974001279,2.4609835004037945,1.29477121566902,-3.689857673720488,10.26013342404489,-4.1286770244128705,-8.620687738592267,9.077822826583445,-2.981957616457876,-0.41398940625442754,5.0,7.0,-0.7547808965280861
07-25,0.8159845471490774,0.41237181874794854,-10.452445932820899,1.398602944275618,1.949579575482537,-3.2184647716244568,10.797844432637365,-4.38699669801303,-7.191207071860618,8.517623790330232,-1.0356686412203018,-1.2588694289337632,6.0,6.0,-0.3043037863208575
07-26,-0.455969925096479,0.6853992093283783,-16.12903959893591,0.22034615322305356,2.6218510475479375,-2.259426819417429,10.223784404946876,-5.422088725343192,-6.429779831011766,6.691918658619642,-2.3261500217606312,-1.861290790284901,5.0,7.0,-1.203370519848702
07-27,0.19818713315129638,1.0281031716544902,-8.380710468664757,-1.4623465218548701,1.697476170644039,-2.1597888548400563,10.771914157279106,-4.922344957264648,-6.692527180410661,0.05827268757503146,-2.696037054549593,-0.5031433745250262,5.0,7.0,-1.0885787576504706
07-28,0.08571079799107142,-0.1389563984876201,-12.838585885586468,-1.1217976639257699,3.0659570259244524,-0.8819743933248916,10.8981680941593,-4.145888194838437,0.20611759386592265,0.4467745615413748,-1.6847071283082338,-0.897438505775896,5.0,7.0,-0.5838850080637664
07-29,2.533788046959848,-2.6749528902641586,-12.420170465976907,-1.3044304380830944,2.7112396579792737,-0.7561152217774423,4.090780310162767,-2.5715023000291883,1.8792470764703397,1.347450919459516,-3.187975348511708,-1.773170920595567,5.0,7.0,-1.0104842978505268
07-30,2.044244079955031,-2.8660157476756547,-12.3100642399726,-1.182602044108881,3.038860501426817,0.3849204003896559,1.8610043646615695,-1.4694241659015919,0.711571360389993,-0.1172130785323294,-3.140616972936699,0.15241991816668143,6.0,6.0,-1.074409635344834
07-31,2.2122680923586393,-3.9646522325272597,-7.708556797259025,-0.060021567770372014,3.247720188946037,3.1849185815104875,1.439368830095908,-1.629432179543618,1.4730936126901706,-1.0157778735673912,0.1649930503404087,2.4472855273695453,7.0,5.0,-0.017399397279705853
08-01,0.0840066649845393,-3.6922326202054636,-6.694562372416131,1.5009005036591165,0.6632424420007701,3.1373784235260613,2.1808665696741873,-2.328651050803206,0.4824526694137762,-0.4412599857122797,1.2847416461042112,-0.4826889168391447,7.0,5.0,-0.3588171688844635
08-02,0.8062299296237693,-4.01433779314151,-3.0978935496161193,3.554410035410934,-0.2818739265036579,2.7412446926083116,2.5351296986040954,-1.4701994839093542,0.6042296072507553,-1.6183215692793316,0.8984799124423006,-0.11812944904530537,6.0,6.0,0.04491400870374063
08-03,-0.6487998230927456,-3.7497008236812275,-3.376404642227427,0.5957093594611168,0.5637541781560357,2.7874538146127303,3.7068897459172385,-1.9425213056617903,1.5559581140320038,-2.7235072389661363,1.6877945827901766,-0.14347691906899793,6.0,6.0,-0.14057091314408526
08-04,-3.3400514330597506,-2.2514050145735034,0.6908139583261446,0.754569228573688,-1.300676432162678,3.0331724993469025,3.081746533844712,-1.306238094485505,1.4242996983124747,-2.83205333559791,1.0563677686616484,-0.31289872861060924,6.0,6.0,-0.10852944595203222
08-05,-1.863002399684045,-2.585199315022009,0.06279836510237995,1.3422824856374689,-1.146905540016115,4.255651808237171,1.4606963278172547,-1.055542172713424,0.9694855277102704,-2.4982796904418327,2.6361731134680353,-0.4071966136050195,6.0,6.0,0.09758015804084456
08-06,0.3691114810036314,-2.867217961406021,5.254348151932116,1.2643212231387833,-0.3882503979062816,4.0698532783972485,1.070753664063333,-0.5013817770519613,-0.7427257162439225,-1.4110518860440373,0.41590417145487,0.02548965814814741,7.0,5.0,0.5465961574571588
08-07,-0.28392524320048107,-2.867217961406021,1.8647021471568455,1.0282785463747854,-0.26963236771264415,3.403918696384804,0.46302950658097364,0.8590441837560929,-0.7181939463564881,-0.6708170691346426,-2.338498042496793,-1.3255140846567939,5.0,7.0,-0.07123546955919692
08-08,0.6246485323055675,-4.463004448173561,3.00043191268153,0.8933904555924155,-2.4448193368489117,2.1803911994485294,-1.1720410236437264,0.7944785361419469,-1.5339305838364123,0.31949058779132905,-2.9665640335271504,0.5862880678839003,7.0,5.0,-0.348436677848712
08-09,0.8217651119406616,-4.065618232619796,-1.7134355863959665,1.9866213975252938,-2.0713028427848905,2.4941178864123774,-2.7177882803219116,1.4526525802246684,-0.4383835829408156,-0.697810834050761,-1.4665213887096216,0.46788858994382965,5.0,7.0,-0.4956512651480776
08-10,1.7681758328068453,-3.623715388967313,5.059589987452893,1.8686088908107439,-2.2410860112529276,2.768653917275787,-3.416650699216343,1.4481447765970334,0.12253213254897312,0.7753470143357777,-0.5949879104819428,0.6791197207408397,8.0,4.0,0.3844776885541972
08-11,-0.05633931764414613,-2.1468583005212785,1.9059498133785628,1.6915826274004964,-1.0572261562376948,2.294874424684952,-4.5804969151988715,1.907712454243794,-0.6494287162517788,1.7251393429270863,0.41480006321751456,1.989759662864173,7.0,5.0,0.28662241523856746
08-12,-0.6198855891836731,-2.215728887689256,0.9736921819886387,1.0688854129738217,-0.6350285213005763,2.1500356565230474,-4.943542597665641,2.577983955653137,-1.5929457689440547,1.4673035492140782,0.1829379817022803,0.03386177639665708,7.0,5.0,-0.12936923752762836
08-13,-2.274674704032862,-1.8991935356531622,-0.3107472752416666,1.6528928721608014,-0.4661208269008871,1.3289532305941587,-3.477739059607083,2.681105674094066,-2.2570323010942177,2.312140130364138,-0.19010113314704216,0.06745517039120717,5.0,7.0,-0.2360884798393791
08-14,-0.7961404849926513,-1.9478919966034784,-2.2381704918349694,1.0690895243998886,-2.6553214864528045,1.3437509536743164,-4.736926555954478,3.291917131894905,-0.6311497467085445,2.4488210600479468,1.983542108731996,0.09274925106814332,6.0,6.0,-0.23131089439414423
08-15,1.25106241005577,-2.246637733345138,0.16495222897873713,1.2161611170104147,-0.6631514717589369,1.0937511920928955,-5.066702593022039,3.7848874404242205,-1.0872213327786038,2.4545221549129144,2.896765765317922,0.2951083293626387,8.0,4.0,0.3411247922708996
08-16,1.025935049262211,0.3332525475885831,4.250650652906249,0.51060159246386,-0.816186925740009,0.4999995231628418,-3.591475826570275,4.595068765269927,-1.8902476240948933,2.8939817264701073,1.3211887430556921,1.4993777642652397,9.0,3.0,0.8860121656699612
08-17,0.11504433419819553,-4.025366293284225,5.0486997539137555,0.5891579887045262,-0.7311686705232111,0.4999995231628418,-3.514986391372937,3.685349391160955,1.012418892282183,1.8529081839140296,1.3458061557806404,-0.10158532919001936,8.0,4.0,0.4813564615622279
08-18,-1.4834156651792365,-2.1608587712114105,8.637085281079623,0.6873497382302501,-0.7311686705232111,0.531078343827801,-3.6668663870581186,1.4747390053512401,0.988308645004103,1.7573986547489873,1.3458061557806404,0.4307814332796386,8.0,4.0,0.650853146944192
08-19,-3.163450059645129,2.0112180294946764,7.567352871364523,0.6873497382302501,-0.05067149883136641,0.031183588441308644,-5.030391193128258,1.5388619209773609,1.7837812886090394,1.7573986547489873,1.2079884881347722,1.5146423084466647,9.0,3.0,0.8212720114035691
08-20,-3.8552130398433797,1.6370368936372972,7.507925811996648,-0.1981344792994905,-0.9012051809568067,1.224048503750922,-2.391691121545018,1.1285006988067208,1.7837812886090394,1.7573986547489873,2.7327801783063634,3.85244479157172,8.0,4.0,1.1898060833152504
08-21,-4.8558020838934794,2.5491117758977677,7.507925811996648,0.5528185302246498,-0.9080051459528313,0.3740032267691053,-1.6997551088422145,1.1285006988067208,2.5355851346801193,1.3561247076315586,0.2674464611310569,3.6479625442039887,9.0,3.0,1.037993046054424
08-22,-4.473220948323873,2.5491117758977677,5.101630279081556,0.31372519100413604,-1.6547274622611974,0.8570971680761378,0.49639262092530867,1.1158172796732266,2.0982290944987136,3.00808143529009,1.1481068540667045,2.576477564894014,10.0,2.0,1.0947267377352154
08-23,-4.473220948323873,3.5639920114711066,0.333402462629839,0.17783076763979008,-2.081203075627371,0.7012575363605881,0.49639262092530867,2.2991501263534078,1.9699692368149397,4.871507328711172,1.3777269735442352,2.576477564894014,10.0,2.0,0.9844402171160963
08-24,-3.9835988127285082,6.522227811118804,-1.492849167307581,-0.4149359453469437,-2.4735598590240797,1.5755277675676602,1.8254612313399625,2.365966870222807,2.1363870557212863,4.048804992662239,0.7790754130033812,0.050346194105577204,8.0,4.0,0.9115711292778838
08-25,-3.46939495007471,5.759527376710355,2.370640591572987,0.19759392928737746,-2.7013129954125152,2.269932203699216,2.5717196579009514,2.7649784473645425,0.5552191827937581,3.364761859290071,0.17326657570986873,0.4969709915925118,10.0,2.0,1.1961585725362014
08-26,-0.6294632366335795,6.656025165350668,0.02061084699886487,0.5708679525250405,-2.666213327708975,1.15901716985183,1.9259006516391386,2.2667825060047395,1.1949280410412628,4.047724787738977,-0.09099984517781926,-2.1885240125435903,8.0,4.0,1.0222213915905465
08-27,0.2274609625315593,4.239800901840731,-3.298293844937387,1.903288648256993,0.676249392324856,-0.18785054771182283,0.17703617490201548,1.8806851650420748,2.093051055166882,3.113994960922864,-2.0151146571176457,-1.8322195888475203,8.0,4.0,0.5815073851978
08-28,1.1373265055635595,6.564844594342559,-2.579328916249549,0.2543554423063431,1.1430497327114875,-0.7554229156798,0.10327485406449147,0.5428611414541389,2.338342986887035,4.301767017288997,-2.3087901821075167,-0.2035777971092182,8.0,4.0,0.8782252052893772
08-29,2.246224458230507,6.798540006572937,-4.222127084000456,0.527447675340997,0.5041156873163524,-0.9600261277340991,0.6196491243868439,-1.7041049708569143,3.6654166422795544,3.5200882906295896,-2.579453139033194,-0.4241241857567636,7.0,5.0,0.6659705314479462
08-30,2.523389220576349,6.862069434773832,-5.075188494082988,1.579558459195533,1.1762678003452276,-1.5738117494355102,-0.6725406121850253,-0.22927053913900666,2.617365971144053,4.287414267825702,-3.026219379923096,-1.0239755296892221,6.0,6.0,0.6204215707838207
08-31,3.1003339580419853,6.781554965535388,-4.082473282961501,1.2285438151615748,1.9156434579093762,-1.1757328566167804,0.05934853801445509,-0.5674522004269666,1.053253715560281,4.278270711480276,-0.8598198567618726,-0.025345369332696134,7.0,5.0,0.9755104663002934
09-01,4.902512705916586,4.893240230734888,0.060935973137960085,0.5460194734051459,1.318685670114252,-2.9346094580519893,1.378894112879339,-0.7754923779521254,0.7337310610438239,2.7516246028202453,-1.3553565715873852,-0.35270252140337294,8.0,4.0,0.9306235750881139
09-02,7.663042807849445,5.489943283496427,2.5187850402185945,2.1864200287558235,1.0845609351845884,-2.836205611215599,2.8212252621830523,-2.3135593278835973,1.4792899408284024,4.006499236268841,-1.0557432296373621,-3.3212205225745217,8.0,4.0,1.4769198202895077
09-03,8.00323678753769,4.090119633975984,3.3922368159125194,2.783071120763312,3.2327599018651303,-2.524361739104572,2.4044085169414218,-2.701300586399365,1.9088048711619412,4.99241216963708,-2.7214956023235857,-1.1887590776808687,8.0,4.0,1.8059277343572242
09-04,7.57208657255365,4.680663456936656,4.209466441805672,2.6717585593723263,1.4955459834492912,-5.285405914114411,2.56373732472369,-2.0025642208434467,1.7235262663817856,4.420490263645272,-4.213315285163343,-0.8066609533122113,8.0,4.0,1.4191107079529106
09-05,5.8205330420005446,4.534500822854809,3.3922368159125194,2.8598808203605555,2.872798915921602,-6.033493524971874,1.4774105720377375,-2.396908050161697,2.5632050313998156,3.055825920443168,-2.4513895364952933,1.4519819421030071,9.0,3.0,1.4288818976170745
09-06,5.387108656605877,3.7331535445548125,1.9785636344095292,3.0719340107593243,2.8395929334223333,-5.236619479770597,0.5846266246474039,-1.0812854185491048,3.167366949276474,1.9616668397863242,-2.1808910694037555,-0.0862353181360951,8.0,4.0,1.1782484923002101
09-07,4.768392271444308,3.7756658200605058,-0.7895226365779437,1.7553867041095592,1.7768177899942919,-5.048702414591961,-1.2955995493942218,-1.994410150506087,2.9145402417327335,2.9065021212710462,-0.6762429431327124,-0.886645197278287,6.0,6.0,0.6005151714276027
09-08,5.412719779984391,1.834861758832393,-4.648667855095767,2.480441215121923,1.5970704953001476,-5.804446118243016,-0.5766662804776514,-1.0073972634192023,2.6706955160299226,2.3126066393789517,-1.060670357390365,-2.300573539497131,6.0,6.0,0.07583116587704967
09-09,5.202157370766605,1.0573705571114236,-2.9991463511701757,2.9802575659248185,1.8094291537470621,-4.379085411382359,-1.5582873071860448,1.2241763668553876,1.1611704227908752,1.746764723043419,-0.8894497206433242,-3.1137912197835473,7.0,5.0,0.18679717917284486
09-10,5.594218732450453,0.9898817409539971,-2.570695705000654,2.9618333260424112,1.5066222258656816,-4.266495483114155,-0.34493604661209765,-0.11477170286494376,1.1955876506716834,1.595360896572797,-0.8552092711938414,-4.503302193012104,6.0,6.0,0.09900784756326904
09-11,5.03212269111776,-0.5174342818641572,-4.541488789745611,2.7730348658248203,1.489822095931459,-4.573771992667776,-1.079785868938011,1.1955662713162896,0.6999515464031303,1.6850884731236508,-0.10125315587247556,-5.546639249649656,6.0,6.0,-0.2903989495850482
09-12,3.9079203978067536,-1.2233822451161676,-3.74864460462958,1.3656527721636593,1.8420126561099814,-2.7868864966220546,-0.05998937514135647,0.35537349415323455,1.7980695592178095,-0.5792545430707451,0.8982535847489721,-6.188694916335871,6.0,6.0,-0.36829747639294697
09-13,2.4721537991367653,0.33460075786790855,-3.169542079699018,-0.6369388295896372,2.074344564914014,-2.885243150054431,-1.7073212997464302,0.6661499607094966,2.5936599423631126,-2.044200047785582,0.6044335158679288,-6.075182224340201,6.0,6.0,-0.6477570908630061
09-14,1.3194049701582067,-0.8071762840091821,-3.3809337388992513,-1.2545796061621393,-0.0995708180588761,-3.1558155228959897,-1.8159659141977325,0.4759391913489298,1.9297413349641819,-3.1031333277459376,2.216251954984279,-6.226586487014954,4.0,8.0,-1.1585353539607055
09-15,1.4725549117267782,-0.6383467171016317,-8.762321722448153,-1.138776562341556,0.41274558570183184,-2.248284831221413,-6.640689064538775,0.9031918063350858,2.114631166737533,-2.486192095371073,2.051795198100581,-5.313279804444142,5.0,7.0,-1.689414344072078
09-16,0.7223126004508665,-0.19754203221038066,-7.8422735962624985,-1.5110472881322212,-1.123215677797835,-1.3603241337455718,-6.313517585436528,1.2848265212931052,1.2710867373283419,-2.73214585002893,1.8454494360857059,-4.572894486668497,4.0,8.0,-1.7107737795937032
09-17,1.1242022933110252,0.6365252563345186,-6.286963496064235,-1.3343694713261656,1.0311038343067471,-1.3014841937360913,-3.7295317140957227,0.0,1.8833249370277079,-3.3042558553692243,1.21569847962169,-2.4381644970294434,5.0,7.0,-1.0419928689182663
09-18,1.7665948517924788,0.5926260966312511,-4.411446488508445,-0.6957804096943443,1.4241265832570205,-3.9487010105729428,-1.8041274377251604,-1.8132386251516666,1.0079888098674565,-3.5445855189882165,-0.5353997557711805,-1.6254452446022916,4.0,8.0,-1.1322823457888367
09-19,1.0974299804976668,0.8320500736878927,-8.618765271172297,-1.0410659854388298,0.2820142209486994,-3.2062125880764762,-2.5318347363931957,-1.5501832986342585,2.6399633219537746,-2.7554282806237165,-2.167316890394999,-0.2208480624909434,4.0,8.0,-1.4366831263447235
09-20,-1.4552515668330386,-0.022089524072679226,-12.479551386618786,-1.2492822239648784,0.0663521925017394,-3.273713291181979,-0.5800110083860938,-1.7580152528716249,2.6122328967792012,-2.3055535775643676,-2.340706210102338,0.2198768748549777,3.0,9.0,-1.880476006454989
09-21,-2.2979010398640956,1.5421916112629452,-4.546469675080075,-1.2300584367937577,-0.1990755623957177,-3.1518605666146553,0.5148662639481032,-3.0486198966392464,2.2577693187540975,-2.14814786557798,-2.3840485794344985,-0.5316778752626216,3.0,9.0,-1.2685860253081251
09-22,-1.0623791865290368,4.285094579277225,-0.30661276854203123,-1.1916255259047221,-1.1217177109951233,-1.8133424413909944,2.441171917762713,-4.401522069710071,2.745629890745754,-2.20370116057218,-2.704583588249166,0.19205693133304097,4.0,8.0,-0.4284609277312159
09-23,-1.4390408714288614,4.8911882465568475,-1.0731530444684436,-0.6499715994300799,-0.44902786124652744,-1.1788130331542868,1.477541364496013,-3.5212196606017105,1.5656878409055695,-3.072183236561808,-0.6562657726496387,2.112428614279234,4.0,8.0,-0.16606908444197432
09-24,0.7013712535031517,3.4044344355789193,-2.956632673308272,-0.1521815322790595,-0.2489238799485744,-3.4775219856304664,4.48456874980905,-2.5620771680521734,1.5656878409055695,-2.9952404024606993,-1.6729620954705897,2.3656297976087055,5.0,7.0,-0.12865397164536999
09-25,1.8613397151048003,3.9000245189441514,-1.1402727721958468,0.8013702922497739,-0.2662227145995767,-1.535383864746823,4.586490261913271,-1.8528159971999008,2.0546394865688034,-1.0123562606315288,-3.7811500378478717,2.504787614131539,6.0,6.0,0.5100375201408991
09-26,-0.7553244715455688,3.379552379652954,-2.306849925993214,-0.2515500529171278,-1.3384628257211817,-2.436587022338377,6.595804832801528,-3.1993630201912677,1.93307608203764,-2.7241744420770773,-2.094775705435688,2.278659479986907,4.0,8.0,-0.07666622431170607
09-27,-0.026776436776501142,3.962102082254685,-0.8043972055809395,-0.8400084327242741,0.20076782828464204,-3.054075245287843,7.870165077839461,-2.356814993353034,2.1815307771513135,-5.780119385649736,-1.8801465907421413,3.5701992383831627,5.0,7.0,0.253535559483233
09-28,1.6587706048143327,2.8027413912022507,4.257547748120548,-1.015824324504597,-0.602309867148067,-5.447401898736844,8.696271597750032,-4.715600013211953,1.4486178932268141,-5.19429778357219,-1.6912719218181085,3.809602809048953,6.0,6.0,0.333903852930931
09-29,1.501975450237319,2.4202126507914277,4.598640742909747,-1.0744345897888912,1.3129808518852033,-7.391304347826087,7.977890431861355,-2.0486324971452796,2.3200577609747666,-5.223587746307207,-1.839910097642608,4.59166225593644,7.0,5.0,0.595462572157182
09-30,1.7875927676390135,2.974296866275207,8.29398684348401,-0.9167178008713164,2.14808735302786,-8.045568588840416,5.986323201840121,-2.3129790051495887,0.5432360271819197,-6.104161629290745,-1.8223975619517048,3.7087450671121944,7.0,5.0,0.5200369617047129
10-01,6.351250345765186,3.8028487935685362,12.153558366278922,-0.9955146218769726,1.3404361125670867,-5.089553046548914,3.487871923411258,-2.246889857201458,0.6893441350181285,-6.020654230516091,-1.5709967361206099,2.353147917995649,7.0,5.0,1.1879040918617267
10-02,7.122654927325535,3.5691529978074605,11.29767946374721,-0.8163229596059662,1.5676075650851444,-4.749298146881471,2.425713874591434,-2.3415853396115276,1.0805933408883006,-5.873715037077065,-0.14759347846405013,3.083136286510873,7.0,5.0,1.351501957859656
10-03,5.605554999715541,3.4049845321703014,12.027135171728826,0.15352490907242125,3.1143583716483922,-6.126414650592854,1.8085180708351918,-1.7493119195167601,0.5734226694748054,-2.272728750528404,0.41569529042972425,1.623152997269563,9.0,3.0,1.5481576409755629
10-04,2.625999093984121,2.9298523974793955,5.999996787623355,1.301884201337693,2.4655319061518908,-6.338277173858871,1.8367035937085157,0.13123159859050434,0.9440367898341965,-1.9710529051525003,-1.610808513629837,1.538588054390239,9.0,3.0,0.8211404858715587
10-05,2.080561640631113,0.8328062974515728,5.99135241032791,0.8113213305203419,2.254668564383105,-4.4752783140851715,2.047526848172816,0.3665385279932565,0.5191863345313894,-2.04723061759958,-0.9439649487898413,1.5470523815809551,9.0,3.0,0.7487117045931556
10-06,1.8651664561959491,-0.06468041959038529,2.1679621462542618,1.1132078350714918,3.9681301648873255,-2.606471481109158,3.300468108443142,-0.20919982438826434,0.022569574955745637,-2.523330423334063,-0.008575295216017745,0.5123786013607164,7.0,5.0,0.6281354536275622
10-07,0.0,2.595483346861999,3.283514236384858,0.6257144872056838,4.636810205495604,1.815456588885558,2.567736719316959,1.0983314989734534,0.1580128578549914,-3.260766889172998,1.0358305598128095,1.692882817234839,10.0,2.0,1.3540838690711468
10-08,-1.966142112790227,2.004643965340443,0.5682943645654357,-0.1337403412689094,5.4287974891548245,2.1714315609056123,0.34350291073346684,0.6929999809464659,0.20306893774279747,-3.211271552838494,2.6463127279071275,1.036182472259518,9.0,3.0,0.8153400335548383
10-09,-3.7138193610579613,1.3715925713297685,1.4807071390526743,1.711680286301073,6.958277637999231,3.350385829649422,-0.5581785806749748,0.026331804843364927,0.8295940460613592,-1.683177819999419,0.1542947878667387,0.7898762714874559,9.0,3.0,0.8931303844048945
10-10,-3.6319002453510647,-3.866670396592882,2.577851014088733,1.0056091026306426,3.8200445575920545,5.099851699630524,-1.0018561911054606,1.5681786630880892,0.6289987265775099,1.215279834608149,0.9031312628295478,-0.2548013055894088,8.0,4.0,0.6719763935338695
10-11,-2.0984735873509273,-3.751392830248848,3.8321933354363664,0.2917108450467245,2.999207193284784,7.278428513461146,1.0099610204189307,2.5064939028256896,0.8527851355565816,-1.488806791075804,0.8860874935590337,0.22821118133545978,9.0,3.0,1.0455337843540946
10-12,-2.678576036228065,-3.1823174070916624,-0.7445721235012026,0.3695033712072991,2.2573012464395656,9.064419852332076,1.1624675256538386,1.7402549842735389,0.0,-1.5687446703633552,1.2950534522375787,0.2619328792484399,7.0,5.0,0.664726922850671
10-13,-3.033593721908969,-4.27558779634891,1.450457759768216,-0.05834810397224099,2.580244129816629,9.270022663935265,1.5988770558970096,0.8915698637802406,-0.3955232032663362,-2.0683449809669177,1.2698124341839538,-0.08513406683171601,6.0,6.0,0.5953710028405186
10-14,-7.22359773591883,-4.029230868494365,0.6333020806114489,-0.05834810397224099,3.6714384803499387,6.592677841069623,1.8040857425697006,0.3146687745283244,-0.5085372228503174,-0.8490478848635571,1.7220892658597349,-0.6830963295323016,6.0,6.0,0.11553366994642976
10-15,-6.407000954589491,-3.5200359022397008,2.962207845433301,-0.05834810397224099,4.5659912327946275,7.526531608737246,3.006257590238962,0.09177880936826069,0.0,-1.7835800165815416,2.5549887656840014,-3.560619663871984,6.0,6.0,0.44818093425012
10-16,-5.81428550817732,-3.6750137910136975,3.59245066230716,-1.5789500688839153,3.6869247486179653,5.538255482588301,2.797497813384707,0.10487917191262562,-1.148643389884098,-5.431304525870014,2.565185098919156,-3.5695231146077173,6.0,6.0,-0.24437728505890396
10-17,-5.92717599783459,-3.537480223328894,3.3177305774028945,-2.6137433383127644,1.27438853963178,3.817791353369371,2.588727418027012,-4.354971858900704,-2.9146475817086896,-3.600664691318093,2.2641483842701904,-2.5013399319833414,5.0,7.0,-1.0156031125571523
10-18,-5.008385609306087,-4.344921382644147,-1.2507785258553137,-2.847119605937583,0.582131432642679,1.622149571638815,3.2485465760110896,-6.928886868812864,-1.757205449247089,-2.2655919765946098,1.2327054261661425,-1.9567903636439423,4.0,8.0,-1.6395122312985757
10-19,-6.28716318228496,-3.503681425370385,-2.8354925042438506,-2.0670854105381915,0.015736526139659462,2.7062035224782783,4.853180822879389,-8.297933138547185,-1.4071567051909906,-2.314633808888454,1.132074192135089,-0.9290956455541941,4.0,8.0,-1.5779205630821498
10-20,-6.126536990986918,-5.522154421426113,-1.5029615987424743,-2.535107415569307,0.9507549723054166,3.534705500659696,6.907030206840016,-7.120703866528193,-2.0478128488041025,-1.9713634310306396,0.21159542680601778,1.040700001291027,5.0,7.0,-1.1818212054321313
10-21,-4.0340856197945705,0.13315883591292585,-2.6460625647474987,1.0351952305730507,0.5321649019188721,0.7775790471339746,6.540929975814739,-8.798654334845226,-1.853329194962313,-0.7656531432358555,-6.4175472078681866,1.5222480193948689,6.0,6.0,-1.164504671225435
10-22,-6.139342327464197,0.022197372227344286,-4.953429444213002,-6.243685689613456,-0.2496816918586695,2.760393488677413,2.6491907039118905,-8.573042848324578,-2.8060050207760043,-0.16377472441938226,-7.352540377098646,0.6215921664800896,4.0,8.0,-2.5356773660392666
10-23,-5.539687610937484,-0.42165694833200235,-1.4736005151636948,-4.107108900202847,0.6741930282309245,2.9226911190921534,2.4989782154385476,-8.64963597551661,-2.4039524720501255,-1.766787495371118,-8.015828079260334,0.587992070300387,4.0,8.0,-2.141200296981017
10-24,-5.425464552672287,2.0986611749993713,-1.6817135720846765,-2.511958383903803,1.2583522428605436,2.7027046467616676,2.63553218175982,-7.828029759444914,-3.8089741765652545,3.8616683016241966,-7.169603276354332,1.3355765867505915,6.0,6.0,-1.2111040488557563
10-25,-3.5333660317574083,2.5204614715560973,0.3298285981203316,-4.865088219946158,0.13982284207673293,5.1382785812778575,2.9271531461048332,-3.5920867794594904,-3.2314472744050726,3.634287577435342,-7.662799847788386,4.434142393014055,7.0,5.0,-0.31340112864760544
10-26,-4.17607110492646,2.589557097514248,-1.115473904625949,-5.580546727547934,0.3107108421668333,5.376176091211195,2.675401347693035,-0.6997607528985706,-3.7443123279815445,4.519075228253976,-7.955063708476738,4.967637107968094,6.0,6.0,-0.23605590097081786
10-27,-0.6661162547823803,2.419534941521986,-4.429843448641545,-4.824204208269393,-1.198546480621416,6.7932653068195545,2.0703934619508546,-1.5577129003298995,-2.566192537147799,4.709349176575588,-8.043871389052613,6.105380169569908,5.0,7.0,-0.09904701353392964
10-28,1.4464546501477014,3.4372344259324485,-4.133108839182278,-6.235753662706019,0.124516468567607,6.559882305974206,1.6292475718647905,2.7825908005612696,-0.8515055394314557,4.727474290071854,-8.440364172699267,11.96615014452265,8.0,4.0,1.0844015369686255
10-29,0.6117836807756014,4.184455760221372,-1.6744402509905993,-6.78883442410744,1.0970319392477426,6.481770178467724,0.9854930807049201,4.886164477596234,-2.005659397589288,3.9601085599406387,-9.145330758629386,11.495962776255418,8.0,4.0,1.1740421351577448
10-30,1.8075576410743188,4.333900027079139,-0.9894762541118571,-7.078720887144556,1.3043480321197174,5.309190090051911,-0.6843690346403345,-0.014002710608618043,-1.8254567842575165,0.3930371520864272,-10.19219982894139,10.59478427066492,6.0,6.0,0.24654930944768014
10-31,2.8642903379316915,3.882448734583405,1.2962906855921559,-8.759272788466783,1.4287797328386822,4.495928452971343,-3.6408482767550954,0.5706277542406851,-1.7291779650169203,0.4102345968086814,-7.7814254383995864,7.381865154682233,8.0,4.0,0.0349784150842077
11-01,1.8820174091646606,2.608122130012283,4.109588064954049,-15.399652501302896,1.8435965828187078,5.278500419458668,-6.949149656601829,3.9314369550590174,-2.10256166210115,-1.0775846927801025,-1.0673217840087847,7.381865154682233,7.0,5.0,0.036571368279571415
11-02,2.9722213745117188,2.4331934859588125,2.778346305580724,-7.493485435131506,1.55168929737361,4.9576559773695354,-5.872489897612283,3.352410979216917,-1.3102422475474238,-1.6849541436624988,0.866634331174886,7.381865154682233,8.0,4.0,0.8277370984928938
11-03,4.11331615143486,0.5078373539124115,-0.9921445465876153,-7.884442183392147,1.2938945803797632,4.781740245661084,-3.689325545636637,3.669970041378343,-1.708000733664256,0.19592924573781476,1.6294043920228318,6.3082854112178355,8.0,4.0,0.6855387010386909
11-04,5.120561900465442,-1.9184184693600466,-0.7854428380085601,-8.449779468016304,1.3243002433323277,4.841175658411015,-1.7507324091416194,2.9359739590522294,-0.4328440601979555,2.7769860069523076,1.1731547165040888,6.707936304091976,7.0,5.0,0.961905962007075
11-05,2.56830236584199,-2.3594260878196334,-0.2687003938568541,-7.534097522627019,1.5436863520281483,2.0772403731277667,-0.02723225246261747,-1.0330326755240375,0.30194185853856914,4.1400090105533875,1.5225600249583682,3.683094526888459,7.0,5.0,0.3845287983038774
11-06,3.1693986223314057,-2.183024722772019,-1.6767957501824995,-6.85982384940025,0.031055510569892912,1.588774587232468,0.23151051101565914,-1.0192986971134594,-0.23350489746548223,1.0268129187308455,0.9140290825615232,3.1423886192703163,7.0,5.0,-0.15570650543513334
11-07,1.5573762802947755,-1.913347060761977,-0.9993744627018868,-4.218149979045186,0.751290572580751,0.09255774532394342,1.3346089511925514,-0.9232862065004097,-0.29250028832273295,0.06655228619615638,1.1743409739849482,3.479353044565445,7.0,5.0,0.009118488067198172
11-08,1.0436722595653523,-1.6673942321244029,-2.023180335167577,-2.7677223829569213,-0.5634694221172435,-1.1105987974201044,1.669385656676212,-2.0204741960694843,-0.3042027992477544,-0.7861180270506422,1.5356793090401217,3.479353044565445,4.0,8.0,-0.29292249352558325
11-09,0.8530582608402446,-0.5867024230290337,0.5690209766541334,-2.235467766174398,-1.2991107199621472,-1.2355259486607142,2.4767854955034427,-1.1718787333190488,2.0568508903002574,0.0191703993236006,1.9150814594680776,3.479353044565445,7.0,5.0,0.4033862446258216
11-10,1.9901841225811563,-1.781833304362523,0.6899473519158983,-1.9586930914104266,-0.9672429974117933,-0.6912512875335822,1.096814590832515,5.378192705635636,1.8835188770208442,2.435050306755659,2.4438464924733467,0.0,7.0,5.0,0.8765444805413942
11-11,1.9629258852583167,-2.574253353807096,-1.6098612034057436,-2.0021269679104745,-0.8099755407779052,0.12242761883008166,1.0697372130673504,4.821830033983097,1.097763540081342,1.671500827955163,1.3984751880830817,0.0,7.0,5.0,0.42903693677976773
11-12,2.492467513687617,-1.2321178200075622,-0.7317550924571562,-0.566989634228827,-0.2490717114416354,0.2601747451380197,4.684970092526439,2.6228583700746615,0.302856308505171,2.0500527926190344,2.4605640402249045,0.0,7.0,5.0,1.0078341337200556
11-13,1.3968730347281655,-1.276123226889728,-2.6854266526046446,1.3391909968357079,-1.3231608069533682,0.4902707389034284,3.715673373166141,3.3399090251169086,0.7652216372282609,1.2633862061374208,1.1987329772353161,0.0,8.0,3.0,0.6853789419086339
11-14,-0.5477972394797258,0.9468526573014632,-3.5906300664590662,2.6844227877800506,-0.8544281480436714,0.6741149603819461,2.934841600702052,3.3653182185669595,1.302740697772092,0.21505495028363106,1.8567842779160328,0.0,8.0,3.0,0.748939558060147
11-15,0.2987523391180942,0.6903985013136068,-0.8928577793566739,3.7410729833817746,-0.8855051584637147,-0.3217507655403332,3.699751797574755,4.040805437372718,1.6453805602579055,-0.7305605547903915,2.3098778700378557,0.0,7.0,4.0,1.1329471025754663
11-16,-2.227789586354453,1.307471087603539,0.4936196401521432,2.921402166568388,-0.6369364847302702,-0.29101307817730115,3.8794875073118,2.7880557635347403,1.6560038701141728,-2.162837668366651,1.972282577162908,0.0,7.0,4.0,0.8083121495682514
11-17,-2.187156530699581,0.7006781424436582,6.064189359195463,1.3451096673308462,0.2617369929682485,-0.3524955661817747,3.3700349397162106,-0.5465995138163664,2.1813568821044167,-1.1054518306000107,2.2068647104096097,0.0,7.0,4.0,0.9948556044058935
11-18,-0.7986700354227879,2.924848265204514,5.434144686905653,1.7374959662990772,0.21564909672993865,0.16897175565265907,2.054156183076157,-0.6422536468203367,2.3869305575208966,-1.2806950896452034,1.5875904076765497,0.0,8.0,3.0,1.1490140122647599
11-19,0.16452254259032328,2.6900049475418046,6.57609783890907,1.5313605418006802,0.8927225183271998,0.7957102604559989,0.3381577153632146,-1.4484798499225748,3.3254183006739,-1.086013666771241,1.3480958016534679,0.0,9.0,2.0,1.2606330792184872
11-20,0.3564602790346029,1.7506398209926437,6.1882185741509845,-0.04259948336245094,0.4983642725227845,2.5289783192201596,-0.4869479357033888,-0.21597736063739223,2.4315037563011095,-0.24987457877020564,1.7833396793163134,0.0,7.0,4.0,1.2118421119220966
11-21,-0.5758132093328195,3.1361774708676675,6.869479779371989,0.2761280014001267,-0.4544696671194078,2.002110228729065,0.10821294565730799,0.14794971433637658,1.7260920794995755,0.9190111936496792,0.4294111046528104,0.0,9.0,2.0,1.2153574701426977
11-22,-1.7193536003134695,4.562423698145606,6.673167158917683,-0.7830665225074555,-0.6111825208554302,1.640830893087087,-0.530900346459264,-2.8754438393676565,3.5393275571673106,-0.9325811751550179,1.4850564061933793,0.0,5.0,6.0,0.8706898090710643
11-23,-0.4106255978412774,4.356059921893432,7.473872971707148,-0.7830665225074555,-0.673870053634715,1.8476841859280346,0.6724949700893865,-3.04878036173253,2.1776094009510394,-0.9325811751550179,0.7425316157799069,0.0,6.0,5.0,0.9517774462898291
11-24,0.3548064145218364,1.7131928500565747,8.191870387640561,-1.1428590804811507,-0.2496816918586695,1.3884783710817385,-0.0808374529870179,-3.5247634996824373,2.1776094009510394,-0.7285797379176305,0.8932559421706189,0.0,6.0,5.0,0.7493743252912886
11-25,-0.38167772214735424,0.7494695569600865,8.191870387640561,-0.23070597660969744,0.6956323398570217,0.9259268909880363,-1.7255493190091449,-3.5247634996824373,1.621867227938139,-2.0269657027064425,1.0082127626263016,0.0,6.0,5.0,0.4419430788212558
11-26,2.179240689218445,0.7494695569600865,4.934859864844056,-0.1886795621559325,0.3406000987486108,1.4639317679296235,-2.640941785466192,-4.069131365230666,1.8556228112860829,-3.929042728510759,0.06215013453892814,0.0,7.0,4.0,0.06317329018019037
11-27,2.179240689218445,1.7344782870620907,3.409548219272408,0.9836697739923544,-1.0423120436665119,0.21409908388927146,-2.640941785466192,-3.059305075233853,1.3196855995137324,-3.2186483924540057,-0.7950682242608599,0.0,6.0,5.0,-0.07629615567776002
11-28,1.6071919566934496,1.8395734980782084,5.066035320352234,0.33514839083945314,-2.705266744565912,0.21409908388927146,-1.915710852218381,-2.3010049775292645,0.4239174179219445,-5.432249629896649,0.39974855597593417,0.0,7.0,4.0,-0.20570983170497584
11-29,0.5232785299369481,2.4861919878876626,2.6431712677665966,-0.4204346525594237,-2.705266744565912,0.4434942930634713,-1.42993741984746,-1.4341236912894013,-1.307413223913063,-3.922744077828528,0.39974855597593417,0.0,5.0,6.0,-0.3936695979477645
11-30,1.2575256318860928,2.6018367169619876,-2.27547537572963,-0.21021331671770838,-2.784372981683516,0.8830722112663685,-2.2234459689969723,1.6001107939463417,-1.984082561153085,-4.1228887561292495,0.49746607454195774,0.0,5.0,6.0,-0.5633722943172844
12-01,0.6294459126261047,-0.17109032062955887,-3.2455605187022556,1.3033402057226073,-2.4763401530571922,-0.7116322537378234,-3.335627935423882,-1.409991425417319,-1.0497127778141542,-4.533171985852829,1.9005063611362876,0.0,3.0,8.0,-1.0916529075958346
12-02,0.5182723063278725,-1.821685548437131,-4.000814487283759,0.5296610083877271,-1.993721259894461,-2.3332255708247205,-1.1908058796255685,-1.7795966708477766,-1.5803380766005621,-4.12679366252234,1.7197499898917261,0.0,3.0,8.0,-1.3382748209524162
12-03,1.877547283561862,-3.3433377162292137,-4.613182780368365,-0.06394414996801573,0.24856867373346664,-4.0896280520716335,-0.01361761286051098,-0.45173742351023155,-1.9566918585962392,-4.106042352949764,1.4083280394064368,0.0,3.0,8.0,-1.2586448291543506
12-04,0.5986427774234501,-1.8431217598884335,-2.643700554288574,0.6331769318224578,1.0237317122931027,-2.0073513878518203,-1.2253254775668785,-0.5756553922911116,-1.241658036305496,-4.359289414400639,1.385090177290708,0.0,4.0,7.0,-0.8546217019802694
12-05,0.2993213887117347,-0.23201984962159186,-0.13677157953658658,0.6518111108909993,1.5365703316910833,-1.5323321594634591,-1.0483380591608933,-0.6170258417100974,-2.806977375236221,-3.7676074331520484,0.9992968380923365,0.0,4.0,7.0,-0.5545060523745621
12-06,-1.1875181332445028,-0.8703032097223522,-1.3997216285409235,0.811315565060071,0.5992614915114196,-0.9500384567767225,-2.712425998517832,0.0,-1.8364475678727947,-6.318653778557739,0.8843296637844359,0.0,3.0,8.0,-1.0816835044064115
12-07,-1.976062005127174,0.14783462952479212,2.93159382938529,0.7697086212476179,0.7529279031615781,1.0959365714525262,-4.373506656810289,0.6758583094240138,-2.3746037054129374,-4.372842834307008,0.39795239684294914,0.0,7.0,4.0,-0.5271002450515534
12-08,-1.3539698730609304,1.5391092927247296,4.519342311726956,0.6032887817108964,0.29330417565089784,1.8620587682749465,-2.707221201326148,-1.1450331664420628,-1.8186026427946367,-3.682398166455054,0.5562465750748892,0.0,6.0,5.0,-0.11115626207629303
12-09,-1.1294761874086192,1.433692390471219,2.853316054454779,0.8507986285454168,1.1780971010869303,1.2371355596443576,-1.064865576626514,-1.8947646920443177,-1.1004250296453184,-4.315333524824344,2.0267935365436243,0.0,6.0,5.0,0.006247355016434438
12-10,-0.027554094877933366,0.7800947280288812,4.366148105508326,0.8507986285454168,1.6523895669664743,2.533905263133933,-1.548890588295869,-1.7039258309706409,-1.1004250296453184,-4.315333524824344,2.6269977967269518,0.0,6.0,5.0,0.34285041835798974
12-11,-0.7713570244604068,1.1385218470437504,4.366148105508326,0.041869019617177226,4.00911078332973,2.60973023801357,-0.7606182690189385,-1.7039258309706409,-1.7723841012175807,-5.473003688043503,2.426976670797366,0.0,6.0,5.0,0.3425889792165708
12-12,-0.6611616625649037,2.231025261154848,4.311170835801728,0.8751864324919034,4.503687138511618,4.1518430462551255,-0.33191190881950017,-2.177491153632003,-0.6169950755323368,-11.404686404656635,0.47938903134754735,0.0,6.0,5.0,0.11333796169644926
12-13,-1.022954839128819,2.0472102864067265,5.553445952749992,0.7151875179641425,4.051813001113554,5.308424824220747,1.2387640131446598,-1.0324713081493873,-1.522430098430716,-9.316773852583331,0.6624266660797049,0.0,7.0,4.0,0.5568868469489395
12-14,-0.46742366960460385,2.7251953018673842,6.721246665136042,1.3041706660538328,3.0426218732295474,5.476609061498613,1.0231923175643227,1.5100379463895384,-0.8759635318160979,-9.338563809865539,0.35736394152610895,0.0,8.0,3.0,0.9565405634982623
12-15,-0.7419633478764956,3.134727795166667,3.7772193245846473,0.3365583599723026,3.623294109556916,5.894488600092686,0.8818362962316629,1.0309307157431704,-1.5884145838874715,-7.486109837513095,0.43546420599976593,0.0,8.0,3.0,0.7748359698392299
12-16,-1.0726055640862835,1.2291669845581055,1.3682773035728621,0.8164106885309044,3.522179902766367,6.668613252051306,0.7968719070631767,1.0716235790097683,-1.1095502426623218,-6.787914319184536,0.6085871749887453,0.0,8.0,3.0,0.5926383888840078
12-17,0.4125454437869326,1.8541653951009114,3.6230508580238614,0.8164106885309044,3.372302096574046,4.562730685151566,2.4041042102736947,-0.10852120147852115,-1.1095502426623218,-6.787914319184536,1.4519198554036672,0.0,8.0,3.0,0.8742702891266833
12-18,1.182619081291659,1.3541698455810547,3.6230508580238614,-0.464725855500669,3.628012724018163,2.1879557961161544,3.957320730612409,-0.10852120147852115,0.2074931471766931,-5.6526490460293335,2.3151349824802834,0.0,8.0,3.0,1.019155088524313
12-19,0.46755220238963985,1.0242509968727296,4.724715712765878,-0.7334418800669292,4.468365858115063,1.4243777421988524,3.21447491084356,-0.14927480893901207,-0.3477086879952519,-1.6158144445598817,2.041169827269641,0.0,7.0,4.0,1.2098889524078575
12-20,0.3579324592719291,0.4624789197277668,-0.03833708734068968,1.1689903905769923,3.6130320549343424,1.4831162391498602,2.6623186788235396,-0.7215880608747804,0.7815196971390868,-5.355956769471744,0.5708386493952926,0.0,8.0,3.0,0.4153620976109664
12-21,-1.259084854809343,1.4339123899102828,0.11476197397600038,2.0508614323688024,2.8904278941745014,-0.3740275489187582,1.3626948974211386,-0.46563131048492207,1.640096645411583,-3.736973536457839,0.21622556137449192,0.0,7.0,4.0,0.32277196199716146
12-22,-0.1655561694672866,-0.2927632591841908,0.3817537035111661,1.5791564183183397,1.9067463602967583,-0.6601572422183326,-0.31908396461773114,1.6300776763391651,1.4795284773552506,0.5322725164218529,-1.4866312780343294,0.0,6.0,5.0,0.3821119365600552
12-23,0.08288009215971189,0.0626358936083059,-0.36266929494141575,1.9611829816343567,1.4958863467844636,-4.396291074871857,-2.497559594333788,0.8352454783017583,2.064460375451253,-0.6847015775351702,-1.1662590497871634,0.0,6.0,5.0,-0.2170991186274621
12-24,1.0340165118781695,-0.3549022203130303,-0.2481409994841894,3.2849602751010414,0.16541445165648497,-5.7111527458866655,-2.9783685550614942,0.08083683857556548,0.7208495886327435,1.5043403438815348,-0.5962299754320918,0.0,6.0,5.0,-0.25819804053766093
12-26,0.9795934975552721,-1.2639529359426451,-1.2921928705108516,8.081980291026298,2.08180353028118,-5.569386899564954,-3.554367474641481,-0.9115621346194728,2.075685346259908,1.871257552199394,-1.4131765208182334,0.0,5.0,6.0,0.0904734484353678
12-27,0.9795934975552721,-1.4563077483198537,-1.4095376121483412,6.662758552323142,2.1844273328963126,-6.378342489081682,-5.662266094155869,-0.6650351000814403,0.8913029847279639,1.1874203792154843,-1.589821058961567,0.0,5.0,6.0,-0.4379839463358815
12-28,1.06035726642811,-1.5387849143514551,0.11549831070227805,7.502931085757644,0.9969217333277498,-3.4336660446361695,-5.480827105881654,-1.2359262972406673,-1.2606535008030144,0.8344099065905066,-2.243420674917728,0.0,5.0,6.0,-0.39026335291870007
12-29,1.2224959145640493,-0.37641218386553754,-1.3320510648050061,6.7604514729218215,0.3247250490082816,-4.444777727901815,-6.044115209321542,-0.8899254076278694,-0.7120352788482758,-0.6311471081551515,-0.9593567407887797,0.0,3.0,8.0,-0.5901790237349854
12-30,1.3847464319169274,0.7468892212723028,-0.7142836628075627,6.210691393621767,0.7641502559014081,-4.1762209160712,-5.41238059407033,-0.5613308154103323,-1.5641461374174475,0.5392283002293335,0.025907918697354447,0.0,6.0,5.0,-0.22972905034481486
12-31,3.117369829787357,1.30705613722653,-0.9266400565753625,6.504701479764677,-1.0129604245457624,-2.5625260332462045,-5.427365643612611,0.027388105435640617,-1.5641461374174475,0.6967208262650898,0.49913443794537893,0.0,6.0,5.0,0.05489437675227382
