,2009,2010,2011,2012,2013,2014,2015,2016,2017,2018,2019,2020,ups,downs,end_day_sum,avg
01-02,-5.260000228881832,0.6499977111816406,0.0800018310546804,-0.80999755859375,2.7900009155273438,0.8700027465820312,-2.050003051757784,-3.1699981689452983,0.31000518798828125,-0.45000457763671875,4.629997253417983,3.029998779296875,7.0,5.0,01-17,0.051666736602787644
01-03,-4.510000228881832,0.6499977111816406,0.06000137329100852,-0.799999237060554,2.6199989318847656,1.150001525878892,0.0,-3.1699981689452983,0.48000335693359375,-0.9500045776367188,5.620002746582031,2.6699981689453125,7.0,5.0,01-18,0.3183334668477367
01-04,-4.510000228881832,0.5399971008300852,0.6500015258789134,-0.7099990844726562,1.950000762939446,1.5,0.0,-3.3300018310546875,-0.8900070190429688,0.8299942016601562,3.6399993896484375,2.659996032714858,7.0,5.0,01-19,0.19416507085164594
01-05,-3.979999542236328,0.04000091552734375,1.1699981689453196,0.1399993896484375,2.3699989318847656,1.5,-0.8199996948242259,-3.5999984741210938,0.01000213623046875,-0.07000732421875,2.7600021362304545,2.659996032714858,8.0,4.0,01-20,0.18166605631510416
01-06,-3.5699977874755895,0.1399993896484375,1.1999969482421804,0.24000167846679688,2.3699989318847656,1.5,0.5600013732910014,-3.05999755859375,-0.01999664306640625,-0.3600006103515625,2.7600021362304545,4.169998168945327,8.0,4.0,01-21,0.4941671689351379
01-07,-3.7699985504150426,-0.3300018310546875,1.2899971008300852,0.2999992370605469,2.8400001525878906,0.43000030517578125,-0.06999969482423296,-1.9300003051757812,-0.1999969482421875,0.04000091552734375,3.9800033569335795,4.409996032714844,7.0,5.0,01-22,0.5824999809265116
01-08,-3.309999465942383,-0.3600006103515696,1.2299995422363352,0.579998016357429,0.6100006103515554,-1.0400009155273438,-1.7700042724609517,-2.0499954223632812,-0.9499969482421875,1.410003662109375,4.1700057983398295,2.4099960327148295,6.0,6.0,01-23,0.07750050226846976
01-09,-2.1700000762939453,-0.3900032043457031,0.8000030517578196,-0.24000167846679688,0.8400001525878906,-0.7600021362304688,-1.1300048828125,-1.9899978637695312,-2.0400009155273438,1.0699996948242188,2.959999084472642,1.0099945068359375,5.0,7.0,01-24,-0.17000118891398172
01-10,-2.010000228881836,-0.7400016784667969,0.5699996948242259,-0.3699989318847656,0.9300003051757955,-1.0600051879882812,-1.0300064086914205,-3.1200027465820312,-0.37000274658203125,1.9300003051757812,2.799995422363267,-0.12000274658203125,4.0,8.0,01-25,-0.2158354123433437
01-11,-2.3900012969970703,-0.75,0.8199996948242188,-0.3600006103515696,0.770000457763679,-0.1399993896484375,-0.660003662109375,-1.5699996948242188,0.5,1.9499969482421875,2.649993896484361,-0.5299987792968892,5.0,7.0,01-26,0.024165630340573802
01-12,-2.370000839233395,-0.7700004577636719,0.34999847412109375,0.289997100830071,0.5800018310546946,-0.8299942016601562,-1.6100044250488281,-2.9799957275390483,0.09999847412109375,1.6399993896484375,3.4199981689452983,1.1700057983398438,7.0,5.0,01-27,-0.0841663678487139
01-13,-2.039999008178711,-0.8899993896484375,0.6599998474121094,0.279998779296875,0.8699989318847656,-2.649993896484361,-1.3999977111816406,1.579994201660142,-0.06999969482421875,1.9599990844726562,3.1699981689452983,0.9200057983398438,7.0,5.0,01-28,0.19916709264119348
01-14,0.1800003051757777,-0.5699996948242259,0.3699989318847585,0.07999801635742188,0.799999237060554,-4.849998474121101,-1.7099990844726705,1.5,0.09000396728515625,3.19000244140625,3.4300003051757812,0.3600006103515625,9.0,3.0,01-29,0.23916721343993874
01-15,0.7899990081787109,-0.030002593994140625,-0.22999954223632812,0.4700012207031179,-0.5099983215332031,-4.3300018310546875,-1.6899986267089915,2.1800003051757812,-0.01999664306640625,2.9000015258789062,3.0699996948241903,-0.7399978637695312,5.0,7.0,01-30,0.15500052769978487
01-16,1.439998626708995,-0.6800003051757812,-0.3800010681152415,0.5999984741211009,0.34999847412109375,-4.6399993896484375,-2.38000106811522,2.1299972534179688,0.100006103515625,1.4900054931640625,3.2300033569335795,-2.279998779296889,7.0,5.0,01-31,-0.08499940236409535
01-17,2.7799987792968714,-0.970001220703125,-1.259998321533196,0.450000762939446,-0.18000030517578125,-3.8799972534179688,-2.1199989318847656,2.5499954223632812,-0.5999984741210938,0.850006103515625,2.029998779296875,-1.379997253417983,5.0,7.0,02-01,-0.14416599273681788
01-18,2.3400001525878764,-1.4099998474121094,-1.009998321533196,0.3299980163574219,-0.470001220703125,-3.80999755859375,-1.2099990844726562,4.779998779296875,-0.5100021362304688,0.18000030517578125,0.26999664306642046,0.31000518798828125,6.0,6.0,02-02,-0.017499923706054094
01-19,1.7199993133544886,-1.3299980163574219,0.02000045776366477,1.170001983642571,-0.15999984741210938,-2.9599990844726562,-1.0999984741210938,4.189994812011719,1.2099990844726562,-1.19000244140625,1.5199966430664205,0.9100036621093892,7.0,5.0,02-03,0.33333317438761484
01-20,0.889999389648434,-0.339996337890625,0.3599967956542969,1.9900016784667969,-0.49000167846678977,-3.3699989318847656,-0.6699981689453125,3.4899978637695312,2.3000030517578125,-0.04000091552734375,2.6800003051758097,-0.11999511718747158,6.0,6.0,02-04,0.5566673278808644
01-21,-0.3299999237060547,-0.06999969482421875,0.5900001525878906,1.9599990844726562,0.20999908447265625,-5.75,-0.8699951171874787,6.450004577636719,1.4900054931640625,-0.6200027465820312,3.1100006103515625,1.6100006103515625,7.0,5.0,02-05,0.6483343442281105
01-22,-0.2700004577636754,-0.060001373291015625,-0.04000091552734375,1.2199974060058594,0.18999862670898438,-4.859996795654304,-1.4899978637695241,4.900001525878906,0.8800048828125,-1.6599960327148438,3.409996032714858,1.2799987792968892,6.0,6.0,02-06,0.2916669845581075
01-23,-0.29000091552735086,-0.060001373291015625,-0.23999786376953836,1.9199981689453125,0.7399978637695241,-4.000003814697266,-0.539997100830071,6.290000915527344,1.3300018310546875,-4.220001220703125,3.690002441406264,0.5,6.0,6.0,02-07,0.4266665776570638
01-24,-0.6500015258789098,-0.960002899169929,-0.04000091552734375,2.0600013732910227,0.8100013732910156,-2.180004119873061,-0.5499992370605398,5.379997253417969,-0.19000244140625,-4.409996032714844,4.4599990844726705,0.75,5.0,7.0,02-08,0.37333265940348337
01-25,-0.2900009155273473,-1.0300025939941406,0.8899993896484304,1.6800003051757741,0.8800010681152273,-1.1000022888183523,0.040000915527350855,4.260002136230469,-0.6999969482421875,-5.5800018310546875,4.1999969482421875,1.3800048828125284,7.0,5.0,02-09,0.38583342234293766
01-26,0.4899997711181605,-0.8499984741210938,0.9799995422363281,1.0399971008300781,1.8699989318847656,-0.9000015258788991,0.5600013732910156,2.5400009155273438,0.23000335693359375,-5.290000915527344,3.7099990844726705,1.040000915527358,9.0,3.0,02-10,0.4516666730244981
01-27,-0.4599990844726527,-0.7900009155273438,0.8000030517578196,0.9099998474120952,1.829998016357429,0.09000015258789773,0.7600021362304616,4.160003662109375,0.1100006103515625,-3.8800048828125,4.069999694824247,0.20999908447268467,9.0,3.0,02-11,0.6508334477742563
01-28,-2.809999465942383,-0.8399963378906179,1.6800003051757741,1.05999755859375,1.4699974060058594,-0.2599983215332031,1.6399993896484375,3.5200042724609375,0.8100051879882812,-6.350006103515625,3.510002136230483,-0.1699981689453267,7.0,5.0,02-12,0.2716673215230306
01-29,-2.1100006103515554,-0.3999977111816335,1.4300003051757741,1.6299972534179759,0.5100021362304688,0.470001220703125,0.6800003051757812,1.2900009155273438,0.8300018310546875,-5.569999694824219,3.759994506835966,0.1100006103515625,9.0,3.0,02-13,0.21916675567627308
01-30,-1.4899997711181676,-0.479999542236321,1.5699996948242045,0.9099998474121165,0.8499984741210938,-0.270000457763679,0.5699996948242188,1.8800048828125,2.0500030517578125,-5.090003967285156,4.3600006103515625,-1.8300018310546875,7.0,5.0,02-14,0.2525000572204581
01-31,-0.6599998474121129,-0.479999542236321,1.4199981689453054,0.0,1.6399993896484304,0.1399993896484304,0.1399993896484375,1.8800048828125,1.4599990844726562,2.3000030517578125,3.680000305175753,-0.8000030517578267,8.0,4.0,02-15,0.8933334350585888
02-01,-0.6599998474121129,2.3400001525878906,0.5500030517578196,-1.2099990844726562,0.9399986267089844,2.5200004577636648,0.1399993896484375,2.0100021362304688,-0.1100006103515625,3.82000732421875,3.25,-2.529998779296861,8.0,4.0,02-16,0.9216677347819019
02-02,-0.38999938964843395,1.9599990844726562,0.6000022888183594,-0.3899993896484375,0.9599990844726562,2.5200004577636648,0.529998779296875,3.9800033569335938,-0.1300048828125,4.8600006103515625,2.9500045776367045,-2.529998779296861,8.0,4.0,02-17,1.24333381652832
02-03,-0.8600006103515625,1.7700004577636719,0.7899971008300781,-1.0900001525878906,0.9599990844726562,3.0,1.089996337890618,0.7999954223632812,-0.5800018310546875,7.280006408691406,2.9500045776367045,-1.0400009155273153,8.0,4.0,02-18,1.25583299001058
02-04,-1.7199993133544886,2.3600006103515696,0.5900001525878835,-1.0900001525878906,0.8600006103515625,2.6399955749511648,2.029998779296868,1.1300048828125,-0.15000152587890625,7.280006408691406,1.9199981689453125,-0.2799987792968892,8.0,4.0,02-19,1.297500451405841
02-05,-2.2800006866455007,2.4300003051757812,-0.25,-1.0900001525878906,0.5600013732910156,2.680004119873061,2.0200004577636648,2.25,-0.15000152587890625,7.790000915527344,0.870002746582017,-2.6100006103515625,7.0,5.0,02-20,1.018333911895752
02-06,-3.0600013732910085,2.30999755859375,-0.25,-0.75,0.8400001525878906,2.019996643066392,1.5,0.34000396728515625,0.8499984741210938,8.040000915527344,-0.03999328613282671,-2.519996643066392,7.0,5.0,02-21,0.7733338673909499
02-07,-2.480001449584961,2.75,0.06999969482422586,-0.6199989318847585,-0.5999984741211009,1.0299949645995952,2.1800003051757884,0.2700042724609375,1.1699981689453125,7.2099990844726705,0.31000518798828125,-1.6899948120117188,8.0,4.0,02-22,0.8000006675720227
02-08,-2.820001602172855,2.9699974060058665,-0.3299980163574219,-0.6899986267089773,-0.23999786376953125,1.1099967956542827,2.1899948120117116,-0.15000152587890625,1.0399932861328125,8.780006408691406,0.8700027465820455,-0.7900009155273153,6.0,6.0,02-23,0.9949994087219265
02-09,-2.9600009918212926,2.8000030517578196,-1.0,-1.30999755859375,-0.15999984741210938,1.4399986267089986,2.5199966430664134,-1.6100006103515625,0.69000244140625,8.0,0.5600051879882812,-0.870002746582017,6.0,6.0,02-24,0.675000349680586
02-10,-2.7899990081787074,2.979999542236321,-1.8300018310546804,-0.5900001525878906,-0.20000076293945312,1.2299995422363281,2.539997100830064,-1.3199996948242188,-0.529998779296875,7.560005187988281,1.4200057983398438,-3.8199996948242045,5.0,7.0,02-25,0.38750060399373404
02-11,-2.0699996948242116,0.5499992370605469,-1.6800003051757812,0.030002593994140625,0.3899993896484375,0.5400009155273438,2.6200027465820312,-0.40999603271484375,-0.1699981689453125,8.010002136230469,0.3500061035155966,-6.840003967285142,7.0,5.0,02-26,0.11000124613443951
02-12,-1.9799995422363317,0.4099998474121094,-1.44000244140625,0.7400016784667969,-0.6100006103515625,0.6599998474121307,1.7799987792968892,-1.3899993896484375,-0.30999755859375,8.389999389648423,-0.7600021362304545,-7.7699966430664205,5.0,7.0,02-27,-0.1899998982747381
02-13,-1.5599994659423828,0.6800003051757812,-1.7900009155273438,0.8100013732910156,-0.7099990844726562,0.5200042724609375,1.290000915527358,-0.0399932861328125,-0.06999969482421875,1.05999755859375,-1.490005493164034,-11.51999664306642,5.0,7.0,02-28,-1.068332513173419
02-14,-0.37999916076660156,0.5900001525878906,-1.2000007629394531,0.8999977111816406,0.3300018310546804,0.17000579833985796,0.599998474121108,0.3899993896484375,0.6500015258789062,-1.160003662109375,-0.35999298095703125,-11.989997863769531,7.0,5.0,02-29,-0.9549991289774559
02-15,-0.35000038146972656,0.7599983215332102,-1.0300025939941406,0.3400001525878906,0.29000091552733664,-0.04000091552735796,1.0100021362304688,-0.6199951171875,1.3100051879882812,-1.75,-0.5299987792968608,-10.580001831054702,5.0,7.0,03-01,-0.932499408721925
02-16,0.059999465942386365,1.2399978637695312,-1.729999542236321,0.029998779296882105,-0.34999847412110086,0.5299987792968608,0.6200027465820312,-0.23999786376953125,1.8600006103515625,-2.410003662109375,-0.1399993896484233,-12.860000610351577,6.0,6.0,03-02,-1.1158334414164228
02-17,-1.6200008392333984,1.8500022888183594,-2.079998016357422,-0.040000915527336645,0.18999862670897727,1.1899948120117045,1.25,1.1299972534179688,2.1599960327148438,-1.6399993896484517,0.18000030517579546,-14.190002441406264,7.0,5.0,03-03,-0.9683343569437687
02-18,-1.679998397827152,1.7399978637695312,-2.0600013732910156,0.2799987792968821,-0.2799987792968679,0.34999847412107954,0.05999755859375,1.1100006103515625,1.470001220703125,-2.059997558593764,-0.7400054931640341,-11.680000305175795,6.0,6.0,03-04,-1.1241672833760583
02-19,-0.8399982452392578,1.5200004577636648,-1.0600013732910156,0.43999862670897727,-0.34999847412110086,1.230003356933608,-0.21999359130857954,1.5300064086914062,1.220001220703125,-1.379997253417983,0.05999755859376421,-12.25,6.0,6.0,03-05,-0.8416651089986159
02-20,-0.6999988555908203,1.4199981689453054,0.12999725341797586,0.7000007629394531,1.529998779296875,1.0800018310546733,-0.5499954223632812,1.6100006103515625,1.4500045776367188,-0.659996032714858,-0.790000915527358,-7.4899978637695455,7.0,5.0,03-06,-0.18916559219360826
02-21,0.3400001525878871,1.4199981689453054,-0.5500030517578196,0.8499984741210938,2.150001525878899,1.2900009155273438,-0.6499938964843608,2.399993896484375,1.0600051879882812,0.6099929809570312,-2.6300048828125284,-4.540000915527358,8.0,4.0,03-07,0.1458323796590125
02-22,-0.470001220703125,2.1299972534179616,-0.720001220703125,-0.29000091552734375,1.5600013732910085,1.55999755859375,-1.2399978637695028,3.1999969482421875,1.2099990844726562,-0.470001220703125,-1.5600051879882812,-1.7699966430664205,5.0,7.0,03-08,0.26166566212972003
02-23,-0.7300014495849609,2.3999977111816406,1.9300003051757812,-0.9700012207031321,2.2800025939941335,1.3799972534179688,-2.0,2.8499984741210938,1.8199996948242188,-0.8499984741210795,-1.0699996948242472,-5.2299957275390625,6.0,6.0,03-09,0.15083328882852953
02-24,-1.960000991821289,1.7299995422363281,1.8400001525878906,-1.0400009155273509,2.4300003051757884,1.3600006103515767,-2.1200027465820312,1.8799972534179688,1.5800018310546875,-0.6399993896484375,-1.6800003051758097,-1.909996032714858,6.0,6.0,03-10,0.12249994277953864
02-25,-1.310001373291012,1.9300003051757812,1.25,-1.0400009155273509,3.1500015258789062,0.959999084472642,-2.099998474121108,1.5100021362304688,1.4599990844726562,-0.8300018310546875,-1.0899963378906392,-5.490005493164034,6.0,6.0,03-11,-0.1333335240681981
02-26,-1.5100002288818324,1.7600021362304616,1.1200027465820312,0.04000091552734375,2.8899993896484375,0.1199951171875,-2.9000015258789062,2.5199966430664062,1.3699951171875,0.09000396728517046,0.709999084472642,-0.6900024414062642,9.0,3.0,03-12,0.45999924341837417
02-27,-1.9200000762939453,1.2800025939941406,-0.1399993896484304,0.3100013732910156,1.9599990844726634,-0.470001220703125,-2.5100021362304688,2.1399993896484375,2.30999755859375,1.279998779296875,0.849998474121108,-3.3199996948242188,7.0,5.0,03-13,0.1474995613098168
02-28,-0.2399997711181605,1.3500022888183594,-0.029998779296875,0.8499984741210938,1.3900032043457102,-1.1299972534179688,-3.1399993896484375,1.660003662109375,2.2399978637695312,1.0800018310546875,0.5499954223632812,-1.9899978637695312,7.0,5.0,03-14,0.21583414077758878
02-29,0.0,0.0,0.0,1.6300010681152273,0.0,0.0,0.0,2.0699996948242188,0.0,0.0,0.0,-4.5,2.0,1.0,03-15,-0.0666666030883795
03-01,0.560001373291005,1.3900032043457031,0.9400024414062429,1.520000457763679,1.8600006103515554,-0.29000091552734375,-2.9399986267089773,0.7399978637695312,0.470001220703125,1.0699996948242188,1.4700012207031108,-9.180000305175781,9.0,3.0,03-16,-0.19916598002116093
03-02,1.0400009155273438,0.6899986267089844,0.25,1.2599983215332031,1.9300003051757884,-1.1800003051757955,-3.4000015258789062,1.75,1.4300003051757812,0.3899993896484375,0.6699981689453125,-7.19000244140625,9.0,3.0,03-17,-0.19666735331217508
03-03,1.25,0.7000007629394531,-1.299999237060554,1.1100006103515625,2.079998016357429,-0.8199996948242188,-2.0999984741210938,1.350006103515625,1.1999969482421875,-0.3300018310546875,1.279998779296875,-14.880004882812514,7.0,5.0,03-18,-0.8716669082641614
03-04,1.3399982452392578,0.8600006103515625,-0.6199989318847585,1.5400009155273438,2.299999237060554,-0.7900009155273438,-2.0100021362304688,0.5500030517578125,1.589996337890625,-0.12000274658203125,1.4400024414062358,-10.990005493164034,7.0,5.0,03-19,-0.40916744867960375
03-05,3.7300014495849574,0.15000152587890625,-0.4500007629394531,1.3900032043457031,1.7600021362304759,-0.45999908447267046,-1.079998016357436,0.8300018310546875,1.3300018310546875,-0.25,2.2399978637695312,-7.230003356933594,7.0,5.0,03-20,0.16333405176798296
03-06,3.9900016784667933,0.04000091552734375,-0.3600006103515625,2.4300003051757812,1.4300003051757955,-0.8899993896484375,-0.3199958801269389,1.5400009155273438,1.4300003051757812,-0.80999755859375,3.1100006103515767,-10.550003051757798,7.0,5.0,03-21,0.08666737874349402
03-07,4.240001678466793,-0.22999954223632812,0.22999954223632812,2.210002899169922,2.120002746582017,-0.8700027465820455,-0.22999954223632812,1.1699981689453125,2.3699951171875,-0.3600006103515625,4.069999694824247,-4.699996948242202,7.0,5.0,03-22,0.8350000381469712
03-08,4.75,-0.6499977111816406,-0.7399978637695312,1.0099983215332102,1.4000015258788991,-0.6999969482421875,-0.5400009155273438,1.589996337890625,0.8299942016601562,-0.3600006103515625,3.4799957275390767,-2.569999694824247,6.0,6.0,03-23,0.6249993642171212
03-09,4.190000534057614,-0.490001678466804,-0.3800010681152344,0.7399978637695384,1.3000030517578054,-0.8999938964843608,-0.9500007629394531,2.220001220703125,1.0,-1.2800064086914205,1.9300003051757955,-8.939994812011719,6.0,6.0,03-24,-0.12999963760375946
03-10,4.5,-0.3400001525878906,0.950000762939446,0.6800003051757884,0.9099998474121094,-0.80999755859375,-0.3600006103515625,2.6999969482421875,0.05999755859375,-1.19000244140625,3.5200042724609375,-20.059997558593736,7.0,5.0,03-25,-0.7866665522257476
03-11,4.3000011444091655,-1.2099990844726562,0.8400001525878906,0.40000152587890625,0.8900032043457031,-0.8699951171875,0.1399993896484375,2.2900009155273438,0.09999847412109375,-2.8199996948242188,1.8100051879882812,-11.020004272460938,8.0,4.0,03-26,-0.4291656812032076
03-12,3.969999313354503,-1.25,0.579998016357429,0.69000244140625,0.6399993896484375,-0.8799972534179545,-0.5800018310546946,2.8300018310546875,0.410003662109375,-4.010002136230469,2.25,-4.220001220703125,7.0,5.0,03-27,0.03583351771036991
03-13,3.489999771118164,-0.8499984741210938,0.7299995422363281,0.5099983215332031,1.3199996948242116,-0.5800018310546733,-0.11999893188476562,2.9000015258789062,-0.12999725341796875,-2.2900009155273438,3.160003662109361,-6.209999084472656,6.0,6.0,03-28,0.16083383560180606
03-14,3.539999008178711,-1.1599998474121094,0.569999694824233,0.3300018310546875,1.170001983642571,-0.94000244140625,-0.8100013732910156,2.1500015258789062,0.09000396728515625,-1.9899978637695312,2.6299972534179688,2.3000030517578125,8.0,4.0,03-29,0.6566672325134283
03-15,5.10999870300293,-0.8800010681152273,1.220001220703118,0.04999923706053977,0.950000762939446,-1.3899993896484375,-0.8100013732910156,2.149993896484375,-0.1699981689453125,-2.1999969482421875,2.469993591308608,8.319999694824233,7.0,5.0,03-30,1.234999179840089
03-16,4.729997634887688,-0.7700004577636719,1.5,0.1999969482421804,1.0900001525878764,-1.270000457763679,-0.6100006103515625,1.9599990844726562,0.05999755859375,-2.0699996948242188,1.80999755859375,6.120002746582031,8.0,4.0,03-31,1.0624992052714
03-17,2.9900016784667933,-0.7599983215332031,2.2099990844726634,0.34999847412108664,1.279998779296868,-0.6900024414062642,0.09000015258789062,1.470001220703125,-0.04000091552734375,-1.8799972534179688,2.4800033569335795,4.030006408691392,8.0,4.0,04-01,0.9608341852823848
03-18,1.5999984741210973,-0.48999786376953125,1.6199989318847727,0.31999969482421875,1.789997100830071,0.6299972534179972,-0.43000030517578125,1.8400039672851562,-0.7999954223632812,-1.5999984741210938,2.6800003051757812,2.7900009155273438,8.0,4.0,04-02,0.8291670481363959
03-19,1.0400009155273402,-0.06999969482421875,0.6299972534179759,0.18000030517578125,1.1599998474121094,2.19000244140625,-0.11999893188476562,1.350006103515625,-0.9799957275390625,-0.12999725341796875,4.1100006103515625,-2.6699981689452983,7.0,5.0,04-03,0.5575014750162776
03-20,1.6000003814697266,0.050003051757819605,1.1399993896484304,0.5999984741211009,0.579998016357429,2.4799957275390483,0.29000091552734375,1.0300064086914062,-0.8499984741210938,-1.8499984741210938,3.2700042724609233,3.6999969482421733,10.0,2.0,04-04,1.0033338864644346
03-21,0.28000068664550426,-0.3400001525878835,1.7899971008300852,0.979999542236321,0.3800010681152344,2.3899993896484375,0.13000106811523438,1.7099990844726562,-0.31999969482421875,-0.029998779296875,1.9300003051757812,12.279998779296875,9.0,3.0,04-05,1.764999866485596
03-22,1.9499988555908097,-0.18999862670897727,2.229999542236328,1.2599983215332031,0.3999977111816406,2.9499969482421875,0.26000213623046164,0.8400039672851562,-0.1100006103515625,1.75,3.6399993896484375,12.220001220703125,10.0,2.0,04-06,2.266666571299234
03-23,2.0399990081787003,-0.29000091552734375,2.5800018310546946,0.9699974060058594,0.6399993896484375,2.4899978637695312,-0.23999786376953836,-0.40000152587890625,-1.0800018310546875,2.94000244140625,2.959999084472642,10.260002136230455,8.0,4.0,04-07,1.9058330853780079
03-24,2.40999794006348,0.5900001525878906,2.4099998474121165,0.3400001525878906,0.6699981689453125,1.8499984741210938,-0.11999893188477273,0.5900039672851562,-0.5400009155273438,1.5,3.589996337890611,12.700004577636733,10.0,2.0,04-08,2.165833314259847
03-25,0.7900009155273402,1.0600013732910156,2.5699996948242116,-0.12999725341796875,0.09000015258789062,1.2599945068359233,0.13000106811523438,-0.32999420166015625,-0.5400009155273438,2.19000244140625,4.229995727539034,10.940002441406264,9.0,3.0,04-09,1.8550004959106412
03-26,-0.7799987792968786,0.7800025939941335,2.6399993896484446,-0.5799980163574219,-0.26000213623046164,2.279998779296889,0.4399986267089844,-0.32999420166015625,-0.09000396728515625,0.29000091552734375,3.5499954223632812,4.920005798339844,7.0,5.0,04-10,1.0716670354207372
03-27,-0.3999977111816371,0.3300018310546875,2.039997100830078,-0.6399993896484446,-0.40000152587891336,2.549999237060554,0.23999786376953125,-0.9599990844726562,-0.45999908447265625,1.8199996948242188,2.6400070190429688,7.1200027465820455,7.0,5.0,04-11,1.156667391459148
03-28,0.75,0.6199989318847585,1.4599990844726634,-1.5999984741210866,-0.09999847412109375,1.9700012207031392,-0.2800025939941406,-0.9499969482421875,-0.18000030517578125,4.3600006103515625,2.849998474121108,0.6399993896484517,7.0,5.0,04-12,0.7950000762939494
03-29,1.5099983215332067,1.3499984741210938,1.2299995422363281,-1.0099983215332102,0.2799987792968679,0.1399993896484233,-0.3699989318847656,-1.1500015258789062,-0.12000274658203125,2.4199981689453125,2.6500015258789062,3.6299972534179688,8.0,4.0,04-13,0.8799991607665995
03-30,2.5499992370605504,1.2699966430664062,-0.23999786376954546,-0.8699989318847727,0.2799987792968679,-0.3899993896484517,-0.20999908447265625,-1.1400070190429688,0.05999755859375,4.319999694824219,1.3300018310546875,6.7899932861328125,7.0,5.0,04-14,1.1458320617675748
03-31,1.7099990844726456,1.8000030517578125,-0.5100021362304545,-1.0999984741211009,0.509998321533196,-1.3799972534179972,-0.09000015258789062,-0.220001220703125,-0.06999969482421875,4.319999694824219,1.9500045776367188,2.80999755859375,6.0,6.0,04-15,0.8108336130777962
04-01,0.9099998474121094,2.279998779296882,-1.1599998474121094,-0.5,-0.06999969482423296,-1.8600006103515625,-0.35000228881835227,-0.899993896484375,0.470001220703125,4.7699966430664205,2.599998474121108,7.80999755859375,6.0,6.0,04-16,1.1666663487752302
04-02,-0.3999977111816406,2.1199989318847727,-1.5200004577636648,-0.9199981689453125,-1.8400001525878906,-1.1100006103515483,-0.15000152587889914,-0.720001220703125,-0.21999359130859375,4.819999694824219,2.6699981689453125,4.779998779296875,4.0,8.0,04-17,0.6258335113525421
04-03,-0.48999786376953125,2.1199989318847727,-1.470001220703125,-0.9899978637695312,-0.779998779296875,-0.650001525878892,-0.38000106811522727,-0.4600067138671875,-0.649993896484375,4.750000000000014,2.1500015258789205,6.7399978637695455,4.0,8.0,04-18,0.8241666158040424
04-04,-0.48999786376953125,2.6899986267089844,-0.9099998474121094,-0.29000091552734375,-1.6599998474121094,-0.01000213623045454,-0.38000106811522727,0.339996337890625,0.529998779296875,6.419998168945298,1.5200042724609517,0.1699981689452983,6.0,6.0,04-19,0.6608327229817714
04-05,-2.6199989318847585,3.1899986267089844,-1.970001220703132,0.1399993896484375,-1.0800018310546875,0.6100006103515767,-0.37000274658202414,1.8899993896484375,1.4899978637695312,5.209999084472656,0.8800048828125284,1.0899963378906108,8.0,4.0,04-20,0.70499928792318
04-06,-3.1799983978271413,3.1799964904785156,-1.3700027465820312,0.329998016357429,-1.3800010681152344,0.9800033569335795,-0.5400009155273366,1.4699935913085938,1.0200042724609375,7.1100006103515625,0.6300048828125284,2.180000305175753,8.0,4.0,04-21,0.869166533152263
04-07,-2.8700008392333984,2.879997253417976,-0.7700004577636648,0.329998016357429,-1.8199996948242188,1.1500015258789062,-0.29999923706053977,2.4199981689453125,1.3899993896484375,5.709999084472656,-1.2900009155273153,5.81999969482419,7.0,5.0,04-22,1.0541659990946475
04-08,-2.8499984741210973,2.710002899169929,-0.19000244140625,0.3899993896484446,-1.30999755859375,1.2300033569335795,-0.6999969482421804,2.4099960327148438,0.660003662109375,4.900001525878892,-0.7799987792968608,2.010002136230483,7.0,5.0,04-23,0.7066679000854507
04-09,-4.110000610351559,1.9800033569335938,0.11999893188476562,0.7399978637695384,-0.979999542236321,1.3800048828125,-0.45000076293946023,2.4099960327148438,0.9300003051757812,4.5400009155273295,0.7699966430664062,-0.969993591308608,8.0,4.0,04-24,0.5300003687540675
04-10,-3.4599990844726456,1.8900032043457031,0.9500007629394531,0.9199981689453125,-1.0900001525878906,1.4899978637695312,-0.6100006103515696,1.220001220703125,1.0999984741210938,1.6299972534179688,1.0199966430664205,3.9500045776367045,9.0,3.0,04-25,0.7508331934611006
04-11,-3.4599990844726456,2.0900001525878906,1.3199996948242259,0.12999725341798296,-0.9799995422363281,2.4799957275390767,-0.549999237060554,2.3199996948242188,1.3800048828125,0.9300003051757812,0.2799987792968608,3.9500045776367045,9.0,3.0,04-26,0.8241669336954761
04-12,-2.9899978637695277,2.2300033569335938,1.7399978637695455,0.5200004577636719,-0.40000152587889914,2.0099945068359375,-0.490001678466804,1.4300003051757812,2.5,0.45000457763670454,-0.3699951171875284,2.6699981689453125,8.0,4.0,04-27,0.775000254313149
04-13,-2.5699977874755753,1.9499969482421875,2.220001220703118,0.9399986267089844,1.1100006103515625,2.1699981689453125,-0.1399993896484375,1.7399978637695312,3.5399932861328125,0.40000152587890625,0.05000305175779829,1.7700042724609517,10.0,2.0,04-28,1.0983331998189294
04-14,-1.7700004577636719,0.920001983642571,2.4600028991699148,0.75,0.779998779296875,1.9499969482421875,-0.5099983215332031,1.5100021362304688,2.0699996948242188,-1.159996032714858,-0.4400024414062358,8.560005187988281,8.0,4.0,04-29,1.2600008646647123
04-15,-2.3600006103515554,0.6000022888183594,1.9000015258788991,0.22999954223632812,0.0,0.8700027465820028,-0.2200012207031179,0.7099990844726562,2.0699996948242188,-1.0299987792968892,1.529998779296875,10.25,8.0,4.0,04-30,1.212500254313148
04-16,0.5600013732910156,0.10000228881835938,2.5400009155273366,0.5200004577636719,-0.5100021362304688,0.7200012207031392,-0.45999908447265625,0.3300018310546875,1.5200042724609375,-0.849998474121108,1.6999969482421733,8.230003356933594,9.0,3.0,05-01,1.20000108083089
04-17,1.1200008392333984,0.030002593994140625,2.770000457763672,0.009998321533203125,1.0900001525878906,0.8499984741210938,-0.29000091552734375,-0.339996337890625,3.0300064086914062,-2.6299972534179545,3.5400009155273153,7.139999389648452,9.0,3.0,05-02,1.3600010871887207
04-18,1.9600009918212926,0.8000030517578196,2.8600006103515625,0.18999862670898438,0.9000015258789134,0.339996337890625,-0.26000213623047586,-3.6299972534179688,2.160003662109375,-2.0699996948242188,4.599998474121108,3.1399993896484517,9.0,3.0,05-03,0.9158336321512891
04-19,2.2000007629394602,0.12000274658203125,2.660003662109375,-0.010002136230461645,0.3899993896484446,0.339996337890625,-0.740001678466804,-2.5999984741210938,2.649993896484375,-2.240005493164034,3.879997253417983,0.1399993896484517,8.0,4.0,05-04,0.5658321380615293
04-20,1.8600006103515554,0.8899993896484304,1.3800010681152273,-0.3600006103515554,0.010002136230475855,0.1100006103515625,1.2400016784667898,-4.019996643066406,2.6299972534179688,-1.8800048828124716,3.879997253417983,-0.8000030517577983,8.0,4.0,05-05,0.41166623433431343
04-21,1.7199993133544922,0.6199989318847656,0.5200004577636648,0.270000457763679,0.1399993896484375,-0.40000152587890625,1.2399978637695241,-3.0200042724609375,2.4599990844726562,-1.7900009155273295,4.069999694824219,0.6899948120117188,9.0,3.0,05-06,0.543331940968832
04-22,1.9300003051757777,-0.5999984741210938,0.7700004577636648,0.5700035095214844,0.5300025939941406,-0.8800048828125,0.11999893188477273,-4.120002746582031,2.149993896484375,-3.2299957275390483,4.9199981689453125,-0.7400054931640341,7.0,5.0,05-07,0.11833254496256836
04-23,1.7099990844726598,-0.7400016784667969,0.7700004577636648,-0.539997100830071,-0.09000015258789062,-0.8299942016601562,0.15999984741211648,-3.4599990844726562,3.089996337890625,-2.089996337890611,4.959999084472642,-0.15999603271484375,5.0,7.0,05-08,0.23166751861572354
04-24,1.2899990081787074,-0.5999984741210938,0.22999954223632102,-0.4399986267089915,-0.3600006103515625,-0.8799972534179545,-0.19000244140625,-2.9599990844726562,3.6100006103515625,-0.37999725341798296,4.029998779296889,0.739997863769517,5.0,7.0,05-09,0.3408335049947088
04-25,1.3400001525878906,-1.7399978637695312,0.1399993896484304,-1.2299995422363281,0.29000091552734375,-0.6599960327148295,0.30999755859375,-2.7399978637695312,3.779998779296875,-1.3899993896484233,4.540000915527315,-7.720001220703125,6.0,6.0,05-10,-0.42333285013834693
04-26,0.9099998474121129,-2.759998321533203,0.4099998474121094,-0.7799987792968679,1.0699996948242188,-0.4199981689452841,0.20999908447265625,-3.3799972534179688,3.1400070190429688,-0.31999969482421875,2.5699996948242045,-7.1100006103515625,6.0,6.0,05-11,-0.5383323033650695
04-27,1.1300010681152308,-0.5400009155273438,0.2700004577636719,-1.0699996948242116,1.1100006103515625,-0.20000457763670454,0.3699989318847656,-2.8799972534179688,4.0800018310546875,-0.5,2.6699981689452983,-5.0500030517578125,6.0,6.0,05-12,-0.050833702087402045
04-28,1.0900001525878906,-0.7600021362304759,-0.75,-0.789997100830071,0.6100006103515625,-0.31000518798828125,0.2800025939941406,-2.4599990844726562,2.5699996948242188,-0.5400009155273438,1.6800003051757812,-4.870002746582017,5.0,7.0,05-13,-0.3541669845581043
04-29,0.3699989318847656,-1.0400009155273509,-0.8400001525878906,-0.9399986267089844,1.1400032043457031,0.37999725341796875,0.9599990844726562,0.8300018310546875,3.1399993896484375,0.29000091552734375,2.279998779296875,-6.130004882812486,8.0,4.0,05-14,0.03666623433431049
04-30,-0.860000610351566,-0.3600006103515625,-1.220001220703125,-1.1199989318847656,-0.11999893188476562,-0.43000030517578125,2.2600021362304688,-0.01999664306640625,2.7999954223632812,0.7900009155273438,1.5600051879882812,-4.660003662109375,4.0,8.0,05-15,-0.11499977111816435
05-01,-0.5200004577636612,-0.9899978637695312,-0.3600006103515554,-2.339996337890625,0.8299980163574148,-0.4100036621093608,0.279998779296875,0.779998779296875,2.6999969482421875,-0.1699981689452983,0.17000579833982954,-3.720001220703125,5.0,7.0,05-16,-0.31249999999999795
05-02,-1.1599998474121058,-1.3999977111816406,-0.5200004577636648,-2.7899971008300852,1.0699996948242188,0.09999847412110796,0.37000274658203125,0.12000274658203125,2.4300003051757812,-0.45999908447267046,0.23999786376951704,-4.389999389648452,6.0,6.0,05-17,-0.5324993133544943
05-03,-0.6100006103515625,-2.859996795654297,0.5399971008300852,-3.5500030517578054,0.6799964904785156,0.04000091552735796,1.25,1.6500015258789062,2.3400039672851562,2.4199981689452983,-0.6100006103515767,-4.349998474121108,7.0,5.0,05-18,-0.25500011444091913
05-04,-0.6800003051757777,-2.2900009155273438,0.1100006103515625,-2.44000244140625,0.5999984741210938,-0.7599945068359233,1.2399978637695312,-0.15999603271484375,0.8899993896484375,1.2799987792968608,-1.7799987792968892,-5.309997558593764,5.0,7.0,05-19,-0.7749996185302755
05-05,-0.31999969482421875,-2.1800003051757812,1.8800010681152344,-2.3100013732910085,0.5,-0.5999984741210938,2.660003662109389,-0.80999755859375,0.3699951171875,0.7399978637695455,-0.9099960327148438,-1.409996032714858,5.0,7.0,05-20,-0.19916598002115707
05-06,-0.30999946594237926,-1.1000022888183594,1.970001220703125,-3.450000762939453,1.0,0.2599945068359375,2.989997863769517,-1.029998779296875,-0.23000335693359375,0.48999786376954546,-1.2399978637695312,-1.1299972534179688,5.0,7.0,05-21,-0.14833402633666962
05-07,-0.0999984741210973,-0.0800018310546875,0.9799995422363281,-3.8899993896484375,0.9200019836425852,-0.670005798339858,2.4599990844726562,-1.3000030517578125,-0.37000274658203125,0.7599945068359659,-0.9300003051757812,-1.05999755859375,4.0,8.0,05-22,-0.2733345031738266
05-08,-0.3199996948242152,-1.9000015258789062,0.7400016784667969,-3.229999542236321,0.5300025939941406,-0.6800003051757955,2.299999237060547,-1.7000045776367188,-0.15000152587890625,2.25,-0.5099945068359233,-3.1199951171875,4.0,8.0,05-23,-0.4824994405110668
05-09,-0.049999237060546875,-3.259998321533203,0.2700004577636719,-3.1300010681152415,0.6500015258789062,-0.5699996948242188,2.3999977111816335,-1.220001220703125,0.35999298095703125,1.0,0.15000152587890625,-1.8999938964843892,6.0,6.0,05-24,-0.4416666030883813
05-10,-0.049999237060546875,-3.450000762939453,-0.8400001525878764,-2.520000457763672,0.11999893188476562,-1.480003356933608,2.3999977111816335,-2.2900009155273438,0.31999969482421875,0.29999542236328125,-0.4499969482421875,-1.8999938964843892,4.0,8.0,05-25,-0.8200003306070981
05-11,-0.35000038146972656,-3.6199989318847585,-0.1399993896484304,-2.3400001525878906,0.6300010681152344,-1.480003356933608,1.8599967956542898,-0.45000457763671875,0.8600006103515625,-0.20000457763671875,0.34999847412110796,-1.2200012207031392,4.0,8.0,05-26,-0.508334636688233
05-12,-0.4799995422363281,-4.450000762939453,-0.4099998474121094,-1.2800025939941406,0.6300010681152344,-1.5800018310546875,0.9900016784667969,-1.279998779296875,0.9599990844726562,0.7199935913085795,0.34999847412110796,1.150001525878892,6.0,6.0,05-27,-0.3900006612141939
05-13,1.4599990844726562,-3.700000762939453,-0.25,-1.2800025939941406,0.7099990844726491,-1.0,-0.3600006103515554,-0.6200027465820312,0.7600021362304688,0.7199935913085795,0.15999603271485796,7.130004882812486,6.0,6.0,05-28,0.3108323415120431
05-14,-0.019998550415039062,-2.240001678466797,-0.8599967956542898,-1.2700004577636648,-0.07999801635741477,-0.8300018310547017,-0.7299957275390483,-1.0500030517578125,0.7600021362304688,0.6599960327148295,-0.0500030517578125,10.090003967285142,3.0,9.0,05-29,0.36500024795532166
05-15,0.050001144409176135,-2.6599998474121094,-0.8599967956542898,-1.1300010681152344,-0.1999969482421804,-0.02000427246095171,-0.7199935913085795,-1.0500030517578125,1.5200042724609375,1.9800033569335938,-0.3399963378906108,11.050003051757798,4.0,8.0,05-30,0.6350016593933114
05-16,-0.2999992370605504,-2.6599998474121094,-0.9399986267089844,-0.5699996948242259,-0.2999992370605469,-0.18000030517578125,-1.1800003051757812,-0.970001220703125,1.5800018310546875,-0.23000335693357954,-1.4100036621093608,8.400001525878892,2.0,10.0,05-31,0.1033331553141279
05-17,-0.5499992370605504,-1.279998779296875,0.22999954223632812,-0.27000045776366477,-0.7999992370605469,-0.6699981689453125,-1.170005798339858,1.7399978637695312,2.2600021362304688,0.6699981689453125,-1.0800018310546733,7.4499969482421875,5.0,7.0,06-01,0.5441659291585289
05-18,0.01000022888183949,-0.45999908447265625,0.17000198364257102,0.1699981689453196,-0.7900009155273509,-0.2599945068359375,-1.8900032043457173,2.0100021362304688,2.8700027465820312,0.40000152587889204,-0.34000396728514204,7.239997863769531,7.0,5.0,06-02,0.7608335812886541
05-19,0.9099979400634659,-1.1999969482421875,-0.8700027465820241,-0.69000244140625,0.18000030517577414,-0.04000091552735796,-2.1899948120117116,2.3600006103515625,2.6500015258789062,-0.05000305175782671,0.4700012207031392,7.689994812011719,6.0,6.0,06-03,0.7683329582214341
05-20,1.8199996948242116,0.9499969482421875,-0.40000152587889914,0.10999679565428977,-0.3400001525878906,0.69000244140625,-1.5099983215332031,1.8799972534179688,2.1700057983398438,-1.6900024414062642,0.2299957275390625,7.659996032714844,8.0,4.0,06-04,0.9641656875610334
05-21,2.05999946594239,1.1399993896484375,0.55999755859375,-0.3000030517578196,-0.14000320434570312,0.20000457763671875,-0.779998779296875,2.4199981689453125,3.4200057983398438,-1.2400054931640767,0.5499954223632812,8.19000244140625,8.0,4.0,06-05,1.3399993578592924
05-22,2.1199989318847727,1.279998779296875,0.4099998474121094,-0.3699989318847585,-0.029998779296875,0.25,-0.3600006103515625,2.55999755859375,3.4900054931640625,-0.09999847412109375,2.5699996948242188,8.180000305175781,8.0,4.0,06-06,1.6666669845581066
05-23,1.1700000762939524,1.220001220703125,-0.4099998474121236,-0.6499977111816477,-0.9099998474120952,0.18000030517578125,0.1699981689453054,2.4099960327148438,2.6599960327148438,-0.1699981689453125,4.169998168945298,3.7299957275390767,8.0,4.0,06-07,1.1308325131734207
05-24,1.219999313354485,-0.1100006103515625,-0.9200019836425852,0.5200004577636648,-0.44000244140625,0.220001220703125,-0.050003051757819605,0.7099990844726562,2.0900039672851562,-0.1199951171875,4.199996948242173,2.589996337890639,7.0,5.0,06-08,0.8258328437805152
05-25,0.8099994659423828,-0.20999908447265625,-1.19000244140625,0.970001220703125,-0.69000244140625,0.5800018310547017,0.3099975585937571,1.1399993896484375,1.5400009155273438,-0.1699981689453125,4.229995727539048,3.849998474121108,8.0,4.0,06-09,0.9308327039082863
05-26,1.1200008392333984,-0.5699996948242188,-1.3800010681152344,0.8700027465820312,-0.19000244140625,1.160003662109375,-0.2200012207031321,1.2900009155273438,1.3199996948242188,0.6000061035156108,7.3300018310546875,4.029998779296889,8.0,4.0,06-10,1.2800008455912266
05-27,2.3199996948242223,-2.3300018310546804,-1.6300010681152344,1.229999542236321,0.5299987792968679,1.2800064086914205,-0.3300018310547159,0.5800018310546875,1.1500015258789062,-0.06999969482424717,9.019996643066406,-0.08000183105467329,7.0,5.0,06-11,0.9724998474121067
05-28,2.880001068115245,-2.2400016784667898,-2.8000030517578054,1.690002441406243,0.7199974060058452,1.1699981689453125,-0.25,0.45999908447265625,0.7099990844726562,0.3500061035156108,10.319999694824219,0.04000091552734375,9.0,3.0,06-12,1.0874999364217113
05-29,2.320001602172855,-1.440002441406243,-2.3100013732910085,1.0600013732910156,0.5799980163574219,0.2299957275390767,0.4699974060058594,0.529998779296875,1.1100006103515625,0.5100021362304545,9.880004882812486,0.25,10.0,2.0,06-13,1.0991663932800295
05-30,1.1600036621093892,-0.4600028991699219,-3.0,2.5,-1.19000244140625,0.010002136230497172,0.3399963378906321,0.9399948120117188,0.9000015258789062,0.19000244140625,8.110000610351562,0.220001220703125,9.0,3.0,06-14,0.8099997838338258
05-31,1.8600006103515696,0.06999969482421164,-1.950000762939446,1.3000030517578196,-0.6700019836425852,0.09999847412110796,0.8799972534179901,-0.48000335693359375,1.1699981689453125,2.0,8.35000610351564,-7.1699981689453125,8.0,4.0,06-15,0.4549999237060594
06-01,1.8500022888183665,-0.06999969482421875,-0.520000457763679,1.710002899169929,-0.7999992370605469,-0.40000152587889204,0.6800003051757884,-0.7699966430664062,-0.01000213623046875,1.5500030517578125,7.5900039672851705,-6.05999755859375,5.0,7.0,06-16,0.3958346048990921
06-02,0.43000030517578836,0.3100013732910156,-1.3800010681152415,1.75,0.44000244140625,-0.08999633789061079,0.3199958801269389,-1.029998779296875,-0.0800018310546875,0.45999908447265625,6.69000244140625,-6.659996032714844,7.0,5.0,06-17,0.09666728973388672
06-03,0.18000030517577414,0.8600006103515625,-0.5600013732910085,2.159999847412095,0.19000244140625,-0.5800018310546733,0.7600021362304545,-0.8799972534179688,0.40000152587890625,1.0,6.05999755859375,-5.8899993896484375,8.0,4.0,06-18,0.3083337148030587
06-04,0.29000091552735796,2.19000244140625,0.04000091552734375,2.0499992370605398,0.55999755859375,0.160003662109375,0.8899993896484375,-0.7699966430664062,0.3800048828125,1.05999755859375,4.4499969482421875,-5.2299957275390625,10.0,2.0,06-19,0.5058342615763353
06-05,0.7000007629394602,2.6300010681152344,0.11999893188476562,2.2199974060058736,1.5600013732910085,-0.45999908447267046,0.5299987792968608,-0.589996337890625,0.09999847412109375,0.9199981689453125,2.3600006103515625,-6.489997863769531,9.0,3.0,06-20,0.3000001907348621
06-06,0.3899993896484446,2.470001220703125,-0.06999969482421875,0.8499984741210938,0.31999969482421164,-1.0400009155273438,1.05999755859375,-0.7399978637695312,1.2699966430664062,0.339996337890625,-0.8199996948242188,-6.6699981689453125,7.0,5.0,06-21,-0.2200005849202474
06-07,0.24000167846680398,2.5,-0.21999740600587359,0.3000030517578196,-0.40000152587890625,-1.1600036621093892,1.519996643066392,0.1300048828125,1.1999969482421875,1.4000015258789205,-2.5099945068359375,-6.5900039672851705,7.0,5.0,06-22,-0.29916636149088777
06-08,0.15999984741210938,2.0999984741210938,0.7000007629394531,-0.15999984741210227,-0.5900001525878835,-0.5500030517578267,1.5400009155273438,-0.04000091552734375,1.75,0.9799957275390625,-3.80999755859375,-5.980003356933594,6.0,6.0,06-23,-0.3250007629394531
06-09,-1.0,1.3800010681152273,0.0,0.470001220703125,-1.8699989318847585,-0.6000061035156392,1.349998474121108,0.5199966430664062,1.3499984741210938,0.8199996948242188,-3.410003662109361,-4.919998168945327,6.0,6.0,06-24,-0.4925009409586589
06-10,-1.1200027465820384,-0.009998321533203125,0.6899986267089915,-0.6399993896484446,-2.159999847412095,-0.7399978637695312,0.94000244140625,0.1100006103515625,1.55999755859375,-0.720001220703125,-3.8400039672851705,-4.199996948242202,4.0,8.0,06-25,-0.8441667556762713
06-11,-1.789997100830071,-0.5400009155273366,-0.3600006103515625,-0.04999923706053977,-2.0199966430664062,-0.599998474121108,-0.3300018310547017,1.529998779296875,1.3799972534179688,-1.1900024414062642,-3.8000030517578125,1.6900024414062358,3.0,9.0,06-26,-0.5066668192545603
06-12,-1.779998779296868,-0.40000152587890625,-0.6300010681152344,-1.6599998474121165,-1.1899986267089844,0.29000091552732954,-0.1300048828125,3.3600006103515625,1.3600006103515625,-1.970001220703125,-0.5600051879882812,0.5800018310546733,4.0,8.0,06-27,-0.22750059763590733
06-13,-1.0499992370605398,-0.6100006103515696,-0.8400001525878906,-1.3899993896484446,-2.3300018310546875,-0.02000427246095171,0.18000030517579546,-0.029998779296875,0.9599990844726562,-1.6100006103515625,-1.480003356933608,0.5299987792968608,3.0,9.0,06-28,-0.6408341725667347
06-14,-0.3300018310546875,-0.25,-0.55999755859375,-1.6500015258788991,-2.0800018310546875,0.75,0.010002136230497172,-1.8400039672851562,0.12000274658203125,-2.7600021362304688,-0.849998474121108,2.1899948120117188,4.0,8.0,06-29,-0.6041673024495425
06-15,0.06999969482421164,-0.9199981689453125,1.029998779296882,-1.5400009155273438,-2.1800003051757812,0.6699981689453125,0.21000671386721592,-0.6299972534179688,0.6999969482421875,-2.8199996948242188,-0.9300003051757955,2.30999755859375,6.0,6.0,06-30,-0.3358332316080717
06-16,0.8100013732910156,-2.44000244140625,1.3700027465820312,-1.8899993896484446,-1.7299995422363281,1.3700027465820312,-1.1599998474120952,0.220001220703125,0.9800033569335938,-2.7399978637695312,1.3800048828124858,1.8600006103515625,7.0,5.0,07-01,-0.16416517893473367
06-17,0.6300010681152273,-2.670001983642578,1.5600013732910156,-2.0900001525878906,-1.9300003051757812,0.6800003051757812,-1.0399971008300781,0.37000274658203125,0.18000030517578125,-2.1299972534179688,4.1699981689453125,5.069999694824219,7.0,5.0,07-02,0.23333390553792258
06-18,0.7799987792968679,-2.700000762939453,1.3899993896484446,-1.5699996948242259,-1.3899993896484375,1.44000244140625,-1.4999961853027202,-0.9000015258789062,-0.26000213623046875,-1.4599990844726705,4.779998779296889,4.990005493164077,5.0,7.0,07-03,0.30000050862630384
06-19,0.8600006103515625,-2.279998779296875,1.3899993896484446,-1.3800010681152344,-0.6499977111816406,0.8300018310546875,-1.5200004577636719,-0.9000015258789062,-0.26000213623046875,-0.8700027465820455,4.859992980957031,4.3800048828125,5.0,7.0,07-04,0.371666272481282
06-20,1.75,-2.279998779296875,1.6899986267089915,-0.46000289916991477,0.4799995422363281,0.8800048828125,-1.7299995422363281,1.5099945068359375,-0.029998779296875,-1.0500030517578125,3.7300033569335795,4.4300003051757955,7.0,5.0,07-05,0.7433331807454439
06-21,2.0900001525878835,-2.479999542236321,1.94000244140625,1.3999977111816548,0.7700004577636648,1.1200027465820312,-1.6500015258789062,1.4899978637695312,0.0800018310546875,0.8899993896484233,4.160003662109389,4.9300003051757955,10.0,2.0,07-06,1.228333791097007
06-22,1.6300010681152344,-0.9700012207031179,2.0699996948242188,0.80999755859375,0.9699974060058594,0.34999847412109375,-1.7099990844726562,0.410003662109375,0.470001220703125,1.3600006103515625,4.760002136230469,7.419998168945327,10.0,2.0,07-07,1.4641666412353533
06-23,0.94000244140625,-1.25,3.3499984741210938,1.8199996948242259,1.0499992370605398,0.5800018310546733,-1.3400001525878906,-1.4000015258789062,0.48999786376953125,1.8099975585937358,7.1399993896484375,7.819999694824247,9.0,3.0,07-08,1.7508328755696614
06-24,0.31999969482421164,0.12999725341797586,3.55999755859375,1.7900009155273438,1.7899971008300852,0.4199981689453125,-0.149993896484375,1.9899978637695312,0.15000152587890625,2.3600006103515625,5.8300018310546875,9.20999908447267,11.0,1.0,07-09,2.283333142598472
06-25,-0.55999755859375,-0.23000335693359375,3.1299972534179688,0.75,2.0400009155273366,-0.15000152587890625,-0.8400001525879119,4.1399993896484375,0.1699981689453125,1.9000015258789062,2.930000305175753,5.3300018310546875,8.0,4.0,07-10,1.55083306630452
06-26,-0.9599990844726491,-0.7300033569335938,3.299999237060547,-0.8600006103515554,2.8400001525878906,0.01000213623046875,-1.0400047302246307,3.8899993896484375,0.9499969482421875,2.3899993896484375,4.830001831054702,5.209999084472656,8.0,4.0,07-11,1.6524991989135749
06-27,-1.3899993896484375,-0.20000076293945312,3.1699981689453125,-1.259998321533196,2.6800003051757812,-0.69000244140625,-0.3000030517578196,5.19000244140625,1.9300003051757812,4.010002136230469,2.029998779296889,3.6800003051757812,7.0,5.0,07-12,1.570833206176759
06-28,-1.3700027465820384,-0.01000213623046875,1.8500022888183594,-1.299999237060554,2.8800010681152344,-0.69000244140625,-0.3300018310546875,4.5099945068359375,1.2399978637695312,2.970001220703125,-0.7599945068359375,4.510002136230483,6.0,6.0,07-13,1.1249996821085613
06-29,-1.0800018310546875,0.8800010681152344,1.3499984741210938,-1.8199996948242188,2.1399993896484375,-0.75,-0.060001373291015625,3.69000244140625,2.4900054931640625,2.3000030517578267,-0.6899948120117188,5.699996948242202,7.0,5.0,07-14,1.179167429606122
06-30,-0.4500007629394531,2.9300003051757812,0.9099998474121094,-2.549999237060554,3.3699989318847656,-0.6600036621093608,0.4900016784667969,1.100006103515625,2.1200027465820312,2.0900039672851562,-0.25,1.4499969482421875,8.0,4.0,07-15,0.8791672388712571
07-01,-0.7799987792968608,3.0600013732910085,0.009998321533203125,-2.7299995422363352,3.700000762939446,-0.970001220703125,0.09000015258788352,1.0600051879882812,1.9000015258789062,2.150001525878892,-0.8599929809570312,3.8299942016601705,8.0,4.0,07-16,0.8716675440470366
07-02,1.3499984741210938,2.650001525878899,0.09000015258789062,-1.9399986267089915,3.9599990844726562,0.0800018310546875,0.14999771118163352,1.5100021362304688,1.5499954223632812,1.2800064086914205,-0.6200027465820312,2.9300003051757812,10.0,2.0,07-17,1.0825001398722325
07-03,1.8499984741210938,3.3400001525878906,-0.6399993896484375,-2.8899993896484446,3.549999237060554,-0.6200027465820028,0.09999847412108664,1.470001220703125,2.3499984741210938,-0.6999969482421733,-2.7599945068359375,2.6399993896484233,7.0,5.0,07-18,0.6408335367838559
07-05,2.5900001525878906,2.490001678466797,-1.529998779296882,-2.1899986267089773,2.7600021362304545,-0.06999969482420454,0.4600028991699219,1.19000244140625,2.4499969482421875,0.08000183105470171,-1.0800018310546875,1.979995727539034,8.0,4.0,07-20,0.7608337402343738
07-06,1.9899978637695384,2.3800010681152415,-0.6299972534179688,-1.1499977111816335,2.479999542236328,-1.3899993896484233,0.09000015258789062,0.8800048828125,2.779998779296875,0.540000915527358,-0.45999908447264204,4.139999389648423,8.0,4.0,07-21,0.9708340962727906
07-07,3.259998321533203,1.75,-1.2700004577636719,0.5900001525878906,2.9300003051757884,-0.3699951171875,-0.34000396728515625,1.8100051879882812,2.0,-0.4799957275390483,0.37000274658204546,4.1399993896484375,8.0,4.0,07-22,1.199167569478356
07-08,3.1999969482421875,1.2000007629394531,-1.1399993896484375,0.9899978637695241,2.6800003051757884,-0.8399963378906392,-0.35999679565428977,0.5100021362304688,1.7899932861328125,1.2300033569335938,-0.5899963378906108,5.25,8.0,4.0,07-23,1.1600004831949875
07-09,3.3100013732910227,1.0100021362304688,-0.40000152587891336,0.3899993896484304,1.8400001525878906,-2.5900001525878906,-0.4099998474121094,0.100006103515625,1.399993896484375,0.6800003051757812,-0.9099960327148438,4.739997863769517,8.0,4.0,07-24,0.7633336385091128
07-10,3.020000457763672,1.1500015258789062,-0.31000137329102273,0.30999755859375,1.4799995422363281,-2.5900039672851562,-0.6800003051757812,-0.2599945068359375,1.2099990844726562,-0.970001220703125,0.9300003051757955,3.5500030517577983,7.0,5.0,07-25,0.5700000127156569
07-11,2.4099998474121094,2.950000762939453,-0.43000030517578836,-0.4799995422363281,-0.6199989318847656,-2.6800003051757955,-1.2600021362304688,0.26000213623046875,1.2900009155273438,-0.9300003051757812,-0.7299957275390625,5.069999694824219,5.0,7.0,07-26,0.404167175292967
07-12,2.770000457763672,3.6100006103515625,-0.6599998474121094,0.2999992370605469,-0.950000762939446,-2.8700027465820312,-1.8000030517578125,-0.4600067138671875,-0.29000091552734375,-1.0099945068359233,-0.12000274658203125,5.0100021362304545,4.0,8.0,07-27,0.29416592915852924
07-13,2.740001678466797,2.720001220703132,-0.6899986267089773,-0.4900016784667969,-1.05999755859375,-2.75,-2.5100021362304688,0.06999969482421875,-0.5699996948242188,-0.1399993896484517,0.37000274658203125,5.4199981689453125,5.0,7.0,07-28,0.25916703542073566
07-14,1.9199981689453054,2.6399993896484375,-1.0499992370605398,-0.29000091552734375,-1.4199981689453125,-3.0400009155273438,-2.55999755859375,-0.470001220703125,-1.3700027465820312,1.44000244140625,0.0,3.5400009155273295,4.0,8.0,07-29,-0.05499998728434363
07-15,-0.029998779296875,2.5800018310546875,-1.1899986267089773,0.17000198364258523,-1.8199996948242259,-3.9099998474121094,-1.6399993896484304,-0.1999969482421875,-1.7300033569335938,2.779998779296875,1.5699996948242045,0.15000152587889204,5.0,7.0,07-30,-0.27249940236409625
07-16,-1.1200027465820241,3.4099998474121094,-0.15999984741209516,1.0100021362304616,-0.9399986267089844,-3.7199974060058807,2.0499954223632955,-0.19000244140625,-1.7900009155273438,9.610000610351562,1.7799987792968608,1.5699996948242472,6.0,6.0,07-31,0.9591662089029965
07-17,-0.5200004577636719,3.5200004577636648,-0.3899993896484304,0.6599998474121094,-0.9900016784667898,-2.9199981689453267,2.4199981689453267,-0.5300064086914062,-7.480003356933594,7.8600006103515625,0.2799987792968892,-0.590003967285142,5.0,7.0,08-01,0.10999870300293264
07-18,-1.200000762939446,3.2700004577636648,-0.5800018310546804,-0.3000030517578196,-1.44000244140625,-3.94000244140625,2.3899993896484517,-1.7300033569335938,-8.80999755859375,7.809997558593736,-3.3400039672851562,-0.48000335693357954,3.0,9.0,08-02,-0.6958351135253894
07-19,-0.8400001525878906,3.3499984741210866,-2.5400009155273438,-1.4899978637695241,-1.19000244140625,-3.2900009155273295,3.5400009155273438,-2.2800064086914062,-7.579994201660156,6.099998474121094,-2.3800048828125,-1.3799972534179688,3.0,9.0,08-03,-0.8316672643025704
07-20,-0.9000015258789134,3.270000457763679,-3.1500015258789062,-0.8899993896484304,-1.25,-4.300003051757798,3.8300018310546875,-3.69000244140625,-7.4499969482421875,6.650001525878906,-2.1400070190429688,-4.090003967285142,3.0,9.0,08-04,-1.175834337870277
07-21,0.0800018310546875,3.1999969482421804,-3.5600013732910156,-0.55999755859375,0.2700004577636719,-4.270000457763665,4.199996948242202,-3.3199996948242188,-7.260002136230469,7.290000915527344,-5.600006103515611,0.48000335693359375,6.0,6.0,08-05,-0.7541672388712541
07-22,0.15999984741210938,1.55999755859375,-3.44000244140625,-1.2099990844726634,0.8400001525878906,-2.349998474121101,4.930000305175781,-3.839996337890625,-7.209999084472656,7.840003967285156,-5.140007019042969,0.12000274658204546,6.0,6.0,08-06,-0.6449998219807943
07-23,-0.5499992370605469,0.8999977111816406,-3.1300010681152344,0.2800025939941406,0.40000152587891336,-2.6999969482421804,6.349998474121094,-3.3299942016601562,-7.209999084472656,8.959999084472656,-7.4300003051757955,-0.08000183105467329,5.0,7.0,08-07,-0.6283327738443999
07-24,-0.5200004577636719,0.12999725341796164,-5.290000915527351,1.2299995422363281,0.770000457763679,-2.270000457763672,7.05999755859375,-3.1699981689453125,-7.099998474121094,9.459999084472656,-3.5699996948242188,-0.48999786376953125,5.0,7.0,08-08,-0.3133335113525397
07-25,0.29000091552734375,0.18000030517577414,-4.989997863769531,0.7000007629394531,1.1599998474121094,-1.9799995422363281,7.429996490478523,-3.3600006103515625,-5.950004577636719,8.819999694824205,-1.2599945068359375,-1.4899978637695312,6.0,6.0,08-09,-0.03749974568685014
07-26,-0.15999984741210938,0.29999923706053977,-7.30000305175782,0.10999679565428977,1.5600013732910227,-1.3899993896484375,6.990001678466804,-4.1300048828125,-5.319999694824219,6.8899993896484375,-2.829994201660142,-2.1899948120117188,5.0,7.0,08-10,-0.622499783833821
07-27,0.06999969482421875,0.4500007629394531,-3.9799995422363352,-0.7300033569335866,1.0099983215332031,-1.3299980163574219,7.4099998474121165,-3.7399978637695312,-5.519996643066406,0.05999755859375,-3.279998779296861,-0.5999984741210938,5.0,7.0,08-11,-0.8483330408732078
07-28,0.029998779296875,-0.060001373291015625,-5.8300018310546875,-0.5600013732910156,1.8499984741210938,-0.5499992370605469,7.619998931884766,-3.1599960327148438,0.17000579833984375,0.45999908447265625,-2.0699996948241903,-1.0500030517577983,5.0,7.0,08-12,-0.26250012715657195
07-29,0.9000015258788991,-1.1200027465820241,-5.6399993896484375,-0.6499977111816406,1.6299972534179759,-0.4700012207031179,2.8300018310546733,-1.9599990844726562,1.5500030517578125,1.4000015258789062,-3.8600006103515483,-2.069999694824247,5.0,7.0,08-13,-0.6216662724812837
07-30,0.7299995422363281,-1.200000762939446,-5.590000152587891,-0.5900001525878906,1.8300018310546946,0.23999786376953125,1.2799987792968892,-1.1199951171875,0.5800018310546875,-0.12000274658204546,-3.7699966430664205,0.17999267578125,6.0,6.0,08-14,-0.6291669209798177
07-31,0.7900009155273509,-1.6599998474121094,-3.6500015258789062,-0.029998779296875,1.9599990844726562,2.0100021362304688,0.9899978637695455,-1.2399978637695312,1.2099990844726562,-1.029998779296875,0.20000457763671875,2.8899993896484233,7.0,5.0,08-15,0.20333385467529355
08-01,0.029998779296875,-1.549999237060554,-3.200000762939453,0.75,0.40000152587891336,1.9799995422363352,1.5,-1.7599945068359375,0.40000152587890625,-0.4499969482421875,1.5299987792968608,-0.57000732421875,7.0,5.0,08-16,-0.07833321889241596
08-02,0.29000091552734375,-1.6800003051757884,-1.5,1.7900009155273438,-0.1699981689453054,1.7299995422363352,1.75,-1.1100006103515625,0.5,-1.6400070190429688,1.0699996948242188,-0.14000701904296875,6.0,6.0,08-17,0.07416566212972064
08-03,-0.22999954223632812,-1.5699996948242045,-1.6199989318847656,0.29999923706053977,0.3400001525878906,1.7599983215332102,2.590003967285142,-1.4599990844726562,1.3000030517578125,-2.7600021362304688,2.0099945068359375,-0.17000579833985796,6.0,6.0,08-18,0.04083283742268762
08-04,-1.1599998474121094,-0.9599990844726562,0.3300018310546946,0.3800010681152344,-0.770000457763679,1.9199981689453196,2.1599960327148295,-0.9899978637695312,1.19000244140625,-2.8700027465820312,1.25,-0.37000274658204546,6.0,6.0,08-19,0.009166399637856296
08-05,-0.6500015258788991,-1.1000022888183594,0.029998779296875,0.6800003051757812,-0.6800003051757884,2.709999084472649,1.0200042724609375,-0.7999954223632812,0.8100051879882812,-2.5400009155273438,3.1699981689453125,-0.48000335693360796,6.0,6.0,08-20,0.18083349863687972
08-06,0.13000106811523438,-1.220001220703125,2.5100021362304688,0.6399993896484446,-0.22999954223633523,2.609996795654297,0.7399978637695312,-0.37999725341796875,-0.6100006103515625,-1.4499969482421733,0.5,0.02999877929686079,7.0,5.0,08-21,0.27250003814697266
08-07,-0.09999847412109375,-1.220001220703125,0.8600006103515696,0.5200004577636719,-0.15999984741210938,2.1699981689453125,0.31999969482421875,0.660003662109375,-0.589996337890625,-0.6900024414062358,-2.7800064086914205,-1.5599975585937642,5.0,7.0,08-22,-0.21416664123535215
08-08,0.220001220703125,-1.8699989318847656,1.4000015258789062,0.45000076293946023,-1.4399986267089915,1.3899993896484375,-0.80999755859375,0.6100006103515625,-1.25,0.3300018310546875,-3.540000915527358,0.6900024414062358,7.0,5.0,08-23,-0.3183323542277042
08-09,0.29000091552734375,-1.7099990844726562,-0.8000030517578196,1.0099983215332031,-1.2199974060058736,1.5900001525878906,-1.8499984741210938,1.1199951171875,-0.3600006103515625,-0.720001220703125,-1.75,0.5500030517577983,5.0,7.0,08-24,-0.3208335240681996
08-10,0.6300010681152344,-1.5100021362304688,2.420001983642578,0.9500007629394531,-1.319999694824233,1.7700004577636719,-2.30999755859375,1.1199951171875,0.09999847412109375,0.8000030517578267,-0.7099990844726562,0.8000030517577983,8.0,4.0,08-25,0.22833379109700402
08-11,-0.020000457763671875,-0.8799972534179759,0.9200019836425781,0.8600006103515625,-0.6300010681152415,1.4599990844726634,-3.029998779296889,1.4800033569335938,-0.529998779296875,1.779998779296875,0.5,2.3700027465820455,7.0,5.0,08-26,0.35666751861572205
08-12,-0.21999740600585938,-0.9099998474121094,0.470001220703125,0.5400009155273438,-0.3800010681152415,1.3700027465820384,-3.2399978637695455,2.0,-1.3000030517578125,1.5100021362304688,0.2200012207031392,0.04000091552732954,7.0,5.0,08-27,0.008334159851073034
08-13,-0.8000030517578196,-0.779998779296875,-0.14999771118164062,0.8400001525878906,-0.279998779296875,0.8499984741210938,-2.319999694824233,2.0800018310546875,-1.8300018310546875,2.400001525878892,-0.23000335693360796,0.0800018310546875,5.0,7.0,08-28,-0.011666615804040603
08-14,-0.28000259399414773,-0.799999237060554,-1.05999755859375,0.539997100830071,-1.5600013732910227,0.8600006103515625,-3.160003662109375,2.5699996948242188,-0.5200042724609375,2.55999755859375,2.410003662109375,0.11000061035157671,6.0,6.0,08-29,0.13916587829589724
08-15,0.43999862670897727,-0.9199981689453196,0.0800018310546875,0.6199989318847656,-0.3899993896484304,0.7000007629394531,-3.3799972534179545,2.970001220703125,-0.8899993896484375,2.5500030517578125,3.529998779296875,0.34999847412109375,8.0,4.0,08-30,0.47166728973388733
08-16,0.3600006103515625,0.1399993896484304,2.1300010681152344,0.2599983215332031,-0.479999542236321,0.31999969482421875,-2.4299926757812216,3.6199951171875,-1.5500030517578125,3.029998779296889,1.6100006103515625,1.8000030517577983,9.0,3.0,08-31,0.734166781107587
08-17,0.04000091552734375,-1.6499977111816406,2.540000915527351,0.29999923706053977,-0.43000030517577414,0.31999969482421875,-2.3799972534179545,2.9000015258789062,0.8400039672851562,1.9399948120117188,1.6399993896484375,-0.12000274658204546,8.0,4.0,09-01,0.4950002034505214
08-18,-0.5099983215332102,-0.8999977111816406,4.360000610351555,0.34999847412109375,-0.43000030517577414,0.3399963378906108,-2.470001220703125,1.1500015258789062,0.8199996948242188,1.8399963378906392,1.6399993896484375,0.510002136230483,8.0,4.0,09-02,0.5583330790201829
08-19,-1.0800018310546804,0.8599967956542969,3.8199996948242188,0.34999847412109375,-0.030002593994140625,0.02000427246092329,-3.30999755859375,1.2000045776367188,1.4800033569335938,1.8399963378906392,1.4700012207031108,1.8099975585937642,9.0,3.0,09-03,0.7025000254313157
08-20,-1.3100013732910156,0.6999969482421875,3.790000915527351,-0.09999847412108664,-0.5299987792968679,0.7900009155273438,-1.5899963378906108,0.8800048828125,1.4800033569335938,1.8399963378906392,3.3400039672851705,4.709999084472685,8.0,4.0,09-04,1.1666676203409907
08-21,-1.6500015258789062,1.0900001525878906,3.790000915527351,0.2800025939941264,-0.5300025939941264,0.23999786376953125,-1.1299972534179545,0.8800048828125,2.1200027465820312,1.4199981689453125,0.31999969482421875,4.459999084472685,9.0,3.0,09-05,0.9408337275187216
08-22,-1.5200004577636719,1.0900001525878906,2.510002136230476,0.15999984741210938,-0.9700012207031179,0.5499992370605398,0.3300018310547159,0.8700027465820312,1.7599945068359375,3.1999969482421733,1.400001525878892,3.1500015258789205,10.0,2.0,09-06,1.044166564941408
08-23,-1.5200004577636719,1.5400009155273438,0.15999984741210938,0.09000015258789062,-1.220001220703118,0.4499969482421804,0.3300018310547159,1.82000732421875,1.6399993896484375,5.269996643066406,1.6800003051757528,3.1500015258789205,10.0,2.0,09-07,1.1158336003621432
08-24,-1.3600006103515554,2.859996795654297,-0.7099990844726491,-0.20999908447265625,-1.450000762939446,1.0199966430663991,1.2299957275390767,1.8799972534179688,1.7699966430664062,4.379997253417983,0.9500045776367188,0.05999755859375,8.0,4.0,09-08,0.868331909179691
08-25,-1.190002441406243,2.5100021362304688,1.1499977111816406,0.10000228881835938,-1.5799980163574219,1.4799957275390554,1.7299957275390483,2.220001220703125,0.45999908447265625,3.6399993896484375,0.20999908447268467,0.5900039672851705,10.0,2.0,09-09,0.9433329900105818
08-26,-0.21999740600585938,2.9199981689453196,0.009998321533203125,0.29000091552734375,-1.5600013732910156,0.75,1.3099975585937358,1.8199996948242188,0.9899978637695312,4.409996032714858,-0.1100006103515625,-2.5400009155273295,8.0,4.0,09-10,0.6724990208943703
08-27,0.07999801635741477,1.8600006103515696,-1.6000022888183594,0.9800033569335938,0.40000152587889914,-0.11999893188477273,0.1199951171875,1.5100021362304688,1.75,3.3600006103515625,-2.4000015258789062,-2.160003662109361,8.0,4.0,09-11,0.3149995803833008
08-28,0.3999977111816335,2.879997253417976,-1.2600021362304688,0.13000106811523438,0.6800003051757741,-0.4799957275390483,0.06999969482423296,0.43000030517578125,1.9599990844726562,4.669998168945327,-2.75,-0.23999786376951704,8.0,4.0,09-12,0.5408331553141318
08-29,0.789997100830071,2.9899978637695312,-2.029998779296875,0.27000045776366477,0.2999992370605469,-0.6100006103515483,0.4199981689453267,-1.3199996948242188,3.1200027465820312,3.8199996948242045,-3.0600051879882812,-0.5,7.0,5.0,09-13,0.3491659164428711
08-30,0.8899993896484375,3.0199966430664062,-2.4300003051757955,0.80999755859375,0.6999969482421804,-1.0,-0.4499969482421733,-0.18000030517578125,2.2299957275390625,4.690002441406236,-3.5900039672851705,-1.1999969482422017,6.0,6.0,09-14,0.29083251953124584
08-31,1.0999984741210938,3.029998779296875,-1.9799995422363281,0.629997253417983,1.1399993896484304,-0.75,0.04000091552732954,-0.44000244140625,0.8899993896484375,4.680000305175781,-1.0200042724609517,-0.029998779296875,7.0,5.0,09-15,0.6074991226196271
09-01,1.7600021362304616,2.200000762939453,0.029998779296875,0.2799987792968821,0.7800025939941264,-1.8400001525878906,0.9199981689452983,-0.5999984741210938,0.6200027465820312,3.010002136230483,-1.599998474121108,-0.4199981689453125,8.0,4.0,09-16,0.42833423614501714
09-02,2.8199996948242188,2.510002136230476,1.2399978637695312,1.1399993896484375,0.6399993896484304,-1.7800025939941406,1.9300003051757812,-1.7900009155273438,1.25,4.440002441406264,-1.25,-3.9300003051757955,8.0,4.0,09-17,0.6016664505004883
09-03,2.970001220703118,1.8700027465820384,1.6699981689453054,1.4599990844726562,1.950000762939446,-1.5799980163574219,1.660003662109375,-2.089996337890625,1.6200027465820312,5.5900039672851705,-3.1699981689453125,-1.4000015258789062,8.0,4.0,09-18,0.8791681925455729
09-04,2.8100013732910085,2.1399993896484446,2.0900001525878764,1.4000015258788991,0.8899993896484304,-3.2499961853027344,1.7700042724609517,-1.55999755859375,1.4599990844726562,4.920005798339844,-4.930000305175753,-0.9500045776367188,8.0,4.0,09-19,0.5658343633015962
09-05,2.1599998474121165,2.0699996948242116,1.6699981689453054,1.4899978637695312,1.7299995422363352,-3.7099952697753906,1.0200042724609517,-1.8600006103515625,2.19000244140625,3.4099960327148438,-2.8999938964844034,1.709999084472642,9.0,3.0,09-20,0.748333930969236
09-06,1.9899978637695312,1.6899986267089844,0.9599990844726491,1.6100006103515625,1.710002899169929,-3.2199974060058594,0.40000152587892046,-0.8499984741210938,2.7099990844726562,2.180000305175753,-2.5799942016601562,-0.09999847412110796,8.0,4.0,09-21,0.5416676203409807
09-07,1.750000000000007,1.7099990844726562,-0.37999725341797586,0.9199981689453125,1.069999694824233,-3.1100006103515625,-0.8699951171875,-1.5699996948242188,2.5100021362304688,3.2299957275390483,-0.7999954223632955,-1.0199966430664205,6.0,6.0,09-22,0.28666750590006274
09-08,2.000000000000007,0.8199996948242045,-2.1699981689453125,1.2999992370605469,0.9599990844726634,-3.549999237060547,-0.3899993896484233,-0.7900009155273438,2.3000030517578125,2.5699996948241903,-1.25,-2.6100006103515625,6.0,6.0,09-23,-0.06749979654948035
09-09,1.9300003051757884,0.470001220703125,-1.4000015258789062,1.5699996948242188,1.0900001525878977,-2.680000305175774,-1.040000915527358,0.9599990844726562,1.0,1.9300003051757528,-1.0499954223632955,-3.55999755859375,7.0,5.0,09-24,-0.06499958038330374
09-10,2.0900001525878906,0.44000244140625,-1.200000762939446,1.55999755859375,0.9099998474121023,-2.6000022888183665,-0.23000335693360796,-0.09000396728515625,1.029998779296875,1.7600021362304545,-1.0100021362304688,-5.050003051757798,6.0,6.0,09-25,-0.19916788736979343
09-11,1.8800010681152344,-0.22999954223632812,-2.0800018310546804,1.4600028991699219,0.9000015258789062,-2.7900009155273438,-0.7200012207031108,0.9499969482421875,0.5999984741210938,1.8600006103515483,-0.11999511718747158,-6.220001220703125,6.0,6.0,09-26,-0.3758331934610973
09-12,1.4599990844726562,-0.5400009155273438,-1.7299995422363281,0.7100028991699148,1.109996795654304,-1.7000007629394531,-0.04000091552732954,0.279998779296875,1.5600051879882812,-0.6299972534179545,1.0699996948242472,-6.94000244140625,6.0,6.0,09-27,-0.4491666158040317
09-13,0.9099998474121094,0.15000152587890625,-1.4900016784667969,-0.32999801635741477,1.25,-1.7599983215332031,-1.1200027465820028,0.5199966430664062,2.25,-2.220001220703125,0.7200012207031392,-6.8199996948242045,6.0,6.0,09-28,-0.6616668701171822
09-14,0.479999542236321,-0.3600006103515625,-1.6100006103515554,-0.6499977111816335,-0.060001373291015625,-1.9199981689453125,-1.1900024414062216,0.3699951171875,1.6699981689453125,-3.3700027465820312,2.6399993896484517,-6.980003356933594,4.0,8.0,09-29,-0.9150012334187784
09-15,0.5499992370605469,-0.29000091552735086,-4.0,-0.5900001525878764,0.25,-1.3799972534179759,-4.260002136230497,0.7099990844726562,1.8300018310546875,-2.7000045776367045,2.4399948120117188,-5.970001220703125,5.0,7.0,09-30,-1.11750094095866
09-16,0.27000045776366477,-0.09000015258787641,-3.579998016357429,-0.7800025939941264,-0.6699981689453196,-0.8400001525878906,-4.099998474121094,1.0100021362304688,1.0999984741210938,-2.9600067138671733,2.1899948120117188,-5.149993896484361,4.0,8.0,10-01,-1.1333335240681937
09-17,0.42000198364258523,0.29000091552735086,-2.8699989318847727,-0.6900024414062429,0.6200027465820241,-0.7900009155273438,-2.4599990844726562,0.0,1.6399993896484375,-3.5600051879882812,1.4399948120117188,-2.7600021362304545,5.0,7.0,10-02,-0.7266674041748029
09-18,0.6599998474121094,0.270000457763679,-2.0499992370605398,-0.3599967956542969,0.8699989318847585,-2.3400001525878906,-1.1900024414062358,-1.4000015258789062,0.8699951171875,-3.8199996948242188,-0.6300048828124858,-1.840003967285142,4.0,8.0,10-03,-0.9133345286051391
09-19,0.4099998474121094,0.37999725341796875,-3.8500022888183594,-0.5400009155273366,0.1699981689453196,-1.9000015258789062,-1.6699981689453125,-1.1999969482421875,2.3199996948242188,-2.9799957275390483,-2.5,-0.25,4.0,8.0,10-04,-0.9675000508626278
09-20,-0.5300025939941406,-0.010002136230461645,-5.3400001525878835,-0.6500015258788991,0.03999710083008523,-1.94000244140625,-0.3899993896484375,-1.3600006103515625,2.30999755859375,-2.489997863769517,-2.7000045776367045,0.25,3.0,9.0,10-05,-1.0675013860066684
09-21,-0.8300018310546804,0.7000007629394602,-2.029998779296875,-0.6399993896484304,-0.12000274658201704,-1.8699989318847656,0.3500061035156392,-2.3199996948242188,1.9899978637695312,-2.3199996948242188,-2.75,-0.599998474121108,3.0,9.0,10-06,-0.8699995676676403
09-22,-0.3899993896484375,1.9899978637695241,-0.1399993896484375,-0.620002746582017,-0.670001983642571,-1.0900001525878906,1.670005798339858,-3.3499984741210938,2.4199981689453125,-2.3799972534179545,-3.1100006103515767,0.2200012207031108,4.0,8.0,10-07,-0.45416641235351446
09-23,-0.529998779296875,2.270000457763672,-0.49000167846678977,-0.3400001525878764,-0.2700004577636719,-0.7099990844726491,1.0,-2.6800003051757812,1.3799972534179688,-3.2900009155273295,-0.7699966430664062,2.4199981689453267,4.0,8.0,10-08,-0.167500178019201
09-24,0.2599983215332031,1.5799980163574219,-1.3499984741210938,-0.0800018310546804,-0.15000152587890625,-2.049999237060547,3.0800018310546733,-1.9499969482421875,1.3799972534179688,-3.209999084472642,-1.9500045776367188,2.720001220703111,5.0,7.0,10-09,-0.14333375295003314
09-25,0.6899986267089915,1.8100013732910156,-0.529998779296875,0.4199981689453125,-0.15999984741210938,-0.9200019836425781,3.150001525878892,-1.4199981689453125,1.8199996948242188,-1.0900039672851705,-4.3400039672851705,2.8800048828125,6.0,6.0,10-10,0.19249979654947622
09-26,-0.279998779296875,1.5600013732910156,-1.05999755859375,-0.13000106811524148,-0.7999992370605469,-1.4600028991699148,4.529998779296889,-2.4199981689453125,1.7099990844726562,-2.8799972534179688,-2.4399948120117188,2.6200027465820312,4.0,8.0,10-11,-0.08749898274739465
09-27,-0.009998321533203125,1.8400001525878835,-0.37999725341797586,-0.43000030517579546,0.11999893188477273,-1.8300018310546875,5.479995727539077,-1.7900009155273438,1.9300003051757812,-5.9199981689453125,-2.1899948120117188,4.159996032714844,5.0,7.0,10-12,0.08166662851969342
09-28,0.6300010681152344,1.3100013732910156,2.029998779296882,-0.520000457763679,-0.3600006103515554,-3.1899986267089773,6.110000610351577,-3.5400009155273438,1.279998779296875,-5.3199996948242045,-1.969993591308608,4.449996948242202,6.0,6.0,10-13,0.07583363850911813
09-29,0.5699996948242259,1.1299972534179545,2.239997863769524,-0.5500030517578196,0.799999237060554,-4.25,5.629997253417969,-1.5499954223632812,2.0500030517578125,-5.349998474121094,-2.1399993896484375,5.419998168945298,7.0,5.0,10-14,0.33333301544189214
09-30,0.6800003051757812,1.4000015258789062,4.040000915527344,-0.470001220703125,1.3199996948242259,-4.520000457763672,4.200004577636733,-1.75,0.48000335693359375,-6.1999969482421875,-2.119995117187514,4.3600006103515625,7.0,5.0,10-15,0.11833477020263732
10-01,2.470001220703125,1.7900009155273366,5.9199981689453125,-0.5100021362304688,0.8299980163574219,-2.8699989318847656,2.4300003051757812,-1.6999969482421875,0.6100006103515625,-6.1199951171875,-1.8199996948242188,2.740005493164034,7.0,5.0,10-16,0.31416765848795275
10-02,2.7700004577636648,1.6800003051757812,5.450000762939453,-0.4199981689453196,0.9600028991699148,-2.69000244140625,1.6899948120117045,-1.7700042724609375,0.9599990844726562,-6.0,-0.1699981689453125,3.590003967285142,7.0,5.0,10-17,0.5041666030883748
10-03,2.1800003051757812,1.6000022888183594,5.849998474121094,0.0800018310546804,1.920001983642571,-3.470001220703125,1.2599945068359233,-1.3300018310546875,0.5100021362304688,-2.4000015258789062,0.48000335693360796,1.8899993896484375,9.0,3.0,10-18,0.7141666412353503
10-04,0.9900016784667969,1.3699989318847656,2.8499984741210938,0.6899986267089773,1.5200004577636719,-3.5900001525878906,1.2799987792968608,0.09999847412109375,0.8400039672851562,-2.0699996948242188,-1.8600006103515625,1.7899932861328267,9.0,3.0,10-19,0.3258326848347976
10-05,0.7800025939941406,0.39000320434571023,2.9099998474121094,0.43000030517578125,1.390003204345696,-2.579998016357429,1.4299926757812216,0.279998779296875,0.45999908447265625,-2.1500015258789062,-1.0899963378906392,1.7999954223632955,9.0,3.0,10-20,0.3374999364217093
10-06,0.6999969482421946,-0.029998779296882105,1.029998779296875,0.5900001525878906,2.490001678466797,-1.529998779296875,2.30999755859375,-0.15999603271484375,0.01999664306640625,-2.6500015258789062,-0.009994506835965922,0.590003967285142,7.0,5.0,10-21,0.2791671752929652
10-07,0.0,1.2299995422363281,1.55999755859375,0.3300018310546875,2.930000305175774,1.0900001525878906,1.80999755859375,0.8400039672851562,0.1399993896484375,-3.4000015258789062,1.2200012207031108,1.9799957275390625,10.0,2.0,10-22,0.8108329772949201
10-08,-0.7200012207031179,0.9500007629394602,0.26999664306640625,-0.06999969482421875,3.450000762939453,1.3300018310546875,0.2400054931640625,0.5300064086914062,0.18000030517578125,-3.3499984741210938,3.1200027465820312,1.2200012207031108,9.0,3.0,10-23,0.5958347320556641
10-09,-1.3600006103515554,0.6499977111816406,0.7099990844726562,0.9000015258789062,4.469997406005859,2.029998779296868,-0.3899993896484375,0.0200042724609375,0.7399978637695312,-1.75,0.18000030517578125,0.9300003051757528,9.0,3.0,10-24,0.5941664377848284
10-10,-1.3300018310546804,-1.7400016784667969,1.25,0.520000457763679,2.4199981689453125,3.0900001525878906,-0.6999969482421875,1.2100067138671875,0.55999755859375,1.2600021362304688,1.0600051879882812,-0.3000030517578267,8.0,4.0,10-25,0.6083339055379232
10-11,-0.7800025939941406,-1.69000244140625,1.9000015258789062,0.14999771118164062,1.8999977111816406,4.409999847412109,0.720001220703125,1.9300003051757812,0.7600021362304688,-1.4899978637695312,1.040000915527358,0.26999664306642046,9.0,3.0,10-26,0.7599995930989607
10-12,-0.9900016784667969,-1.4399986267089773,-0.3600006103515625,0.18999862670898438,1.4300003051757812,5.599998474121101,0.8300018310546875,1.339996337890625,0.0,-1.5699996948242188,1.5200042724609517,0.30999755859375,7.0,5.0,10-27,0.5716663996378605
10-13,-1.1200027465820312,-1.9300003051757812,0.7099990844726562,-0.030002593994140625,1.6400032043457102,5.739997863769531,1.1399993896484233,0.6800003051757812,-0.34999847412109375,-2.0699996948242188,1.4899978637695312,-0.09999847412110796,6.0,6.0,10-28,0.483332951863605
10-14,-2.6199989318847656,-1.8200035095214844,0.3100013732910156,-0.030002593994140625,2.3600006103515767,3.9799995422363352,1.279998779296875,0.23999786376953125,-0.45000457763671875,-0.8600006103515625,2.029998779296861,-0.7900009155273295,6.0,6.0,10-29,0.30249881744384943
10-15,-2.270000457763672,-1.5900001525878906,1.4500007629394531,-0.030002593994140625,2.9299964904785156,4.6100006103515625,2.1599960327148438,0.06999969482421875,0.0,-1.7900009155273438,3.0199966430664205,-4.0,6.0,6.0,10-30,0.37999884287516394
10-16,-2.0600013732910156,-1.660003662109375,1.7700004577636719,-0.8100013732910156,2.3600006103515696,3.379997253417983,2.010002136230483,0.0800018310546875,-1.0100021362304688,-5.439994812011719,3.040000915527358,-4.010002136230469,6.0,6.0,10-31,-0.19583352406819246
10-17,-2.099998474121101,-1.6000022888183594,1.6300010681152273,-1.3499984741211009,0.8100013732910227,2.329998016357429,1.8600006103515625,-3.1800003051757812,-2.5200042724609375,-3.649993896484361,2.6999969482422017,-2.8100051879882812,5.0,7.0,11-01,-0.6566670735677066
10-18,-1.7899971008300852,-1.9500007629394602,-0.5999984741210866,-1.4600028991699148,0.37000274658204546,0.9899978637695384,2.3499984741210938,-4.9499969482421875,-1.529998779296875,-2.30999755859375,1.470001220703125,-2.2099990844726705,4.0,8.0,11-02,-0.9683326085408522
10-19,-2.2199974060058665,-1.5699996948242116,-1.30999755859375,-1.0600013732910085,0.010002136230475855,1.6699981689453125,3.5699996948242188,-5.8600006103515625,-1.2299957275390625,-2.3600006103515625,1.3499984741210938,-1.0600051879882812,4.0,8.0,11-03,-0.8391666412353503
10-20,-2.1399993896484375,-2.479999542236328,-0.7099990844726562,-1.3000030517578054,0.6100044250488423,2.200000762939453,5.230003356933594,-5.0500030517578125,-1.7899932861328125,-2.0100021362304688,0.25,1.2300033569335795,5.0,7.0,11-04,-0.49666563669840436
10-21,-1.4199981689453196,0.06000137329102273,-1.25,0.5499992370605398,0.3400001525878906,0.4799995422363281,4.8899993896484375,-6.2400054931640625,-1.6199951171875,-0.7900009155273438,-7.1100006103515625,1.8199996948242472,6.0,6.0,11-05,-0.8575000762939435
10-22,-2.1499977111816406,0.010002136230475855,-2.3400001525878906,-3.0900001525878906,-0.15999603271484375,1.720001220703132,1.94000244140625,-6.0800018310546875,-2.4300003051757812,-0.1699981689453267,-7.9900054931640625,0.7400054931640341,4.0,8.0,11-06,-1.6666657129923526
10-23,-1.9399986267089844,-0.18999862670897727,-0.720001220703125,-2.0400009155273438,0.43000030517578836,1.8600006103515554,1.8300018310546875,-6.129997253417969,-2.089996337890625,-1.8000030517578267,-8.70999908447267,0.7000045776367045,4.0,8.0,11-07,-1.5666656494140654
10-24,-1.8999977111816406,0.9700012207031321,-0.8200035095214844,-1.2599983215332031,0.8100013732910085,1.720001220703125,1.9300003051757812,-5.589996337890625,-3.2700042724609375,4.019996643066406,-7.849998474121108,1.590003967285142,6.0,6.0,11-08,-0.804166158040367
10-25,-1.2599983215332031,1.1699981689453125,0.15999984741210938,-2.3800010681152344,0.09000396728514204,3.2700004577636648,2.149993896484375,-2.6699981689453125,-2.7699966430664062,3.8199996948242188,-8.389999389648438,5.450004577636719,7.0,5.0,11-09,-0.11333274841308771
10-26,-1.4799995422363281,1.2000007629394531,-0.5400009155273438,-2.7300033569335866,0.20000457763671875,3.430000305175774,1.9599990844726562,-0.529998779296875,-3.2099990844726562,4.75,-8.709999084472685,6.1399993896484375,6.0,6.0,11-10,0.040000279744463775
10-27,-0.24000167846678977,1.1200027465820312,-2.0900001525878906,-2.3600006103515696,-0.7599983215332031,4.399997711181619,1.5,-1.1699981689453125,-2.1999969482421875,4.9499969482421875,-8.799995422363295,7.519996643066406,5.0,7.0,11-11,0.1558335622151663
10-28,0.5200004577636719,1.6100006103515625,-1.950000762939446,-3.0099983215332102,0.0800018310546875,4.3000030517578125,1.19000244140625,2.0900039672851562,-0.7299957275390625,4.9699935913085795,-9.199996948242202,15.270004272460938,8.0,4.0,11-12,1.261668205261228
10-29,0.21999740600585938,1.9599990844726634,-0.7900009155273509,-3.2599983215332102,0.709999084472642,4.230003356933587,0.720001220703125,3.6699981689453125,-1.6999969482421875,4.129997253417969,-9.930000305175795,14.669998168945327,8.0,4.0,11-13,1.2191664377848284
10-30,0.6499977111816406,2.029998779296875,-0.4700012207031321,-3.3899993896484446,0.8400001525878693,3.4599990844726562,-0.5,-0.01000213623046875,-1.5499954223632812,0.3999938964843608,-11.029998779296875,13.520004272460938,6.0,6.0,11-14,0.32916641235351146
10-31,1.029998779296875,1.809997558593757,0.6299972534179616,-4.129997253417983,0.9299926757812216,2.9299964904785156,-2.660003662109375,0.40999603271484375,-1.4800033569335938,0.4199981689452983,-8.52999877929686,9.419998168945327,8.0,4.0,11-15,0.0649976730346656
11-01,0.6699981689453125,1.1999969482421875,1.9799995422363281,-7.0900001525878835,1.1999969482421733,3.4399986267089844,-4.9199981689453125,2.8899993896484375,-1.8000030517578125,-1.0999984741210938,-1.1699981689452983,9.419998168945327,7.0,5.0,11-16,0.3933324813842791
11-02,1.0699996948242188,1.1199989318847727,1.3499984741210938,-3.450000762939453,1.0099945068359233,3.2199974060058594,-4.200004577636719,2.4599990844726562,-1.1199951171875,-1.7200012207031108,0.950004577636733,9.419998168945327,8.0,4.0,11-17,0.8424990971883167
11-03,1.5099983215332031,0.22999954223632102,-0.47999954223633523,-3.6299972534179688,0.839996337890625,3.1000022888183594,-2.660003662109375,2.6999969482421875,-1.4599990844726562,0.20000457763673296,1.8000030517578125,8.050003051757798,8.0,4.0,11-18,0.8500003814697253
11-04,1.8899993896484375,-0.8700027465820384,-0.37999725341797586,-3.8699989318847656,0.8600006103515625,3.1700019836425852,-1.2600021362304688,2.1599960327148438,-0.3699951171875,2.910003662109389,1.2900009155273438,8.559997558593764,7.0,5.0,11-19,1.1741669972737647
11-05,0.9399986267089844,-1.0699996948242188,-0.12999725341797586,-3.4799995422363352,1.000000000000007,1.3499984741210938,-0.01999664306640625,-0.7600021362304688,0.26000213623046875,4.4000015258789205,1.67999267578125,4.6999969482421875,7.0,5.0,11-20,0.7391662597656256
11-06,1.1599998474121094,-0.9900016784667969,-0.7999992370605469,-3.220001220703132,0.01999664306640625,1.0300025939941406,0.1699981689453125,-0.75,-0.1999969482421875,1.0800018310546875,1.010002136230483,4.010002136230469,7.0,5.0,11-21,0.21000035603841205
11-07,0.5699996948242116,-0.8699989318847585,-0.479999542236321,-1.9799995422363352,0.4799995422363281,0.06000518798829546,0.9800033569335938,-0.6800003051757812,-0.25,0.06999969482421875,1.2999954223632955,4.44000244140625,7.0,5.0,11-22,0.3033339182535831
11-08,0.38000106811522727,-0.7599983215332031,-0.9599990844726562,-1.2999992370605398,-0.3600006103515625,-0.720001220703125,1.2300033569335938,-1.5,-0.26000213623046875,-0.8199996948241903,1.6999969482422017,4.44000244140625,4.0,8.0,11-23,0.08916695912679391
11-09,0.3100013732910085,-0.2700004577636719,0.2700004577636719,-1.0499992370605398,-0.8300018310546733,-0.8000030517578125,1.8400039672851562,-0.8700027465820312,1.779998779296875,0.01999664306642046,2.119995117187514,4.44000244140625,7.0,5.0,11-24,0.5799992879231807
11-10,0.7299995422363281,-0.8199996948242188,0.3300018310546875,-0.9199981689453054,-0.6200027465820028,-0.45000457763670454,0.80999755859375,4.05999755859375,1.6299972534179688,2.540000915527358,2.720001220703111,0.0,7.0,5.0,11-25,0.8341658910115601
11-11,0.720001220703125,-1.1699981689453196,-0.7699966430664062,-0.9399986267089844,-0.5200042724609233,0.07999420166014204,0.7900009155273438,3.6399993896484375,0.9500045776367188,1.7300033569335938,1.540000915527358,0.0,7.0,5.0,11-26,0.5041672388712571
11-12,0.9099998474121094,-0.55999755859375,-0.34999847412109375,-0.27000045776366477,-0.1600036621093608,0.1699981689452983,3.4799957275390625,1.9799957275390625,0.26000213623046875,2.1300048828125,2.7299957275390767,0.0,7.0,5.0,11-27,0.859999338785809
11-13,0.5099983215332031,-0.579998016357429,-1.2600021362304688,0.6399993896484446,-0.8499984741210795,0.31999969482420454,2.7600021362304688,2.5400009155273438,0.660003662109375,1.3100051879882812,1.3299942016601562,0.0,8.0,3.0,11-28,0.6150004069010416
11-14,-0.20000076293945312,0.44000244140625,-1.6700019836425781,1.270000457763679,-0.5499954223632812,0.43999481201170454,2.1800003051757812,2.55999755859375,1.1299972534179688,0.2200012207031108,2.089996337890639,0.0,8.0,3.0,11-29,0.6591660181681309
11-15,0.1100006103515625,0.31999969482421164,-0.43000030517578125,1.7800025939941406,-0.5699996948242188,-0.21000671386721592,2.7700042724609375,3.0900039672851562,1.4300003051757812,-0.7600021362304688,2.599998474121108,0.0,7.0,4.0,11-30,0.8441667556762678
11-16,-0.7999992370605469,0.5999984741210938,0.23999786376954546,1.3900032043457102,-0.40999603271485796,-0.1900024414062642,2.910003662109375,2.1100006103515625,1.4499969482421875,-2.25,2.220001220703139,0.0,7.0,4.0,12-01,0.6058336893717454
11-17,-0.7900009155273366,0.31999969482421875,3.0800018310546875,0.6400032043457102,0.1699981689452983,-0.23000335693360796,2.5100021362304688,-0.40000152587890625,1.9099960327148438,-1.1500015258789062,2.4900054931640625,0.0,7.0,4.0,12-02,0.712499936421711
11-18,-0.2899971008300781,1.3699989318847585,2.7600021362304616,0.8300018310546946,0.1399993896484233,0.11000061035157671,1.5400009155273438,-0.470001220703125,2.089996337890625,-1.3300018310546875,1.7800064086914205,0.0,8.0,3.0,12-03,0.7108338673909511
11-19,0.06000137329102273,1.2599983215332031,3.3400001525878906,0.7299995422363352,0.5800018310546733,0.5199966430664205,0.25,-1.05999755859375,2.94000244140625,-1.129997253417983,1.510002136230483,0.0,9.0,2.0,12-04,0.7500006357828788
11-20,0.13000106811524148,0.8199996948242188,3.1300010681152344,-0.02000045776367898,0.31999969482421875,1.6800003051757812,-0.3600006103515625,-0.15999603271484375,2.1299972534179688,-0.2599945068359659,2.0100021362304545,0.0,7.0,4.0,12-05,0.7850008010864222
11-21,-0.20999908447264914,1.4899978637695312,3.5,0.13000106811523438,-0.28999710083008523,1.3300018310546733,0.0800018310546875,0.1100006103515625,1.5199966430664062,0.9599990844726562,0.4799957275390767,0.0,9.0,2.0,12-06,0.7583332061767578
11-22,-0.6199989318847656,2.2000007629394602,3.4199981689453125,-0.36999893188477273,-0.38999557495116477,1.0900039672851705,-0.3899993896484375,-2.1100006103515625,3.1500015258789062,-0.9599990844726705,1.6599960327148295,0.0,5.0,6.0,12-07,0.5566673278808588
11-23,-0.15000152587889914,2.0699996948242188,3.7900009155273438,-0.36999893188477273,-0.4299964904785085,1.230003356933608,0.5,-2.25,1.9199981689453125,-0.9599990844726705,0.8300018310546733,0.0,6.0,5.0,12-08,0.5150006612141921
11-24,0.13000106811523438,0.80999755859375,4.150001525878906,-0.5400009155273438,-0.15999603271484375,0.920005798339858,-0.05999755859375,-2.589996337890625,1.9199981689453125,-0.75,1.0,0.0,6.0,5.0,12-09,0.4025011062622082
11-25,-0.1399993896484375,0.3500022888183594,4.150001525878906,-0.1100006103515625,0.45000457763671875,0.6100006103515767,-1.2700042724609375,-2.589996337890625,1.4300003051757812,-2.0600051879882812,1.1300048828124858,0.0,6.0,5.0,12-10,0.16250069936116537
11-26,0.7999992370605469,0.3500022888183594,2.5,-0.09000015258789062,0.21999359130857954,0.970001220703125,-1.9300003051757812,-2.9899978637695312,1.6399993896484375,-3.9200057983398295,0.06999969482419033,0.0,7.0,4.0,12-11,-0.19833405812581617
11-27,0.7999992370605469,0.8100013732910156,1.7000007629394531,0.4699974060058594,-0.6699981689452983,0.1399993896484375,-1.9300003051757812,-2.2700042724609375,1.160003662109375,-3.190002441406236,-0.8899993896484517,0.0,6.0,5.0,12-12,-0.32250022888183477
11-28,0.5900001525878835,0.8600006103515625,2.5699996948242188,0.15999984741210938,-1.7099990844726562,0.1399993896484375,-1.4000015258789062,-1.720001220703125,0.3699951171875,-5.3600006103515625,0.4499969482421733,0.0,7.0,4.0,12-13,-0.4208342234293638
11-29,0.1900024414062429,1.1700019836425852,1.3199996948242045,-0.20000076293945312,-1.7099990844726562,0.29000091552732954,-1.0500030517578125,-1.0699996948242188,-1.1299972534179688,-3.9199981689453125,0.4499969482421733,0.0,5.0,6.0,12-14,-0.47166633605957387
11-30,0.46000289916991477,1.220001220703125,-1.1300010681152344,-0.09999847412109375,-1.7600021362304545,0.5800018310546733,-1.6200027465820312,1.19000244140625,-1.720001220703125,-4.120002746582017,0.5599975585937358,0.0,5.0,6.0,12-15,-0.536666870117188
12-01,0.22999954223632812,-0.0800018310546875,-1.5900001525878906,0.6199989318847656,-1.5699996948242116,-0.45999908447267046,-2.4199981689453125,-1.029998779296875,-0.9099960327148438,-4.529998779296875,2.1699981689452983,0.0,3.0,8.0,12-16,-0.7974996566772479
12-02,0.18999862670897727,-0.8499984741210938,-1.9599990844726562,0.25,-1.2700004577636577,-1.4899978637695455,-0.8700027465820312,-1.2999954223632812,-1.3699951171875,-4.1399993896484375,1.959999084472642,0.0,3.0,8.0,12-17,-0.9041659037272153
12-03,0.6899986267089844,-1.5600013732910227,-2.259998321533203,-0.030002593994140625,0.160003662109375,-2.6100006103515625,-0.01000213623046875,-0.32999420166015625,-1.6899948120117188,-4.120002746582031,1.6100006103515625,0.0,3.0,8.0,12-18,-0.8458328247070318
12-04,0.2200012207031179,-0.8600006103515625,-1.3199996948242188,0.29999923706053977,0.6599998474120881,-1.30999755859375,-0.9000015258789062,-0.4199981689453125,-1.0799942016601562,-4.300003051757798,1.5699996948242188,0.0,4.0,7.0,12-19,-0.619999567667645
12-05,0.1100006103515625,-0.1100006103515625,-0.06999969482421875,0.31000137329102273,1.0,-1.0,-0.7700042724609375,-0.4499969482421875,-2.4300003051757812,-3.6899948120117188,1.1300048828124858,0.0,4.0,7.0,12-20,-0.4974991480509446
12-06,-0.43000030517578125,-0.4099998474121094,-0.7000007629394531,0.3899993896484375,0.3899993896484375,-0.6199951171875,-1.9599990844726562,0.0,-1.589996337890625,-6.0400009155273295,1.0,0.0,3.0,8.0,12-21,-0.830832799275715
12-07,-0.7099990844726562,0.06999969482421164,1.529998779296868,0.3699989318847656,0.4900054931640767,0.7300033569335938,-3.1100006103515625,0.5,-2.0499954223632812,-4.180000305175781,0.45000457763673296,0.0,7.0,4.0,12-22,-0.49249871571858606
12-08,-0.490001678466804,0.7299995422363281,2.3600006103515696,0.29000091552733664,0.19000244140627842,1.25,-1.9399948120117188,-0.839996337890625,-1.5699996948242188,-3.5200042724609375,0.6300048828125284,0.0,6.0,5.0,12-23,-0.2424990336100219
12-09,-0.4099998474121094,0.6800003051757812,1.490001678466804,0.40999984741209516,0.7700042724609517,0.829994201660142,-0.7700042724609375,-1.3899993896484375,-0.9499969482421875,-4.0999984741210795,2.3300018310547017,0.0,6.0,5.0,12-24,-0.09249973297118963
12-10,-0.01000213623046875,0.3699989318847585,2.280002593994155,0.40999984741209516,1.0800018310546733,1.6999969482421733,-1.1200027465820312,-1.25,-0.9499969482421875,-4.0999984741210795,3.0199966430664205,0.0,6.0,5.0,12-25,0.11916637420654237
12-11,-0.2800025939941406,0.5400009155273438,2.280002593994155,0.01999664306640625,2.6399993896484517,1.7600021362304688,-0.5500030517578125,-1.25,-1.5199966430664062,-5.119995117187514,2.8000030517578267,0.0,6.0,5.0,12-26,0.11000061035156487
12-12,-0.24000167846679688,1.0699996948242188,2.25,0.4200019836425781,2.9899978637695384,2.8000030517578125,-0.2400054931640625,-1.5900039672851562,-0.529998779296875,-10.230003356933594,0.5500030517578125,0.0,6.0,5.0,12-27,-0.22916730244954367
12-13,-0.37000274658203125,0.9799995422363352,2.920001983642578,0.3400001525878906,2.6899986267089844,3.5800018310546875,0.9099960327148438,-0.7600021362304688,-1.3000030517578125,-8.550003051757812,0.7600021362304688,0.0,7.0,4.0,12-28,0.09999910990397194
12-14,-0.17000198364257102,1.3100013732910156,3.529998779296875,0.6200027465820312,2.0199966430664062,3.6999969482421875,0.75,1.1199951171875,-0.75,-8.569999694824219,0.410003662109375,0.0,8.0,3.0,12-29,0.33083279927571674
12-15,-0.2700004577636719,1.5099983215332031,1.9599990844726562,0.15999984741211648,2.4199981689453125,4.0,0.6500015258789062,0.7600021362304688,-1.3600006103515625,-6.870002746582031,0.5,0.0,8.0,3.0,12-30,0.28833293914794983
12-16,-0.3899993896484375,0.5900001525878906,0.7099990844726562,0.3899993896484446,2.3499984741210795,4.55999755859375,0.5900039672851562,0.7900009155273438,-0.9499969482421875,-6.269996643066392,0.6999969482421875,0.0,8.0,3.0,12-31,0.25583362579345764
12-17,0.15000152587890625,0.8899993896484375,1.8800010681152344,0.3899993896484446,2.25,3.1199951171875,1.779998779296875,-0.0800018310546875,-0.9499969482421875,-6.269996643066392,1.6699981689453125,0.0,8.0,3.0,01-01,0.4024998346964536
12-18,0.43000030517578125,0.6500015258789062,1.8800010681152344,-0.2200012207031321,2.4499969482422017,1.4899978637695455,2.9300003051757812,-0.0800018310546875,0.18000030517578125,-5.240005493164034,2.6800003051757955,0.0,8.0,3.0,01-02,0.5958325068155977
12-19,0.17000198364258523,0.4900016784667969,2.4800033569335938,-0.34999847412108664,3.029998779296861,0.9700012207031392,2.3799972534179688,-0.1100006103515625,-0.3000030517578125,-1.5199966430664062,2.3600006103515625,0.0,7.0,4.0,01-03,0.8000005086263032
12-20,0.13000106811524148,0.220001220703125,-0.02000045776366477,0.5699996948242259,2.4499969482421875,1.0100021362304972,1.9599990844726562,-0.5300064086914062,0.6800003051757812,-4.830001831054702,0.6600036621093892,0.0,8.0,3.0,01-04,0.19166628519694426
12-21,-0.4499969482421804,0.6899986267089915,0.05999755859375,1.0,1.959999084472642,-0.25,0.9899978637695312,-0.34000396728515625,1.4300003051757812,-3.370002746582017,0.25,0.0,7.0,4.0,01-05,0.16416581471761185
12-22,-0.05999755859375,-0.1399993896484375,0.20000076293946023,0.7699966430664062,1.2799987792968608,-0.43999481201171875,-0.2299957275390625,1.2100067138671875,1.2900009155273438,0.48000335693359375,-1.6900024414062642,0.0,6.0,5.0,01-06,0.2225014368693016
12-23,0.030002593994140625,0.030002593994126414,-0.19000244140625,0.9599990844726562,1.0,-2.840003967285142,-1.7900009155273438,0.6200027465820312,1.8000030517578125,-0.6100006103515625,-1.3300018310547017,0.0,6.0,5.0,01-07,-0.1933333079020194
12-24,0.38000106811522727,-0.1699981689453196,-0.13000106811523438,1.6299972534179759,0.1100006103515625,-3.6499977111816406,-2.1200027465820312,0.06000518798828125,0.6200027465820312,1.3700027465820312,-0.6800003051757955,0.0,6.0,5.0,01-08,-0.214999198913576
12-26,0.3600006103515625,-0.5999984741210866,-0.6700019836425781,4.180000305175788,1.4199981689453125,-3.5800018310546733,-2.529998779296875,-0.6699981689453125,1.80999755859375,1.75,-1.5999984741210938,0.0,5.0,6.0,01-10,-0.01083342234293383
12-27,0.3600006103515625,-0.6899986267089915,-0.7299995422363281,3.4099998474121094,1.4899978637695455,-4.0999984741210795,-3.9499969482421875,-0.48999786376953125,0.7699966430664062,1.1100006103515483,-1.7999954223632812,0.0,5.0,6.0,01-11,-0.3849992752075189
12-28,0.3899993896484446,-0.7299995422363352,0.060001373291015625,3.8400001525878906,0.680000305175767,-2.2699966430664062,-3.8300018310546875,-0.9000015258789062,-1.0800018310546875,0.780006408691392,-2.540000915527358,0.0,5.0,6.0,01-12,-0.4666662216186559
12-29,0.4500007629394531,-0.18000030517578125,-0.69000244140625,3.459999084472649,0.2200012207031108,-2.909996032714858,-4.220001220703125,-0.6500015258789062,-0.6100006103515625,-0.589996337890625,-1.099998474121108,0.0,3.0,8.0,01-13,-0.5683329900105836
12-30,0.5100021362304688,0.3600006103515625,-0.3699989318847656,3.159999847412095,0.5200042724609233,-2.7299957275390767,-3.7800064086914205,-0.40999603271484375,-1.3400039672851562,0.5100021362304688,0.02999877929686079,0.0,6.0,5.0,01-14,-0.29499944051107363
12-31,1.1499977111816406,0.6300010681152344,-0.47999954223633523,3.3199996948242116,-0.6800003051757812,-1.6699981689452983,-3.739997863769517,0.0200042724609375,-1.3400039672851562,0.660003662109375,0.5799942016601562,0.0,6.0,5.0,01-15,-0.1291666030883777
