,2009,2010,2011,2012,2013,2014,2015,2016,2017,2018,2019,2020,ups,downs,end_day_sum,avg
01-02,-3.5,-1.30999755859375,3.069999694824226,1.2150001525878835,0.7099990844726562,2.6699981689453125,-4.499999999999986,-5.510002136230469,1.8300018310547017,6.399993896484403,7.9799957275390625,2.5999984741210938,8.0,4.0,01-17,0.9712489446004279
01-03,-3.6399993896484375,-1.30999755859375,2.7550010681152344,0.7950019836425781,0.5950012207031321,2.9000015258789062,1.05999755859375,-5.510002136230469,1.8499984741210938,2.4599990844726562,8.699996948242188,1.75,9.0,3.0,01-18,1.0337498982747402
01-04,-3.6399993896484375,-1.1899986267089773,4.220001220703125,1.06500244140625,-0.21500015258787641,3.1699981689453125,1.05999755859375,-4.4199981689453125,1.8600006103515483,2.5800018310546733,4.75,-1.7000045776367188,7.0,5.0,01-19,0.628333409627278
01-05,-3.3250007629394602,-1.1399993896484304,5.2749977111816335,1.6100006103515696,-0.30999755859375,3.1699981689453125,-0.15000152587890625,-7.159996032714837,1.220001220703125,1.3600006103515625,4.1599960327148295,-1.7000045776367188,6.0,6.0,01-20,0.2508328755696609
01-06,-3.6950016021728516,-1.06500244140625,4.310001373291023,1.470001220703132,-0.30999755859375,3.0400009155273438,6.099998474121108,-6.340000152587891,0.19000244140625,0.8199996948242188,4.1599960327148295,-1.4200057983398438,7.0,5.0,01-21,0.6049993832906099
01-07,-3.969999313354492,-1.1100006103515554,3.590000152587905,1.6000022888183665,0.02000045776366477,1.0550003051757812,5.650001525878906,-5.219997406005859,2.3800048828125,1.5299987792968608,4.540000915527315,-3.9800033569335938,8.0,4.0,01-22,0.5070840517679832
01-08,-2.145000457763672,-1.3600006103515554,3.2450027465820384,1.4550018310546875,1.3250007629394531,1.2249984741210938,3.660003662109375,-5.279994964599595,2.1700057983398295,1.6600036621093892,5.530006408691392,-3.2999954223632812,8.0,4.0,01-23,0.6820859909057629
01-09,-0.6100006103515625,-0.904998779296875,3.2050018310546875,0.49500274658203125,0.9350013732910227,2.3600006103515625,3.0800018310546875,-3.4299964904785156,2.4500045776367188,5.1100006103515625,-2.3300018310546733,-5.160003662109375,7.0,5.0,01-24,0.4333343505859393
01-10,0.875,-0.7750015258789062,3.3850021362304688,0.04000091552734375,-0.6749992370605469,2.4550018310546875,6.029998779296875,0.0800018310546875,0.05999755859375,5.829994201660142,-2.5500030517578267,-3.1800003051757812,8.0,4.0,01-25,0.9645827611287411
01-11,0.07500076293944957,-2.0449981689453196,2.5,0.6900024414062429,-0.43999862670897727,4.129997253417969,5.849998474121094,2.3499984741210795,-1.2399978637695312,3.3300018310546875,-0.3000030517578267,-2.4300003051757812,7.0,5.0,01-26,1.039166768391924
01-12,1.5,-0.22499847412109375,0.69000244140625,1.4650001525879048,0.0449981689453125,2.8549957275390625,6.279998779296875,-1.3299980163574219,-1.4700012207031392,2.7700042724609233,-1.9400024414062642,-3.6899948120117188,7.0,5.0,01-27,0.5791670481363909
01-13,0.45999908447265625,-2.3100013732910085,2.2099990844726562,1.8849983215332102,0.16499710083008523,1.0349960327148438,7.2700042724609375,1.8600006103515767,-1.4899978637695312,5.0800018310546875,-1.270004272460966,-5.6699981689453125,8.0,4.0,01-28,0.7687495549519863
01-14,1.6350021362304759,-2.8050003051757812,0.8499984741210938,1.5449981689453196,0.3049964904785156,-3.25,5.260002136230469,0.80999755859375,-1.5800018310546875,4.059997558593764,0.5899963378906108,-9.69000244140625,8.0,4.0,01-29,-0.18916797637939334
01-15,2.970001220703132,-2.240001678466804,-0.29999923706053977,0.5149993896484375,-0.4500007629394531,-1.5699996948242188,1.5699996948242188,3.0999984741210866,-1.0900039672851562,4.3700027465820455,-0.48999786376953125,-9.689994812011719,5.0,7.0,01-30,-0.2754163742065418
01-16,3.114999771118164,-2.479999542236328,0.18500137329102273,0.20000076293946023,0.7849998474121094,-2.725006103515625,-2.2099990844726705,5.090000152587891,-2.5800018310546875,3.19000244140625,0.20000457763673296,-11.879997253417969,7.0,5.0,01-31,-0.7591662406921375
01-17,4.614999771118164,-2.9199981689453196,-0.17499923706053977,0.7949981689453196,0.14500045776367188,-2.1550064086914062,-1.2300033569335938,7.649997711181641,-4.280006408691392,1.6399993896484375,0.3999938964844034,-10.169998168945312,6.0,6.0,02-01,-0.47375186284382725
01-18,3.9200000762939453,-3.4650001525878906,1.7550010681152415,0.384998321533196,-0.2350006103515625,-2.2900009155273438,-0.4199981689453125,10.039997100830078,-3.8199996948242188,0.760002136230483,-1.6000061035155966,-8.900001525878906,5.0,7.0,02-02,-0.3225007057189906
01-19,3.519998550415032,-0.8999977111816477,2.969997406005845,0.4099998474121094,-0.09000015258789062,-1.5499954223632812,-0.3000030517578125,8.109996795654283,-4.190002441406236,0.6299972534179545,2.589996337890639,-8.220001220703125,6.0,6.0,02-03,0.2483321825663225
01-20,3.0049991607666087,0.34999847412109375,2.9399986267089915,1.3699989318847656,-0.7599983215332031,-1.9949951171875,3.1899948120117188,6.920001983642592,-4.470001220703125,-1.8199996948242188,2.339996337890639,-11.129997253417969,7.0,5.0,02-04,-0.005000273386633817
01-21,1.2849998474121094,0.30500030517578125,2.7599983215332102,0.15000152587890625,1.0500030517578125,-3.7449951171875,5.7699966430664205,6.44000244140625,-2.4599990844726562,-0.3000030517578125,1.9899978637695312,-12.669998168945312,8.0,4.0,02-05,0.047917048136395
01-22,2.430000305175785,1.5749969482421946,2.754997253417976,0.44000244140625,0.3950004577636719,-1.5699996948242188,4.830001831054673,4.170005798339858,-3.75,-3.9899978637695312,2.519996643066392,-9.469993591308594,8.0,4.0,02-06,0.027917544047038056
01-23,1.0050010681152344,1.1149978637695312,2.6599998474121023,1.7449989318847656,2.035003662109389,-0.839996337890625,4.400001525878892,8.60000228881836,-2.5199966430664205,-8.27999877929686,1.779998779296875,-4.779998779296875,8.0,4.0,02-07,0.5766677856445307
01-24,0.29000091552734375,-1.0349998474121094,2.5249977111816406,2.754997253417983,2.3400001525878835,0.9800033569335938,2.8600006103515483,6.850002288818359,-3.9800033569335795,-10.200004577636719,-1.0599975585937358,-2.7999954223632812,7.0,5.0,02-08,-0.039583206176756036
01-25,0.5449981689453054,-1.0550003051757812,2.8599967956542898,2.159999847412095,2.200000762939453,2.6949996948242188,3.8600006103515483,5.469997406005859,-6.7099990844726705,-11.669998168945327,-2.9199981689453125,0.410003662109375,8.0,4.0,02-09,-0.17958323160807885
01-26,0.2050018310546946,-0.779998779296875,1.2400016784667898,3.3349990844726562,2.7350006103515625,5.5749969482421875,3.4599990844726562,2.400001525878892,-6.25,-11.980003356933608,-1.9199981689453125,-0.7699966430664062,7.0,5.0,02-10,-0.22916634877523023
01-27,2.039997100830078,1.0750007629394531,0.34999847412109375,3.6499977111816335,2.785003662109375,7.1999969482421875,2.9499969482422017,-0.48000335693360796,-4.760002136230469,-10.800003051757812,-5.110000610351577,-2.2900009155273438,7.0,5.0,02-11,-0.28250153859456556
01-28,-1.779998779296882,-1.6350021362304545,0.7099990844726562,3.055000305175774,4.540000915527344,3.4899978637695312,7.160003662109389,-2.839996337890625,-3.059997558593764,-15.540000915527344,-5.599998474121094,-3.350006103515625,5.0,7.0,02-12,-1.2374998728434246
01-29,-2.104999542236328,-1.0900001525878835,-1.220001220703125,3.5699996948242116,3.1999969482421804,5.040000915527344,4.289993286132827,-5.2299957275390625,-1.3899993896484375,-16.51000213623047,-4.660003662109389,-0.34999847412109375,4.0,8.0,02-13,-1.3712507883707687
01-30,-1.7049980163574148,-3.6550025939941264,-1.075000762939446,3.2600021362304616,3.890003204345703,4.489997863769531,4.169998168945327,-3.299995422363267,0.24000549316403408,-12.029998779296875,-3.819999694824247,-0.44000244140625,5.0,7.0,02-14,-0.8312492370605474
01-31,-1.1899986267089915,-3.6550025939941264,-1.5449981689453196,3.6199989318847585,4.310001373291016,4.93499755859375,0.6800003051757955,-3.299995422363267,-1.2300033569335938,-12.529998779296875,-2.4499969482422017,2.4699935913085938,5.0,7.0,02-15,-0.8237501780192051
02-01,-1.1899986267089915,-2.245002746582017,-1.2399978637695241,3.924999237060547,2.5,6.68499755859375,0.6800003051757955,-3.529998779296861,0.23000335693359375,-9.759994506835923,-2.0999984741210938,4.0099945068359375,6.0,6.0,02-16,-0.16958300272623225
02-02,-1.3199996948242188,-3.0249977111816406,-1.8449974060058736,4.179996490478516,3.1550025939941406,6.68499755859375,2.280006408691392,0.5399932861327983,1.0400009155273438,-6.0699996948242045,-2.6299972534179545,4.0099945068359375,7.0,5.0,02-17,0.5833333333333321
02-03,-2.08499908447266,-2.1899986267089844,-2.0300025939941264,2.875,3.1550025939941406,6.864997863769531,0.6100006103515483,-2.3000030517578125,-0.1900024414062358,-2.7999954223632812,-2.6299972534179545,4.30999755859375,5.0,7.0,02-18,0.2991666793823263
02-04,-6.170000076293945,-0.020000457763671875,-1.8950004577636648,2.3899993896484304,3.020000457763672,4.19000244140625,1.2999954223632812,2.3799972534179688,1.0500030517577983,-2.7999954223632812,-2.4199981689452983,1.2999954223632812,7.0,5.0,02-19,0.19374990463256836
02-05,-6.234998703002919,0.0,-1.2999992370605398,2.3899993896484304,0.18499755859372158,6.214996337890625,-0.8800048828124716,3.7600021362304688,1.0500030517577983,-1.8699951171875284,1.9000015258789062,-2.5200042724609375,6.0,6.0,02-20,0.22458314895629616
02-06,-5.895002365112308,0.6399993896484375,-1.2999992370605398,3.7800025939941406,0.8649978637695312,2.8050003051757812,-0.48000335693357954,2.3899993896484375,0.4700012207031108,-0.6299972534179688,3.529998779296875,1.4099960327148438,8.0,4.0,02-21,0.6320827802022301
02-07,-7.059999465942386,1.3799972534179688,-0.68499755859375,1.6100006103515696,-1.19000244140625,1.1800003051757812,-0.6399993896484375,1.029998779296875,1.8399963378906392,2.1800003051757812,5.790000915527358,2.9300003051757812,8.0,4.0,02-22,0.6970829963684109
02-08,-7.459999084472663,1.529998779296875,2.0649986267089915,2.115001678466797,-2.9449996948242188,2.3300018310546875,-2.1499938964844034,1.279998779296875,1.3300018310546875,4.7699966430664205,6.279998779296875,3.5800018310546875,9.0,3.0,02-23,1.0604171752929676
02-09,-7.8149986267089915,-1.2150001525878906,2.1850013732910156,1.6050033569335938,-2.9749984741210938,2.9150009155273438,-4.869995117187514,6.6200027465820455,-2.279998779296889,5.7399978637695455,4.569999694824219,2.2900009155273438,7.0,5.0,02-24,0.564167976379394
02-10,-7.710000991821282,0.8350028991699148,5.075000762939446,1.9150009155273438,-4.649997711181641,1.9000015258789062,-3.3300018310547017,2.2299957275390483,-3.910003662109361,2.6699981689453267,1.1399993896484375,0.5100021362304688,8.0,4.0,02-25,-0.27708355585734107
02-11,-5.5149993896484375,0.8100013732910085,5.54499816894532,1.1400032043457102,-4.0,2.8349990844726705,-1.5899963378906392,3.959999084472642,-2.8199996948242188,3.9499969482421875,1.3199996948242188,-4.8799972534179545,7.0,5.0,02-26,0.06291707356770893
02-12,-6.034999847412113,0.8499984741210938,4.744998931884766,1.5600013732910227,-6.165004730224609,4.444999694824219,-1.7700042724609233,1.8199996948242045,-2.779998779296875,5.69000244140625,-0.8799972534179545,-8.389999389648438,6.0,6.0,02-27,-0.5758336385091131
02-13,-5.845001220703118,-0.06999969482421875,2.634998321533203,2.085002899169922,-5.0500030517578125,5.4850006103515625,-3.8899993896484375,1.6299972534179545,-4.0499954223632955,7.019996643066392,-2.839996337890625,-12.479999542236328,5.0,7.0,02-28,-1.2808332443237334
02-14,-2.1050014495849574,0.20000076293945312,3.424999237060547,0.9350013732910227,-3.2050018310546875,4.739997863769531,-3.459999084472642,0.6100006103515625,-3.3199996948242188,0.18000030517575283,-1.9199981689453125,-11.71999740600586,6.0,6.0,02-29,-1.303333123524984
02-15,-2.4150009155273473,0.6150016784667898,4.379997253417983,0.8850021362304688,-1.1350021362304545,3.2600021362304688,-6.3600006103515625,-0.3899993896484375,-3.760002136230483,-6.270004272460923,-5.209999084472656,-11.329998016357422,4.0,8.0,03-01,-2.310833613077798
02-16,-3.1000003814697266,0.9150009155273438,2.470001220703118,-1.8800010681152415,-2.2399978637695312,3.7750015258789062,-6.769996643066392,-3.1500015258789062,-0.11999511718751421,-6.220001220703125,-4.6699981689453125,-14.529998779296875,3.0,9.0,03-02,-2.959998925526938
02-17,-5.325000762939453,0.9850006103515625,2.2350006103515696,-0.24499893188476562,-2.8449974060058594,4.75,-7.430000305175767,-5.800003051757827,1.0200042724609233,-6.540000915527344,-5.709999084472656,-11.270000457763672,4.0,8.0,03-03,-3.0145829518636074
02-18,-4.2899990081787145,0.7400016784667969,-0.09999847412108664,-0.8950004577636719,-4.1999969482421875,4.68499755859375,-4.939994812011719,-2.4599990844726562,0.5800018310546733,-6.779998779296875,-3.2900009155273438,-11.669998168945312,3.0,9.0,03-04,-2.7183321317036957
02-19,-2.360000610351559,0.5900001525878906,0.18500137329102273,0.6300010681152344,-4.804996490478516,6.349998474121094,-3.3100051879882812,-2.7099990844726562,-1.0,-6.5100021362304545,-2.900001525878892,-14.849998474121094,4.0,8.0,03-05,-2.5575002034505174
02-20,-2.005001068115231,1.8549995422363281,1.3849983215332031,-0.875,-1.345001220703125,5.230003356933608,-0.5900039672851705,-5.209999084472656,-0.9000015258789062,-6.150001525878892,-3.279998779296875,-11.909996032714844,3.0,9.0,03-06,-1.9829168319702133
02-21,0.059999465942386365,1.5449981689453125,0.5299987792968679,-1.2250022888183594,0.779998779296875,6.2450027465820455,-1.4400024414062642,-2.9599990844726562,0.5999984741210938,-4.799995422363281,-3.409996032714858,-10.129997253417969,6.0,6.0,03-07,-1.183749675750734
02-22,0.43000030517578125,2.634998321533196,0.13000106811523438,-1.470001220703125,0.13000106811523438,5.045005798339844,-2.3400039672851562,-0.7999954223632812,2.0,-6.2199935913085795,-3.589996337890639,-5.830001831054702,6.0,6.0,03-08,-0.8233321507771828
02-23,0.5450000762939453,3.7299995422363352,-4.095001220703125,-1.6800003051757812,1.9150009155273438,5.330001831054673,-3.3600006103515625,7.450004577636733,-2.7399978637695312,-7.959999084472642,-2.809997558593764,-8.040004730224616,5.0,7.0,03-09,-0.9762495358784994
02-24,-1.4550018310546875,2.6850013732910085,-2.184997558593757,-2.2050018310546804,2.895000457763679,4.7600021362304545,-3.8899993896484375,1.040000915527358,-1.4700012207031108,-8.619995117187472,-3.4000015258789062,-14.610004425048842,4.0,8.0,03-10,-2.204583168029783
02-25,0.4400005340576101,2.80999755859375,-2.974998474121101,-1.240001678466804,3.4549980163574077,2.5250015258789062,-6.839996337890625,3.7600021362304688,-3.0800018310546875,-8.900001525878892,-8.30999755859375,-29.389999389648438,5.0,7.0,03-11,-3.9787497520446795
02-26,1.2950000762939489,2.3949966430664134,-3.254997253417983,-0.6049995422363352,2.5800018310546875,-0.4199981689453267,-3.579994201660142,4.760002136230469,-2.2100067138671733,-6.689994812011719,-7.650001525878906,-21.60000228881836,4.0,8.0,03-12,-2.914999485015869
02-27,1.9799995422363281,2.0949974060058594,-4.739997863769538,-0.31999969482422586,1.5800018310546875,-1.1699981689453267,-3.1699981689453125,7.5200042724609375,-3.1200027465820312,-6.2900009155273295,-8.05999755859375,-21.139999389648438,4.0,8.0,03-13,-2.902915954589845
02-28,4.204999923706055,1.5649986267089844,-3.329998016357429,-1.4399986267089844,2.085002899169922,-2.1449966430664205,-2.5099945068359375,7.529998779296875,-2.0400009155273153,-1.3699951171875142,-5.430000305175781,-24.39999771118164,4.0,8.0,03-14,-2.273331801096599
02-29,0.0,0.0,0.0,1.4949989318847656,0.0,0.0,0.0,10.44000244140625,0.0,0.0,0.0,-24.0,2.0,1.0,03-15,-1.0054165522257488
03-01,6.610000610351566,1.4650001525878906,-0.7000007629394531,-1.1150016784667969,3.44000244140625,-2.0799942016601705,-3.3499984741210938,9.760002136230483,-5.460006713867173,-1.2900009155273438,-7.849998474121094,-30.360000610351562,4.0,8.0,03-16,-2.5774997075398747
03-02,6.700000762939453,1.029998779296875,-1.625,0.3899993896484375,4.045001983642578,-3.1899948120117188,-3.6699981689453125,6.6100006103515625,-1.4100036621093608,-1.5599975585937642,-8.239997863769545,-28.06000137329101,5.0,7.0,03-17,-2.4149993260701503
03-03,6.739999771118168,0.3300018310546875,-3.2999992370605398,0.7400016784667969,5.020000457763672,-1.6599960327148438,-2.470001220703139,5.790000915527344,-1.5100021362304545,-1.9199981689453267,-7.119995117187514,-31.32999992370605,5.0,7.0,03-18,-2.557498931884767
03-04,6.0,0.30500030517578836,-2.4449996948242045,1.2150001525878835,4.314998626708984,-2.165000915527358,-3.6899948120117045,3.6299972534179688,-3.0100021362304545,-3.159996032714858,-7.9599990844726705,-33.19000244140625,5.0,7.0,03-19,-3.3462498982747397
03-05,5.084999084472656,-0.7849998474120952,-2.045001983642571,1.7900009155273438,2.114997863769517,-0.665000915527358,1.07000732421875,-0.43000030517578125,-4.239997863769531,-1.3600006103515625,-3.5800018310546875,-32.10999870300293,4.0,8.0,03-20,-2.929583072662354
03-06,4.969999313354492,-0.7800025939941406,0.049999237060546875,2.3349990844726562,0.8349990844726562,-1.7649993896484375,2.0900039672851562,1.029998779296875,-3.6399993896484375,-2.540000915527358,0.9399948120117188,-25.539999008178707,7.0,5.0,03-21,-1.8345839182535817
03-07,5.795000076293945,-2.0450019836425852,-0.3250007629394531,0.7849998474121094,-0.6599998474121094,-1.1949996948242188,2.94000244140625,0.15999603271484375,-3.30999755859375,0.45999908447264204,4.540000915527344,-7.839998245239254,6.0,6.0,03-22,-0.05791664123535304
03-08,6.410001754760742,-2.835002899169929,2.6000022888183594,-0.3000030517578054,-1.219997406005838,-0.7600021362304688,1.80999755859375,5.400001525878906,-0.3000030517578125,4.19000244140625,9.449996948242188,-4.379997253417969,6.0,6.0,03-23,1.6720830599466978
03-09,5.765001296997074,-3.275001525878899,3.779998779296882,-0.5850028991699148,-1.2100028991699148,0.6399993896484375,2.9599990844726562,3.6399993896484375,-1.0499954223632955,1.9799957275390767,9.629997253417969,-2.709999084472649,7.0,5.0,03-24,1.630415757497155
03-10,6.585000991821293,-2.3499984741210938,5.619998931884766,0.03999710083008523,-2.3800010681152344,1.2949981689453125,2.80999755859375,3.6300048828125,-0.1399993896484375,4.129997253417969,10.610000610351577,-7.05999755859375,8.0,4.0,03-25,1.8991665840148946
03-11,5.040000915527344,-2.604999542236328,4.209999084472656,-1.69000244140625,-1.8400001525878906,2.0,2.2899932861328125,0.720001220703125,-0.29999542236329546,3.6399993896484375,7.4199981689453125,0.9399986267089844,8.0,4.0,03-26,1.6520827611287423
03-12,2.3149986267089773,-2.5050010681152344,3.770000457763672,-1.0,-3.0800018310546875,3.220001220703139,4.25,1.1200027465820312,-0.1399993896484375,5.209999084472656,5.799995422363281,7.189998626708977,8.0,4.0,03-27,2.1791661580403647
03-13,2.22499847412109,-2.1599998474121094,4.510002136230462,-2.3449974060058594,-0.4900054931640625,4.604995727539077,4.569999694824219,-0.44000244140625,-0.08999633789063921,7.5199966430664205,6.1999969482421875,4.889999389648423,7.0,5.0,03-28,2.4162489573160797
03-14,0.9599990844726491,-3.7350006103515625,5.505001068115234,-1.7000007629394531,-1.4650039672851562,3.0749969482422017,2.05999755859375,-0.4799957275390625,-1.2099990844726705,6.44000244140625,4.899993896484375,8.589998245239247,7.0,5.0,03-29,1.9116657574971503
03-15,0.23500061035155895,-3.6500015258789062,6.5,-3.0,-0.7600021362304688,2.444999694824247,3.4599990844726562,0.9199981689453125,-1.7699966430664205,7.680000305175781,5.739997863769531,8.429998397827152,8.0,4.0,03-30,2.1858328183492035
03-16,-1.1049995422363281,-1.7600021362304688,7.5900001525878835,-3.5750007629394602,-0.01499938964842329,3.1150054931640767,2.659996032714858,0.40999603271484375,1.1699981689453125,5.880004882812486,2.6699981689453125,4.89999961853027,8.0,4.0,03-31,1.828333059946697
03-17,-3.2199993133544993,-1.2350006103515696,5.2550010681152415,-3.8800010681152415,-0.36499786376950283,4.9650039672851705,5.339996337890625,-2.839996337890625,0.5699996948242188,7.8600006103515625,3.3199996948242045,4.090000152587887,7.0,5.0,04-01,1.6550005276997892
03-18,-3.625,0.029998779296875,5.6300010681152415,-4.185001373291016,-0.4299926757812216,3.5049972534179688,1.0299987792968608,-1.9699935913085938,0.779998779296875,5.349998474121094,3.2600021362304688,6.159997940063473,8.0,4.0,04-02,1.2945837974548355
03-19,-3.055000305175785,0.8199996948242188,3.895000457763679,-3.145000457763672,0.6199989318847656,5.215003967285156,2.160003662109361,-2.2999954223632812,0.9499969482421875,6.799995422363281,4.060005187988281,1.3799972534179616,9.0,3.0,04-03,1.4500004450480128
03-20,-2.4099998474121165,0.9199981689453125,3.555000305175774,-0.6800003051757812,1.4050025939941193,3.9449996948242188,1.0100021362304545,-3.3799972534179688,1.3300018310546733,1.5999984741210938,0.1600036621093608,-0.29000091552735796,8.0,4.0,04-04,0.5970840454101486
03-21,-4.47500038146973,0.7200012207031321,3.4949989318847656,-0.125,1.0999984741210938,3.2900009155273438,2.690002441406236,-3.9199981689453125,2.4300003051757812,0.29000091552734375,-2.940002441406264,0.059997558593742895,8.0,4.0,04-05,0.21791664759317766
03-22,-2.875,2.0400009155273438,2.5050010681152415,1.6049995422363352,0.55999755859375,4.309997558593764,2.220001220703125,-5.590003967285156,3.5999984741210938,-0.12000274658203125,0.25,3.759998321533203,9.0,3.0,04-06,1.0220823287963892
03-23,-1.470001220703125,1.8149986267089844,1.4249992370605469,0.9149971008300852,1.0900001525878906,5.849998474121108,3.7099990844726562,-3.7999954223632812,2.7700042724609233,-1.69000244140625,1.1500015258789062,5.349998474121094,9.0,3.0,04-07,1.4262498219807949
03-24,-1.6900005340576136,2.404998779296868,-0.37000274658201704,0.6999969482421946,-0.529998779296875,4.969993591308608,6.0300064086914205,-3.0800018310546875,2.720001220703125,-3.4000015258789062,0.8899993896484375,-0.3699989318847656,6.0,6.0,04-08,0.6895826657613157
03-25,-2.7349987030029297,7.1599998474121165,-1.3650016784667898,-0.8200035095214844,0.41500091552734375,2.1449966430664062,4.30999755859375,-3.30999755859375,4.200004577636733,-3.190002441406264,5.8499984741210795,1.6400032043457102,7.0,5.0,04-09,1.19166644414266
03-26,-2.0100002288818395,7.07500076293946,-1.81500244140625,-1.4900016784667969,-1.0049972534179688,2.650001525878892,2.6800003051757812,-3.30999755859375,4.670005798339844,-5.6399993896484375,4.7100067138671875,1.8000030517578054,6.0,6.0,04-10,0.6929183006286607
03-27,-0.6700000762939524,5.389999389648445,-1.8899993896484446,-1.9199981689453054,0.02500152587889204,2.219993591308608,3.4800033569335795,-3.0800018310546875,3.980003356933608,-2.950004577636733,3.9800033569335938,5.3300018310546875,7.0,5.0,04-11,1.1579168637593575
03-28,0.6550006866455078,7.0,-1.8899993896484446,-2.8149986267089773,0.2749938964843608,0.3699951171875142,1.9000015258789062,-1.05999755859375,3.279998779296875,3.8400039672851562,3.4900054931640767,6.350002288818359,9.0,3.0,04-12,1.7829171816507987
03-29,1.1949996948242223,5.904998779296875,-3.5,-3.0349998474121094,0.05500030517578125,0.8649978637695455,3.5699996948242188,-1.4399948120117188,0.8799972534179545,4.1300048828125,3.5500030517578125,10.310001373291016,9.0,3.0,04-13,1.873750686645508
03-30,2.3449993133544993,6.920001983642578,-4.979999542236335,-4.075000762939453,0.05500030517578125,0.02500152587890625,4.4499969482421875,3.8499984741210938,0.709999084472642,6.470001220703125,1.790000915527358,9.84000015258789,10.0,2.0,04-14,2.2833333015441895
03-31,3.6050014495849574,7.219997406005845,-3.950000762939446,-5.200000762939453,-0.125,0.5449981689452983,3.0,5.1999969482421875,0.32999420166015625,6.470001220703125,1.790000915527358,7.370002746582031,9.0,3.0,04-15,2.1879159609476715
04-01,1.6949996948242259,6.854999542236328,-3.8899993896484375,-4.064998626708984,-2.1899986267089915,0.9799957275390625,5.239997863769531,5.739997863769531,0.9199981689452983,7.0500030517578125,8.369995117187528,7.6300010681152415,9.0,3.0,04-16,2.861249287923179
04-02,-0.5450000762939453,5.760002136230469,-3.8800010681152415,-5.009998321533203,-6.43000030517576,2.0,5.25,7.470001220703125,0.5299987792968608,8.089996337890625,6.069999694824247,1.5900001525878906,8.0,4.0,04-17,1.7412498792012556
04-03,-1.9499988555908203,5.760002136230469,-3.8250007629394602,-5.395000457763679,-3.4749984741210938,0.45999908447265625,3.089996337890611,7.5,-1.3199996948242188,5.9499969482421875,8.419998168945312,0.0,6.0,6.0,04-18,1.2679162025451636
04-04,-0.7299995422363317,6.365001678466797,-3.665000915527351,-2.859996795654304,-4.020000457763672,1.3400039672851562,3.089996337890611,5.400001525878906,-2.510002136230483,6.980003356933594,8.680000305175781,0.45999908447265625,7.0,5.0,04-19,1.54416720072428
04-05,-1.0599994659423864,4.850002288818359,-3.5249977111816335,-2.5050010681152344,-4.965000152587891,3.1800003051757812,3.1299972534179545,6.900001525878906,-2.75,8.47000122070314,3.720001220703139,-2.9099998474121094,6.0,6.0,04-20,1.0445837974548355
04-06,-0.30999946594238637,5.3050003051757955,-2.6699981689453196,-1.6350021362304759,-6.034999847412109,3.0800018310547017,2.3600006103515483,7.909996032714844,-4.7600021362304545,10.919998168945312,2.8699951171875,2.4099998474121094,7.0,5.0,04-21,1.6204158465067555
04-07,-1.0,3.8850021362304545,-2.595001220703125,-1.6350021362304759,-5.790000915527337,4.5199966430664205,3.470001220703111,7.920005798339844,-4.069999694824219,9.47000122070314,2.3599929809570312,-0.160003662109375,6.0,6.0,04-22,1.3645826975504558
04-08,-1.0699996948242223,2.4550018310546946,-2.595001220703125,-1.740001678466804,-6.724998474121087,4.819999694824219,2.5499954223632812,5.900001525878906,-5.279998779296875,10.66000366210939,4.389999389648452,-4.790000915527344,6.0,6.0,04-23,0.7145833969116238
04-09,-2.494998931884769,3.5500030517578196,-1.5999984741210938,-2.2050018310546946,-5.924999237060547,3.3899993896484233,1.9899978637695455,5.3600006103515625,-5.2699966430664205,10.59000396728517,8.5,-1.6699981689453125,6.0,6.0,04-24,1.184584299723307
04-10,-2.8050003051757777,2.345001220703132,-0.4249992370605469,-0.20000076293945312,-5.80999755859375,6.970001220703125,1.1100006103515767,5.150001525878906,-4.989997863769531,7.17999267578125,7.8699951171875,-0.1399993896484375,6.0,6.0,04-25,1.3545831044514995
04-11,-2.8050003051757777,2.9150009155273366,-0.3999977111816335,0.75,-4.164997100830078,6.450004577636733,3.009994506835966,6.909996032714844,-4.1399993896484375,5.189994812011719,5.209999084472642,-0.1399993896484375,7.0,5.0,04-26,1.565416336059573
04-12,-0.9250011444091726,3.270000457763672,0.5549964904785156,0.6049995422363281,-2.0999984741210866,5.120002746582031,3.5799942016601705,2.25,-2.220001220703111,5.4199981689453125,-1.3699951171875284,0.9300003051757884,8.0,4.0,04-27,1.25958299636841
04-13,0.5999984741210973,2.5500030517578196,0.5550003051757812,1.5499992370605469,1.8699989318847585,3.5200042724609375,2.029998779296889,5.0,-1.3300018310546733,4.3800048828125,1.8199996948241903,0.06999969482421875,11.0,1.0,04-28,1.8845837910970056
04-14,0.9499988555908168,-0.3300018310546946,0.5200004577636648,1.8300018310546875,2.834999084472649,-0.9199981689453125,0.9000015258789062,6.700004577636719,-1.4300003051757528,4.3800048828125,-0.04000091552735796,2.3100013732910156,8.0,4.0,04-29,1.4754176139831534
04-15,2.0749988555908203,-0.5400009155273438,0.3600006103515554,2.875,1.4650001525878906,-3.0500030517577983,0.5,8.800003051757812,-1.4300003051757528,6.600006103515639,-4.240005493164091,5.090000152587891,8.0,4.0,04-30,1.5420832633972186
04-16,3.579998016357429,0.9749984741210938,0.9449996948242045,3.125,1.3899993896484375,-1.3899993896484375,1.739997863769517,7.069999694824219,-2.739997863769517,5.7700042724609375,-5.349998474121094,11.20000076293946,9.0,3.0,05-01,2.1929168701171875
04-17,2.829998016357429,0.7150001525878835,1.0550003051757741,2.504997253417983,3.170001983642578,-4.449996948242202,2.5099945068359233,4.4499969482421875,-3.239997863769517,7.019996643066406,-5.789993286132827,5.8800010681152415,9.0,3.0,05-02,1.3879165649414051
04-18,4.884998321533214,1.6350021362304545,1.5900001525878764,3.5300025939941406,1.7600021362304616,-5.529998779296875,2.0,5.180000305175781,-2.8000030517578125,4.7099990844726705,-11.980003356933608,6.55000305175782,9.0,3.0,05-03,0.9608335494995103
04-19,3.754999160766605,2.06500244140625,0.7350006103515696,2.6599998474121094,2.6949996948242116,-5.529998779296875,1.2099990844726847,3.6500015258789062,-1.4199981689452983,2.6100006103515625,-15.180000305175781,6.340000152587891,9.0,3.0,05-04,0.29916715621948625
04-20,5.055000305175785,1.0249977111816548,-1.8349990844726562,3.125,1.2150001525878906,-6.4099960327148295,1.1600036621093892,1.2599945068359375,-1.5400009155273153,2.6800003051757812,-15.180000305175781,3.4000015258789062,8.0,4.0,05-05,-0.5037498474121032
04-21,7.565000534057621,-0.81500244140625,-2.7950019836425852,2.8400001525878906,1.6349983215332031,-6.470001220703111,2.8000030517578125,0.17999267578125,-1.8199996948242045,1.8100051879882812,-17.900001525878906,6.240001678466797,7.0,5.0,05-06,-0.5608337720235168
04-22,7.325000762939453,-3.920001983642571,-2.029998779296875,2.0550003051757812,3.7900009155273438,-3.089996337890625,-3.159996032714858,-1.5800018310546875,-1.979995727539034,1.170005798339858,-16.169998168945312,2.8999977111816406,5.0,7.0,05-07,-1.2241652806599905
04-23,8.704999923706051,-4.275001525878906,-2.029998779296875,0.845001220703125,4.520000457763672,-1.450004577636733,-3.1899948120117188,-0.42000579833984375,-5.139999389648423,-0.17999267578125,-15.360000610351577,1.6199989318847585,4.0,8.0,05-08,-1.3629164695739766
04-24,7.180000305175781,-3.6550025939941406,-2.9949989318847656,0.15999984741210938,7.88000106811522,1.30999755859375,-1.6399993896484375,1.5,-2.8600006103515625,-0.6999969482421875,-12.16000366210936,2.479999542236328,6.0,6.0,05-09,-0.29166698455810547
04-25,7.555000305175781,-5.055000305175774,-1.4499969482421804,-1.220001220703118,8.019996643066406,5.75,-2.279998779296875,-1.0800018310546875,-3.5799942016601705,-0.1100006103515625,-8.050003051757812,1.2999992370605469,4.0,8.0,05-10,-0.016666730244953836
04-26,5.549999237060547,-5.820003509521484,-0.20000076293945312,-1.7099990844726562,9.389995574951165,6.7300033569335795,-3.8600006103515625,-4.1399993896484375,-2.6699981689453267,0.1699981689452983,-3.8499984741210795,3.770000457763679,5.0,7.0,05-11,0.279999732971189
04-27,7.225002288818359,-1.0699996948242045,-0.4550018310546804,-1.9599990844726562,7.984996795654297,3.6700057983398295,-3.8600006103515625,-4.779998779296875,1.5400009155273438,1.0,-2.970001220703125,6.909999847412109,6.0,6.0,05-12,1.1029170354207363
04-28,5.170001983642578,-2.3400001525878835,-2.6450004577636648,-2.3549995422363352,7.075000762939453,4.220001220703111,-6.849998474121094,-1.5699996948242188,2.0400009155273438,-0.37999725341796875,-2.760002136230483,4.8600006103515625,5.0,7.0,05-13,0.3720839818318667
04-29,3.7550010681152273,-1.44000244140625,-3.180000305175767,-1.6499977111816548,5.825000762939453,4.019996643066392,-6.329994201660142,-2.3000030517578125,2.5100021362304688,0.7799987792968892,-2.0,2.0,6.0,6.0,05-14,0.165833473205567
04-30,3.4200000762939453,-1.8700027465820455,-2.125,-2.7899971008300852,6.25,7.1699981689453125,-7.349998474121108,-2.4599990844726562,2.25,-0.7599945068359375,-2.5500030517577983,0.69000244140625,5.0,7.0,05-15,-0.01041618982951024
05-01,2.1199989318847656,-2.590000152587905,-2.710002899169929,-5.095001220703125,8.919998168945312,6.779998779296861,-7.3000030517578125,-2.279998779296875,2.6699981689453267,1.120002746582017,2.4499969482421875,3.6300010681152344,7.0,5.0,05-16,0.6429157257080048
05-02,-0.8600006103515625,-2.7399978637695384,-2.75,-5.034999847412109,7.5100021362304545,6.840003967285142,-7.790000915527344,-4.129997253417969,2.8600006103515483,3.5800018310546875,5.19000244140625,1.4599990844726562,6.0,6.0,05-17,0.3445844650268513
05-03,-0.3400001525878906,-3.7350006103515696,-1.7250022888183594,-4.380001068115234,5.354999542236314,4.650001525878906,-8.659996032714844,0.06000518798828125,2.0699996948242045,5.489997863769517,3.4599990844726562,0.8199996948242259,7.0,5.0,05-18,0.25541687011718395
05-04,-1.8950004577636719,-3.504997253417976,-0.33499908447265625,-3.170001983642578,4.325000762939439,3.489997863769517,-8.919998168945312,2.2300033569335938,4.349998474121108,6.839996337890625,3.1200027465820455,0.9399986267089844,7.0,5.0,05-19,0.6225001017252598
05-05,0.020000457763671875,-1.1650009155273438,1.1350021362304759,-2.9099998474121094,3.5900001525878906,3.25,-2.7399978637695455,-0.8499984741210938,2.069999694824247,7.6100006103515625,3.940002441406264,6.38999938964843,8.0,4.0,05-20,1.6950006484985376
05-06,-2.7550010681152344,-0.06999969482422586,-0.4099998474121094,-3.7150001525878906,4.604999542236328,-1.3299942016601562,-4.8199996948242045,1.7300033569335938,1.259994506835966,12.260002136230469,1.7799987792968892,4.819999694824219,6.0,6.0,05-21,1.112916946411137
05-07,-0.539997100830071,0.6950035095214844,-2.3499984741210866,-4.229999542236321,-0.04000091552732954,-2.9000015258789062,-3.0400009155273438,1.7700042724609375,0.0,11.900001525878906,1.9000015258789062,4.340000152587876,5.0,7.0,05-22,0.6254177093505877
05-08,-2.2150001525878835,-2.129997253417976,-2.6650009155273366,-1.895000457763679,-1.80999755859375,2.4300003051757812,-3.0400009155273438,1.44000244140625,2.1199951171875284,12.159996032714858,1.5999984741210795,1.200000762939446,6.0,6.0,05-23,0.5995829900105812
05-09,-0.6450004577636648,-5.099998474121101,-2.2350006103515625,-1.8849983215332031,-2.575004577636733,1.8800048828125,-1.1500015258789062,2.279998779296875,1.470001220703125,5.970001220703139,-1.329994201660142,2.8100013732910085,5.0,7.0,05-24,-0.04249922434488873
05-10,-0.6450004577636648,-2.9500007629394602,-3.299999237060547,-2.4050025939941335,-1.325004577636733,0.5200042724609375,-1.1500015258789062,1.5399932861328125,-2.0100021362304688,4.030006408691392,-2.089996337890625,2.8100013732910085,4.0,8.0,05-25,-0.5812501907348656
05-11,-1.9900016784667969,-3.6899986267089915,-0.31500244140625,-1.2650032043457031,-1.3650054931640767,0.5200042724609375,-0.12000274658204546,2.1699981689453125,-1.6100006103515625,5.569999694824219,-0.589996337890625,2.479999542236328,4.0,8.0,05-26,-0.017084121704104522
05-12,-2.029998779296875,-4.834999084472649,0.8400001525878906,0.3299980163574219,-1.3650054931640767,0.04000091552734375,-3.150001525878892,2.5800018310546875,-2.029998779296889,4.3000030517578125,-0.589996337890625,2.55999755859375,6.0,6.0,05-27,-0.27916653951009174
05-13,-0.5250015258789134,-4.170001983642571,0.8799972534179616,0.3299980163574219,-1.1300048828125,-1.1999969482421875,-2.4499969482421875,4.430000305175781,-2.0600051879882812,4.3000030517578125,-4.650001525878906,3.239997863769524,5.0,7.0,05-28,-0.2504177093505871
05-14,-1.5450019836425852,-3.1749992370605398,1.25,-0.125,-2.9199981689453125,0.8300018310546875,-1.7300033569335938,2.3899993896484375,-2.0600051879882812,1.3000030517578125,-7.17999267578125,5.169998168945305,5.0,7.0,05-29,-0.6495831807454433
05-15,0.00999832153319602,-1.7450027465820241,1.25,1.2700004577636719,-1.7850036621093608,2.4500045776367188,-1.470001220703125,2.3899993896484375,-3.7100067138671875,-2.470001220703111,-7.25,5.049999237060547,6.0,6.0,05-30,-0.5008344650268531
05-16,-1.3900032043457102,-1.7450027465820241,1.2650032043457031,2.9550018310546875,-0.19499969482421875,2.690002441406236,-2.8000030517577983,1.6100006103515625,-2.6100006103515625,-5.290000915527344,-8.75,0.29000091552735086,5.0,7.0,05-31,-1.1641667683919266
05-17,0.779998779296875,1.6399993896484304,1.2700004577636719,1.8250007629394602,-1.2099990844726562,2.8899993896484375,-2.650001525878892,0.0,-3.3299942016601705,-6.389999389648423,-6.589996337890625,-0.7999992370605398,5.0,7.0,06-01,-1.047082583109536
05-18,1.0699996948242259,1.0,1.259998321533196,2.3400001525878906,-1.3899993896484375,4.369995117187514,-3.1100006103515483,0.9499969482421875,-1.3800048828124716,-6.029998779296861,-7.25,-1.4699974060058452,6.0,6.0,06-02,-0.8033342361450124
05-19,2.3500022888183594,-0.7000007629394531,1.1000022888183594,0.395000457763679,-1.4599990844726705,3.5,-1.5000000000000142,0.6699981689453125,-3.5,-7.689994812011719,-9.720001220703125,1.1500015258789134,6.0,6.0,06-03,-1.2837492624918632
05-20,1.884998321533196,5.729999542236328,0.6700019836425852,-0.4499969482421946,-3.2549972534179688,3.489997863769517,-0.69000244140625,-0.1699981689453125,-2.8000030517577983,-9.639999389648438,-11.800003051757812,2.1599998474121236,5.0,7.0,06-04,-1.239166895548502
05-21,1.4099998474121094,3.5800018310546875,1.970001220703132,-4.2649993896484375,-1.2649993896484375,2.5,-2.4799957275390483,-0.5199966430664062,-2.7099990844726562,-9.099998474121108,-12.680000305175767,3.049999237060554,5.0,7.0,06-05,-1.7091655731201147
05-22,1.6899986267089844,5.194999694824219,3.3300018310546875,-5.465000152587891,0.6150054931640767,2.690002441406264,-1.2500000000000142,-0.779998779296875,-3.4300003051757812,-5.0900039672851705,-8.6300048828125,3.0900001525878906,6.0,6.0,06-06,-0.6695833206176758
05-23,1.6500015258789134,6.185001373291016,3.154998779296882,-4.914997100830071,-1.4399948120117188,2.4000015258789205,-0.1399993896484375,-1.55999755859375,-3.3300018310546875,-6.400001525878906,-6.819999694824219,3.9300003051757955,5.0,7.0,06-07,-0.6070823669433553
05-24,1.970001220703132,2.8149986267089915,1.5,-2.9350013732910156,-1.154998779296875,1.6399993896484517,-1.7700042724609375,-1.220001220703125,-1.839996337890625,-3.8400039672851562,-5.1300048828125,3.710002899169922,5.0,7.0,06-08,-0.5212507247924781
05-25,2.1200027465820312,1.2150001525878906,0.4250030517578054,-3.4150009155273438,-1.2999954223632812,3.1699981689453125,0.529998779296875,2.339996337890625,-2.8699951171875,-1.6200027465820455,-5.0800018310546875,7.8700027465820455,7.0,5.0,06-09,0.2820838292439773
05-26,2.2150001525878977,2.8100013732910085,0.8549995422363352,-4.970001220703125,-0.23999786376953125,4.589996337890625,-0.04000091552734375,3.05999755859375,-3.0699996948242188,-0.06999969482421875,-2.8400039672851562,10.670001983642585,6.0,6.0,06-10,1.0808327992757174
05-27,3.190002441406257,-1.3500022888183452,0.395000457763679,-4.7050018310546875,0.7799987792968608,4.779998779296889,0.089996337890625,3.7900009155273438,-1.470001220703125,1.720001220703125,-2.5100021362304688,6.740001678466804,8.0,4.0,06-11,0.9541660944620798
05-28,1.3199996948242188,-0.5149993896484304,-0.09999847412108664,-5.490001678466804,0.25,3.5,1.2600021362304688,4.0,-1.5100021362304688,1.4599990844726562,-1.910003662109375,3.9900016784667898,7.0,5.0,06-12,0.5212497711181641
05-29,1.029998779296868,1.4899978637695384,0.8199996948242188,-6.465000152587891,-1.8600006103515625,4.029998779296889,1.720001220703125,3.220001220703125,0.45999908447265625,1.8000030517578267,0.06999969482421875,4.659999847412095,10.0,2.0,06-13,0.914583206176759
05-30,-0.7350006103515625,3.9699974060058594,-0.7350006103515625,-3.4099998474121165,-1.5299987792968608,4.899993896484403,1.6500015258789062,0.1999969482421875,0.2599945068359375,-1.290000915527358,1.0699996948242188,3.8199996948242045,7.0,5.0,06-14,0.680831909179688
05-31,0.18499755859375,4.5149993896484375,-2.2150001525878906,-3.3000030517578054,0.2649993896484375,5.319999694824247,1.8899993896484375,0.029998779296875,0.25,0.4400024414062358,3.1500015258789062,-0.6599998474121236,9.0,3.0,06-15,0.8224995930989589
06-01,0.4500007629394531,4.05999755859375,-1.5800018310546946,0.5149993896484375,-1.05999755859375,6.25,0.7699966430664062,2.2300033569335938,-1.470001220703125,-0.09999847412109375,2.0800018310546875,0.759998321533196,8.0,4.0,06-16,1.0754165649414051
06-02,0.020000457763671875,1.3050003051757812,-4.020000457763665,1.1499977111816406,0.7900009155273438,8.639999389648452,-0.5499954223632812,1.9500045776367188,-0.75,-0.4199981689453125,3.5400009155273438,-2.6000022888183665,7.0,5.0,06-17,0.7545839945475272
06-03,0.6450004577636719,0.3299980163574219,-3.8449974060058594,2.029998779296875,-0.00499725341796875,7.3699951171875,1.0699996948242188,2.7300033569335938,-0.26999664306640625,-1.1399993896484375,2.220001220703125,-0.770000457763679,7.0,5.0,06-18,0.8637504577636713
06-04,0.020000457763671875,3.700000762939446,-3.0949974060058594,3.1199989318847656,0.5849990844726562,6.019996643066392,1.6399993896484375,1.1700057983398438,-2.1599960327148438,-4.489997863769531,1.19000244140625,-2.670001983642571,8.0,4.0,06-19,0.4191675186157215
06-05,-0.13000106811522727,4.625,-3.724998474121101,1.4300003051757741,3.25,5.6399993896484375,-0.660003662109375,-1.089996337890625,-0.6800003051757812,0.04000091552735796,6.2700042724609375,-6.830001831054695,6.0,6.0,06-20,0.678333600362142
06-06,-0.22499847412109375,4.459999084472663,-3.404998779296882,0.5149993896484375,2.4749984741210938,4.220001220703125,-0.09000396728515625,-0.37999725341796875,-2.7600021362304688,0.94000244140625,4.3800048828125,-9.630001068115234,6.0,6.0,06-21,0.04166698455810547
06-07,-0.7999992370605469,4.540000915527344,-3.575000762939446,-1.2549972534179616,1.4550018310547017,4.029998779296861,-0.3000030517578125,-2.2299957275390625,-0.3000030517578125,1.5,4.0500030517578125,-9.180000305175781,5.0,7.0,06-22,-0.17208290100097537
06-08,-1.8899993896484375,2.625,-3.375,-0.46999740600584516,1.9850006103515625,6.290000915527315,-0.8400039672851562,-0.4499969482421875,-0.9899978637695312,1.7600021362304688,3.4500045776367188,-9.810001373291016,5.0,7.0,06-23,-0.142915725708009
06-09,-3.584999084472649,1.3199996948242116,-4.720001220703125,0.5050010681152415,-0.31499481201171875,8.47000122070311,-1.0099945068359375,-0.9800033569335938,-2.9599990844726562,1.4199981689452983,6.250000000000014,-7.05000305175782,5.0,7.0,06-24,-0.22124958038330197
06-10,-3.979999542236328,-0.9650001525878906,-3.1650009155273438,-2.7249984741210938,-0.6100006103515625,8.72000122070314,-1.6200027465820312,2.0400009155273438,-2.7599945068359375,-1.4100036621093892,7.170005798339858,-3.170001983642571,3.0,9.0,06-25,-0.2062495549519839
06-11,-4.884998321533203,-1.5100021362304688,-1.6850013732910156,-2.154998779296875,-0.8499984741210938,2.3199996948242045,-2.3100051879882812,2.2099990844726562,-2.1899948120117188,0.5,4.059997558593764,-2.200000762939446,4.0,8.0,06-26,-0.7245836257934565
06-12,-5.150001525878906,-1.0550003051757812,-2.2749977111816406,-4.634998321533203,0.2599945068359375,4.389999389648452,-1.19000244140625,3.1100006103515625,-2.089996337890625,-1.6399993896484375,5.010002136230469,-3.6199989318847656,4.0,8.0,06-27,-0.7404165267944324
06-13,-4.465000152587891,-2.1800003051757812,-3.220001220703125,-4.369998931884766,-0.7399978637695312,2.0,-0.8800048828125,-0.3300018310546875,-3.1699981689453267,1.4300003051757812,6.599998474121094,-3.259998321533203,3.0,9.0,06-28,-1.0487502415974947
06-14,-3.8100013732910156,0.41500091552734375,-2.3499984741210938,-4.364997863769531,0.05500030517578125,1.9899978637695312,-1.5699996948242188,-4.390007019042969,-0.9300003051757812,6.400001525878906,7.9199981689453125,-1.4799995422363281,5.0,7.0,06-29,-0.17625045776367188
06-15,-4.345001220703125,-2.470001220703125,-0.22999954223633523,-5.454998016357422,-0.7399978637695312,1.3899993896484375,-1.160003662109375,-0.69000244140625,1.9799957275390625,9.75,7.6199951171875,-3.450000762939453,4.0,8.0,06-30,0.1833321253458653
06-16,-3.450000762939453,-5.075000762939446,0.7449989318847656,-4.5,-1.160003662109375,1.80999755859375,-3.8300018310546875,3.2600021362304688,0.5,7.309997558593736,6.6399993896484375,-4.949996948242195,6.0,6.0,07-01,-0.22500069936116654
06-17,-2.6650009155273438,-5.844997406005859,0.4249992370605469,-4.784999847412109,-0.825004577636733,4.470001220703125,-1.4699935913085938,2.5500030517578125,0.9499969482421875,6.8799972534179545,7.69000244140625,-1.8199996948242188,6.0,6.0,07-02,0.4629170099894182
06-18,-2.0900001525878906,-5.92499923706054,1.0999984741210938,-2.3100013732910156,0.14499664306642046,3.0100021362304545,-1.2599945068359375,0.25,1.9300003051757812,7.809997558593736,4.7899932861328125,-2.270000457763672,7.0,5.0,07-03,0.4316660563151036
06-19,-1.0,-6.1199989318847585,1.0999984741210938,-2.9199981689453125,-0.1399993896484233,0.75,-0.7199935913085938,0.25,1.9300003051757812,7.349998474121094,4.439994812011719,-1.6399993896484375,6.0,6.0,07-04,0.2733335494995135
06-20,0.21999740600585227,-6.1199989318847585,1.825000762939446,-2.0,3.4449996948242188,-1.4300003051757955,-0.529998779296875,0.2299957275390625,2.6699981689453125,2.970001220703125,-3.8899993896484517,-1.7599983215332031,6.0,6.0,07-05,-0.36416689554850556
06-21,-0.2200012207031321,-5.7649993896484375,0.44499969482421164,4.204998016357422,3.7400054931640625,-0.8600006103515767,-2.3100051879882812,-0.1300048828125,5.250000000000014,5.8300018310546875,-4.8100051879882955,-2.55999755859375,5.0,7.0,07-06,0.2345825831095354
06-22,-1.625,-4.055000305175781,0.9500007629394602,3.634998321533203,5.2350006103515625,-1.1800003051757812,-2.410003662109375,-0.839996337890625,2.6100006103515483,3.9199981689452983,-3.000000000000014,-1.8999977111816406,5.0,7.0,07-07,0.11166667938232126
06-23,-2.3299999237060582,-3.4949989318847656,1.0549964904785156,4.994998931884766,5.384994506835923,-0.660003662109375,-3.7000045776367188,-1.7399978637695312,2.5100021362304545,5.599998474121094,-3.3600006103515767,-2.049999237060547,5.0,7.0,07-08,0.1841654777526817
06-24,-3.3699989318847656,-0.39499664306641336,2.0,3.549999237060547,6.4949951171875,2.7100067138671875,-1.6199951171875,1.7000045776367188,2.910003662109361,6.3899993896484375,-1.9899978637695455,-0.8400001525878906,7.0,5.0,07-09,1.461668332417803
06-25,-3.429998397827145,-2.9899978637695384,0.9699974060058594,2.8699989318847656,4.805000305175781,-0.0399932861328125,-3.160003662109375,4.170005798339844,1.2399978637695312,7.519996643066406,0.1100006103515625,-3.290000915527351,7.0,5.0,07-10,0.731250286102294
06-26,-2.8949985504150355,-0.8099975585937571,1.6100006103515554,3.7649993896484446,5.18499755859375,1.1399993896484517,-3.5699996948242188,3.0200042724609375,1.0500030517578125,6.449996948242173,-3.9399948120117188,-1.3199996948242259,7.0,5.0,07-11,0.8070842425028474
06-27,-2.5949993133544886,0.40000152587890625,0.7949981689453125,1.80999755859375,5.6300048828125,0.7200012207031392,-1.7600021362304688,3.9500045776367188,1.6200027465820312,3.0400009155273438,-1.4499969482421875,-2.210002899169922,8.0,4.0,07-12,0.829167524973553
06-28,-2.1700000762939418,0.07500076293945312,-1.7000007629394602,3.3599967956542898,5.295005798339858,-0.3000030517577983,-0.9499969482421875,1.1500015258789062,1.6100006103515483,1.160003662109375,-2.5,-5.3100013732910085,6.0,6.0,07-13,-0.023332754770913827
06-29,-2.229999542236328,2.650001525878899,-2.104999542236328,0.884998321533196,3.4800033569335795,-1.9000015258789062,-1.7099990844726562,1.6999969482421875,0.5699996948242188,0.23000335693359375,-2.42999267578125,-4.25,6.0,6.0,07-14,-0.4258324305216495
06-30,-2.0449981689453125,4.219997406005859,-2.805000305175767,1.4699974060058452,4.120002746582017,-3.2099990844726562,-3.3400039672851562,0.4199981689453125,0.0500030517578125,2.2600021362304688,-2.25,-5.709999084472656,6.0,6.0,07-15,-0.5683333079020194
07-01,-1.1850013732910156,3.779998779296875,-2.0699996948242116,1.055000305175767,4.7000045776367045,-0.8600006103515625,-0.5399932861328125,-0.94000244140625,-1.8000030517578267,1.7399978637695312,-2.1899948120117188,-2.5800018310546804,4.0,8.0,07-16,-0.07416629791260003
07-02,1.125,4.150001525878906,-2.1499977111816406,1.9949989318847585,2.8299942016601562,-2.790000915527358,-2.4199981689453125,1.0799942016601562,-0.5600051879882812,3.55999755859375,1.19000244140625,-3.0600013732910156,7.0,5.0,07-17,0.41249879201253076
07-03,1.9250011444091903,3.395000457763672,-3.2649993896484446,-0.825000762939446,3.190002441406264,0.34999847412109375,-1.839996337890625,1.8699951171875,-0.5,2.1800003051757812,-0.1999969482421875,-2.950000762939453,6.0,6.0,07-18,0.2775003115336121
07-05,3.3099994659423864,1.2150001525878906,-0.8600006103515696,2.3499984741210938,2.7150039672851562,1.3699951171875,-2.6899948120117188,0.48999786376953125,1.3999938964844034,0.3600006103515625,-3.3799972534179688,-2.5900001525878906,8.0,4.0,07-20,0.3074997266133647
07-06,3.4799976348876918,1.0800018310546804,0.8800010681152344,3.029998779296875,3.035003662109375,-0.18000030517579546,-4.589996337890625,-0.720001220703125,5.6800003051757955,-0.7699966430664062,-4.959999084472656,-3.25,6.0,6.0,07-21,0.22625080744425366
07-07,5.8600006103515625,0.17499923706055398,0.12999725341798296,2.604999542236321,3.6200027465820312,0.30999755859375,-8.790000915527344,0.5,5.869995117187514,-2.549995422363267,-4.720001220703125,-0.4099998474121094,8.0,4.0,07-22,0.2166662216186559
07-08,5.409997940063473,-1.9000015258789062,0.9449996948242259,3.3800010681152273,4.4550018310546875,0.1699981689453125,-7.159996032714844,-0.43000030517578125,4.689994812011733,-3.739997863769517,-3.1100006103515625,2.9799995422363352,7.0,5.0,07-23,0.47416639328003196
07-09,4.390001296997067,-1.5750007629394531,2.399997711181655,3.870002746582024,3.6350021362304688,-0.009994506835965922,-9.210006713867188,-0.7900009155273438,4.040000915527344,-3.779998779296861,-1.94000244140625,5.849998474121087,6.0,6.0,07-24,0.5733332633972154
07-10,4.450000762939453,-1.5600013732910156,3.274997711181655,3.924999237060547,3.18499755859375,0.9899978637695455,-8.450004577636719,-1.410003662109375,3.2900009155273438,-4.1100006103515625,-3.07000732421875,4.789997100830078,7.0,5.0,07-25,0.4420811335245792
07-11,3.7849998474121094,-1.1700019836425781,3.779998779296882,1.8100013732910227,0.26000213623046875,2.2999954223632955,-8.120002746582031,-1.9199981689453125,2.6800003051758097,0.9599990844726705,-3.1599960327148438,5.239997863769524,8.0,4.0,07-26,0.5370829900105848
07-12,4.989997863769538,-1.6049995422363281,3.6599998474121094,2.319999694824233,-0.31999969482421875,0.2599945068359659,-7.8899993896484375,-6.3899993896484375,4.300003051757827,4.2400054931640625,-3.220001220703125,3.8999977111816406,7.0,5.0,07-27,0.3537499109904025
07-13,5.430000305175788,-1.5449981689453196,3.8149986267089773,1.3800010681152415,0.26500701904296875,0.5099945068359659,-9.049995422363281,-3.3899993896484375,2.940002441406236,2.4200057983398438,-1.0699996948242188,4.090000152587891,8.0,4.0,07-28,0.48291810353597125
07-14,4.81500244140625,-3.0400009155273366,3.6800003051757812,1.2250022888183594,1.9150009155273438,-0.870002746582017,-12.040000915527344,-4.849998474121094,2.8799972534179545,3.7700042724609375,-3.279998779296875,1.2800025939941406,7.0,5.0,07-29,-0.3762493133544916
07-15,3.479999542236328,-2.81500244140625,1.4399986267089773,2.0900001525878835,1.100006103515625,-0.05000305175779829,-6.400001525878906,-4.319999694824219,2.8499984741210938,4.25,-4.459999084472656,-0.18999862670898438,6.0,6.0,07-30,-0.2520834604899089
07-16,0.8250007629394531,-0.8600006103515554,1.2750015258789062,3.8850021362304545,0.07500457763671875,-2.8600006103515767,-4.660003662109375,-3.470001220703125,4.0800018310546875,4.5399932861328125,-3.0800018310546875,0.6800003051757812,7.0,5.0,07-31,0.03583304087320786
07-17,0.6550025939941477,-0.7250022888183452,0.9550018310546875,2.1599998474121094,-0.8649978637695312,-1.9200057983398438,-2.7600021362304688,-3.3499984741210938,3.5199966430664062,5.579994201660156,0.8699951171875,1.3400001525878906,7.0,5.0,08-01,0.4549986521403013
07-18,-0.7000007629394531,-0.7150001525878835,0.24000167846679688,0.6550025939941335,-0.7549972534179688,-2.410003662109389,-0.19000244140625,-1.5500030517578125,3.440002441406236,5.360000610351534,0.4199981689453125,0.7999992370605469,6.0,6.0,08-02,0.38291645050048356
07-19,0.2999992370605469,-2.2550010681152273,-1.2049980163574148,1.0999984741210938,-1.589996337890625,-2.5200042724609517,0.6100006103515625,-3.3400039672851562,0.15000152587889204,3.1800003051757812,-1.19000244140625,-1.1199989318847656,5.0,7.0,08-03,-0.6566670735677095
07-20,0.8649978637695312,-0.8199996948242259,-2.299999237060554,0.6099967956542969,-2.0,-6.7099990844726705,-0.7399978637695312,-2.220001220703125,-1.3400039672851562,3.220001220703125,-1.3600006103515625,-0.8500022888183594,3.0,9.0,08-04,-1.137084007263186
07-21,2.0300025939941406,-0.3600006103515625,-3.7899971008300852,1.625,1.2900009155273438,-8.110000610351562,-0.8899993896484375,0.8800048828125,-0.5900039672851562,2.7099990844726562,-6.1399993896484375,-4.04999923706054,5.0,7.0,08-05,-1.2829160690307617
07-22,3.0249977111816406,-0.09999847412109375,-4.2949981689453125,-0.539997100830071,1.7699966430664062,-4.740005493164034,0.6500015258789062,1.3899993896484375,-0.9899978637695455,3.0699996948242188,-4.75,-1.729999542236321,5.0,7.0,08-06,-0.6033334732055641
07-23,2.104999542236321,0.33499908447265625,-4.114997863769531,4.775001525878906,2.7699966430664062,-7.319999694824247,-0.23000335693359375,3.6200027465820312,-4.409996032714858,-0.4499969482421875,-8.589996337890625,1.9000015258789062,6.0,6.0,08-07,-0.8008324305216513
07-24,1.664997100830071,-0.3600006103515625,-7.040000915527351,5.119998931884773,4.5749969482421875,-9.559997558593764,0.92999267578125,5.489997863769531,-2.8600006103515625,-1.7200012207031392,-9.400001525878906,1.7099990844726562,6.0,6.0,08-08,-0.9541683197021514
07-25,1.8599967956542969,-0.6399993896484304,-5.145000457763672,6.524997711181641,4.4250030517578125,-8.180000305175781,2.899993896484375,11.410003662109375,-5.200004577636733,-3.9500045776367188,-7.9199981689453125,2.1899986267089773,6.0,6.0,08-09,-0.14375114440918088
07-26,1.9599990844726562,-2.2299995422363352,-8.985000610351562,5.240001678466797,5.239997863769531,-6.75,4.489997863769531,10.210006713867188,-3.5999984741210938,-6.090003967285156,-6.739997863769531,2.3299980163574148,6.0,6.0,08-10,-0.41041660308838007
07-27,0.21500015258789062,-0.30999755859375,-6.604999542236328,3.444999694824226,5.754997253417969,-7.330001831054673,0.5699996948242188,10.59999847412108,-5.6300048828125,-6.379997253417969,-6.3699951171875,0.25,6.0,6.0,08-11,-0.9825000762939448
07-28,1.3799972534179616,0.06999969482421164,-8.220001220703118,4.170001983642571,6.93499755859375,-5.6100006103515625,-0.5800018310546875,9.519996643066406,-5.069999694824219,-7.129997253417969,-3.55999755859375,3.1899986267089844,6.0,6.0,08-12,-0.40875053405761835
07-29,1.4300003051757741,-1.7150001525878906,-7.505001068115227,4.925003051757805,7.064994812011719,-5.939994812011719,-0.43999481201171875,7.720001220703125,-4.790000915527344,-7.589996337890611,-4.549995422363281,0.9199981689453125,5.0,7.0,08-13,-0.8724988301595046
07-30,0.645000457763679,-0.17499923706054688,-7.31500244140625,5.215000152587891,7.329994201660156,-6.939994812011719,1.3899993896484375,10.720001220703125,-6.019996643066406,-7.129997253417969,-8.139999389648438,2.509998321533203,6.0,6.0,08-14,-0.6591663360595698
07-31,0.0800018310546946,-2.680000305175774,-4.240001678466804,5.645000457763672,6.375,-3.090003967285142,2.7399978637695312,11.580001831054688,-6.6100006103515625,-7.440002441406222,-7.3300018310546875,2.240001678466797,6.0,6.0,08-15,-0.2275005976359008
08-01,-1.229999542236321,-3.575000762939446,-3.7350006103515696,4.950000762939453,2.1649932861328125,-1.69000244140625,3.4899978637695312,12.500000000000014,-6.470001220703125,-2.5,-6.0500030517578125,2.720001220703118,5.0,7.0,08-16,0.047915458679200405
08-02,-0.5400009155273438,-4.170001983642571,-1.4599990844726562,6.849998474121087,1.68499755859375,-5.4599990844726705,3.2399978637695312,10.66000366210936,-5.3000030517578125,-10.489997863769545,-7.44000244140625,1.0499992370605398,5.0,7.0,08-17,-0.9479173024495484
08-03,-0.979999542236321,-3.8050003051757812,-1.7000007629394531,1.5349998474121094,1.1100006103515625,-7.879997253417983,3.4899978637695312,7.889999389648452,-3.9199981689453125,-6.970001220703139,-3.9800033569335938,1.6000022888183594,5.0,7.0,08-18,-1.1341667175292975
08-04,-2.8050003051757812,-3.9199981689453125,0.9350013732910227,2.0400009155273366,1.2050018310546875,-5.720001220703139,3.2700042724609375,5.980003356933594,-5.469993591308608,-8.45999908447267,-4.05999755859375,-1.9199981689453125,5.0,7.0,08-19,-1.5770813624064164
08-05,-2.8449974060058594,-4.545001983642585,-0.9599990844726562,2.625,0.6550064086914062,-3.1999969482421733,4.32000732421875,0.05999755859375,-4.689994812011719,-7.989997863769531,-3.0800018310546875,-4.400001525878906,4.0,8.0,08-20,-2.004165013631184
08-06,-2.200000762939453,-2.9550018310546804,2.700000762939453,2.7250022888183594,-0.2649993896484375,0.3899993896484375,-0.6100006103515625,-0.44000244140625,-6.290000915527344,-9.1300048828125,-0.470001220703125,-5.279998779296875,3.0,9.0,08-21,-1.8187506993611648
08-07,-0.4550018310546875,-3.2950019836425852,-0.4850006103515696,0.41500091552733664,-0.8000030517578125,1.2200012207031108,3.30999755859375,1.0699996948242188,-5.5800018310546875,-9.660003662109375,-0.8600006103515625,-3.2000007629394602,4.0,8.0,08-22,-1.5266679128011102
08-08,-1.1899986267089844,-4.210002899169929,-0.5149993896484375,0.43499755859375,-3.3700027465820312,-0.5,0.8000030517578125,1.099998474121108,-7.459999084472656,-7.279998779296889,-3.1399993896484375,-4.849998474121094,3.0,9.0,08-23,-2.515000025431316
08-09,-1.3199996948242116,-4.260002136230476,-2.2550010681152344,-0.25,-3.5,-1.0200042724609233,0.4600067138671875,0.790000915527358,-6.1100006103515625,-4.9899978637695455,-2.1500015258789062,-6.3600006103515625,2.0,10.0,08-24,-2.580416679382323
08-10,-0.20499801635742188,-4.484996795654297,0.9900016784667898,-0.5399971008300852,-3.4599990844726562,-1.1100006103515625,-1.4099960327148438,1.7900009155273438,-4.010002136230469,-5.4499969482421875,-0.6999969482421875,-7.069999694824219,2.0,10.0,08-25,-2.138331731160483
08-11,1.0349998474121165,-4.270000457763672,-1.6100006103515625,-0.19499969482421164,-2.1800003051757812,-2.030006408691392,-8.040000915527344,0.45000457763671875,-3.4199981689453125,-4.180000305175781,-2.4099960327148438,-5.089996337890625,2.0,10.0,08-26,-2.6616662343343074
08-12,0.1100006103515554,-3.950000762939453,-2.115001678466797,-1.1450004577636719,-1.0699996948242188,1.25,-11.569999694824219,-0.46999359130860796,-2.8799972534179688,-5.099998474121094,-6.1699981689453125,-4.709999084472663,2.0,10.0,08-27,-3.1516656875610374
08-13,-0.7949981689453125,-3.354999542236328,-3.1850013732910156,-0.19499969482421164,-0.56500244140625,3.0500030517578125,-8.69000244140625,0.18000030517579546,-3.3699951171875,-4.040000915527344,-6.269996643066406,-4.159999847412109,2.0,10.0,08-28,-2.6162494023640934
08-14,-0.35499954223633523,-3.3149986267089844,-4.014999389648445,-0.5900001525878906,-0.05500030517578125,4.680000305175781,-8.94000244140625,-0.3000030517577983,-3.4799957275390625,-4.4199981689453125,-3.3599929809570312,-4.710002899169929,1.0,11.0,08-29,-2.4049994150797533
08-15,1.0700035095214844,-3.734996795654297,-3.220001220703125,-0.5,1.4350051879882812,2.5200042724609375,-9.020004272460938,-0.37000274658201704,-3.6199951171875,2.529998779296889,-2.410003662109375,-3.2800025939941406,4.0,8.0,08-30,-1.5499995549519834
08-16,0.5600013732910156,-2.3449974060058594,-1.5149993896484446,-1.4699974060058736,1.9850006103515625,3.1800003051757812,-4.220001220703125,0.8799972534179545,-1.8300018310546875,2.8699951171875,-3.3899993896484375,-1.5900001525878906,5.0,7.0,08-31,-0.5737501780192087
08-17,0.7050018310546875,-3.8000030517578054,-0.9000015258789062,-1.569999694824233,3.3850021362304688,3.1800003051757812,-2.7000045776367188,-0.15000152587890625,0.29000091552734375,4.010002136230469,-5.279998779296875,-0.3300018310546875,5.0,7.0,09-01,-0.2633336385091152
08-18,-0.16500091552734375,-3.2399978637695312,2.4799995422363352,-0.7599983215332102,3.3850021362304688,2.9599990844726562,-2.100006103515625,-3.2400054931640625,-0.4199981689453125,4.010002136230469,-5.279998779296875,-1.0099983215332031,4.0,8.0,09-02,-0.28166675567626953
08-19,-1.5999984741210938,-0.789997100830071,2.509998321533203,-0.7599983215332102,2.1999969482421875,2.8499984741210795,-1.0500030517578125,-3.2700042724609517,-0.0200042724609375,4.010002136230469,-3.3299942016601562,-0.40000152587890625,4.0,8.0,09-03,0.029166221618649974
08-20,-1.8199996948242259,-0.7399978637695241,3.1199989318847656,-1.8400001525878906,1.2150039672851562,0.43000030517578125,0.9799957275390625,-2.6800003051757812,-0.0200042724609375,4.140007019042969,-2.5,-0.3999977111816406,5.0,7.0,09-04,-0.009582837422688803
08-21,-2.9350013732910156,-0.8950004577636648,3.1199989318847656,-0.23499679565430398,3.2949981689453125,0.5499954223632812,2.8499984741210938,-2.6800003051757812,1.2999954223632812,2.7400054931640767,-3.0900039672851562,0.3100013732910156,7.0,5.0,09-05,0.36083253224690875
08-22,-2.9550018310546875,-0.8950004577636648,2.5349998474121094,0.20499801635742188,3.06500244140625,1.4700012207031108,8.449996948242188,-2.6199951171875,1.410003662109375,0.3600006103515625,0.05999755859375,-0.6300010681152344,8.0,4.0,09-06,0.8712501525878901
08-23,-2.9550018310546875,-1.1200027465820241,-0.3100013732910156,0.7649993896484446,1.9550018310546875,-0.20000457763671875,8.449996948242188,-2.2999954223632812,0.7600021362304688,1.4899978637695312,3.8199996948242188,-0.6300010681152344,6.0,6.0,09-07,0.8104159037272147
08-24,-3.0349998474121094,0.8600006103515625,-1.4799995422363281,-0.18500137329101562,1.7099990844726562,-3.3300018310546733,8.189994812011719,4.099998474121094,3.2299957275390625,0.43000030517578125,3.3199996948242188,-1.2000007629394602,7.0,5.0,09-08,1.050832112630209
08-25,-1.970001220703125,0.625,1.204998016357429,-0.3149986267089844,2.1599960327148438,-2.7600021362304545,8.529998779296875,4.069999694824219,3.339996337890625,-0.7600021362304688,3.3499984741210938,-1.2400016784667898,7.0,5.0,09-09,1.3529151280721052
08-26,-0.17000198364257812,1.8249969482421875,0.4099998474121094,1.6200027465820312,2.3050003051757812,-7.989997863769531,6.670005798339844,4.1399993896484375,4.4499969482421875,-3.1500015258789062,4.19000244140625,-2.4299964904785156,8.0,4.0,09-10,0.9891672134399414
08-27,0.740001678466804,0.43499755859375,-0.4400024414062429,1.854999542236321,3.6800003051757812,-7.300003051757798,1.1399993896484375,3.1800003051757812,5.1999969482421875,-4.180000305175781,8.339996337890625,-3.0900001525878906,8.0,4.0,09-11,0.7966655095418312
08-28,0.5950012207031321,1.354999542236321,-1.1500015258788991,1.7900009155273438,2.0199966430664062,-6.3799972534179545,-0.37999725341796875,4.290000915527344,3.3799972534179688,-3.6500015258789062,7.569999694824219,-4.349998474121094,7.0,5.0,09-12,0.424166679382326
08-29,1.220001220703132,0.9050025939941335,-3.1150016784667898,2.1899986267089915,5.029998779296875,-7.869995117187472,-1.3799972534179688,1.5100021362304688,4.779998779296875,-2.55999755859375,6.549995422363281,-3.479999542236328,7.0,5.0,09-13,0.31500053405762074
08-30,2.4099998474121094,2.3199996948242116,-3.0449981689453125,3.545001983642578,5.049995422363281,-5.699996948242173,-0.25,2.910003662109375,4.8000030517578125,-1.9700012207031392,6.839996337890625,-7.340000152587891,7.0,5.0,09-14,0.7975002924601231
08-31,1.9749984741210938,2.7099990844726562,-2.9199981689453125,2.3400001525878977,4.3600006103515625,-4.650001525878892,-1.1599960327148438,1.910003662109375,6.1100006103515625,-1.290000915527358,6.900001525878906,-6.290000915527344,7.0,5.0,09-15,0.832917213439942
09-01,3.234996795654297,1.1299972534179616,-1.8349990844726562,1.8300018310546875,4.780006408691406,-6.3899993896484375,0.410003662109375,-0.100006103515625,5.4499969482421875,-0.7399978637695455,5.5500030517578125,-6.040000915527344,7.0,5.0,09-16,0.6066668828328433
09-02,4.970001220703125,1.045001983642571,-0.2999992370605469,2.9300003051757812,4.0050048828125,-5.799995422363281,-0.45999908447265625,-0.4600067138671875,5.2299957275390625,-1.0599975585937358,5.260002136230469,-5.1100006103515625,6.0,6.0,09-17,0.8541673024495449
09-03,6.7350006103515625,0.625,0.3950004577636719,4.150001525878913,3.6850051879882812,-2.519996643066392,2.4900054931640625,-6.3800048828125,5.909996032714844,0.1399993896484375,11.510002136230469,-2.2700004577636648,9.0,3.0,09-18,2.039167404174807
09-04,6.380001068115234,1.4350013732910156,1.720001220703125,3.5400009155273438,3.6200027465820312,0.5800018310546733,3.0500030517578125,-3.880004882812486,7.349998474121094,-0.1399993896484375,5.650001525878906,-2.279998779296875,9.0,3.0,09-19,2.2520840962727866
09-05,4.795001983642578,1.1450004577636719,1.6000022888183594,3.6699981689453054,5.180000305175781,0.01000213623045454,2.279998779296875,-3.8600006103515625,7.180000305175767,1.5599975585937642,5.720001220703125,0.029998779296875,11.0,1.0,09-20,2.442500114440916
09-06,4.465000152587891,0.20000076293945312,0.40000152587889914,0.5799980163574219,5.034996032714844,3.779998779296861,2.0,-4.779998779296875,5.279998779296861,4.6699981689453125,4.879997253417969,0.35999679565428977,11.0,1.0,09-21,2.239165623982744
09-07,4.1100006103515625,-0.48999786376953125,-1.7749977111816406,0.3450012207031321,4.069999694824219,3.5699996948242188,-1.4000015258789062,-3.9199981689453125,5.5800018310546875,5.6999969482421875,1.3199996948242188,-0.12000274658203125,7.0,5.0,09-22,1.415833473205567
09-08,3.8199996948242188,-0.3249969482421875,-2.9099998474121094,0.5849990844726562,3.5400009155273438,2.9599990844726705,-1.1400070190429688,-1.910003662109375,7.400001525878906,5.849998474121094,1.6100006103515625,-2.020000457763672,7.0,5.0,09-23,1.4549992879231783
09-09,4.794998168945305,0.4949989318847656,-0.9449996948242188,0.575000762939446,2.6100006103515625,0.43000030517575283,-1.7099990844726562,0.8699951171875,6.25,4.8899993896484375,1.0,-3.4099998474121094,9.0,3.0,09-24,1.3208328882853155
09-10,2.6949996948242188,-0.9199981689453125,-1.3400001525878906,0.7749977111816406,2.6800003051757812,-1.170005798339858,-5.019996643066406,0.5399932861328125,5.959999084472656,5.1399993896484375,0.029998779296875,-1.6199989318847727,7.0,5.0,09-25,0.6458323796590152
09-11,3.1300010681152344,-0.9650001525878906,-4.680000305175781,0.3899993896484375,2.470001220703125,-0.9199981689453267,-4.1100006103515625,-0.37000274658203125,6.620002746582017,7.769996643066392,-2.470001220703125,-2.6699981689453196,5.0,7.0,09-26,0.3495833079020141
09-12,2.5600013732910156,-1.3100013732910156,-6.194999694824219,-0.2800025939941406,1.6949996948242188,0.8199996948242188,-3.3899993896484375,-3.2300033569335938,7.819999694824219,8.699996948242202,-2.910003662109375,-2.7899971008300852,5.0,7.0,09-27,0.12416585286458393
09-13,1.4800033569335938,-0.09000015258789062,-5.034999847412109,-2.2900009155273438,2.470001220703125,0.2299957275390625,-3.1699981689453125,-1.1399993896484375,5.770004272460952,8.689994812011719,-2.6200027465820312,-2.5199966430664062,5.0,7.0,09-28,0.14791679382324338
09-14,0.9250030517578196,-0.47499847412109375,-4.569999694824219,-3.510002136230476,2.7900009155273438,-1.5500030517578125,-3.6399993896484375,0.1100006103515625,5.540000915527344,7.4899978637695455,-8.870002746582031,-1.7199974060058594,5.0,7.0,09-29,-0.6233332951863595
09-15,0.13499832153319602,0.09999847412109375,-8.055000305175781,-2.9000015258789062,3.1449966430664062,-0.03000640869142046,-7.819999694824219,3.0100021362304545,4.099998474121094,7.7699966430664205,-10.550003051757812,-1.1500015258789134,6.0,6.0,09-30,-1.020418485005699
09-16,-0.7950019836425781,1.4099998474121094,-7.935001373291016,-1.6000022888183594,2.464996337890625,-3.3499984741210795,-9.810005187988281,2.9899978637695312,4.2699966430664205,9.459999084472656,-10.659996032714844,-4.670001983642585,5.0,7.0,10-01,-1.5187514623006166
09-17,0.4700012207031179,2.354999542236328,-6.735000610351555,-2.174999237060554,0.7549972534179688,-6.1700057983398295,-6.8600006103515625,3.9099960327148438,3.7699966430664205,10.029998779296875,-7.0,-5.249999999999993,6.0,6.0,10-02,-1.0750013987223284
09-18,0.825000762939446,3.0449981689453125,-6.99000167846679,-0.8449974060058452,0.18000030517578125,-8.1300048828125,-3.4599990844726562,4.999999999999986,3.6899948120117188,10.04000854492186,-9.739997863769531,-4.770000457763672,6.0,6.0,10-03,-0.9295832316080741
09-19,1.1150016784667898,2.6199989318847656,-8.374999999999993,0.7849998474121094,0.81500244140625,-7.520004272460952,-3.7199935913085938,6.659996032714844,4.050003051757827,9.830001831054688,-11.80999755859375,-2.8700027465820312,7.0,5.0,10-04,-0.7016661961873373
09-20,-0.11499786376953125,4.219997406005859,-9.354999542236321,-1.2350006103515554,1.7450027465820312,-4.889999389648423,-2.9300003051757812,5.709999084472656,2.3199996948242188,11.170005798339844,-11.199996948242188,-3.9500007629394602,5.0,7.0,10-05,-0.7091658910115543
09-21,-0.25999832153321023,3.049999237060547,-4.884998321533203,-1.43499755859375,1.75,-4.680000305175753,0.5400009155273438,1.6200027465820312,2.44000244140625,10.920005798339844,-10.329994201660156,-4.0,6.0,6.0,10-06,-0.43916479746500475
09-22,-0.7599983215332102,3.4850006103515625,0.02500152587890625,-1.0649986267089844,1.470001220703125,-5.169998168945298,5.430000305175781,4.769996643066392,1.7799987792968892,6.390007019042983,-9.290000915527344,-1.9900016784667969,7.0,5.0,10-07,0.4229173660278338
09-23,1.1850013732910156,4.424999237060547,1.5400009155273438,-0.8950004577636719,2.8649978637695312,-5.75,9.799995422363281,7.6299972534179545,0.04000091552734375,6.2399978637695455,-9.209999084472656,-0.3899993896484304,8.0,4.0,10-08,1.456665992736817
09-24,2.329998016357422,3.204998016357422,0.060001373291015625,-1.6499977111816406,0.37000274658203125,-8.529998779296875,10.509994506835938,8.119995117187486,0.26000213623045454,7.060005187988267,-8.799995422363281,0.05999755859375,9.0,3.0,10-09,1.0829168955484991
09-25,2.884998321533196,3.634998321533203,0.9300003051757812,-1.2999992370605469,0.04000091552734375,-5.800003051757798,10.979995727539062,7.879997253417969,-0.09999847412110796,4.190002441406278,-8.039993286132798,-0.7400016784667969,7.0,5.0,10-10,1.2133331298828154
09-26,2.290000915527351,3.654998779296882,-0.8899993896484375,0.22500228881835227,-0.28499603271484375,-7.31999969482419,14.339996337890625,7.180000305175767,-0.37000274658204546,7.040008544921861,-6.500000000000014,-0.729999542236321,6.0,6.0,10-11,1.552917480468749
09-27,4.780002593994155,4.104999542236328,0.40000152587890625,-1.8499984741210938,0.3950042724609375,-7.310005187988281,17.610000610351562,8.730003356933594,-0.5400009155273438,-0.529998779296875,-6.390007019042983,0.22999954223633523,7.0,5.0,10-12,1.6358334223429367
09-28,4.73500061035157,3.8899993896484446,2.924999237060547,-1.2750015258788991,1.1200027465820312,-9.91000366210939,17.87000274658203,2.090003967285142,0.1100006103515625,-1.0999984741210938,-5.630004882812514,0.12000274658203836,8.0,4.0,10-13,1.2454169591267892
09-29,4.470001220703125,2.545001983642578,3.5849990844726562,-2.345001220703132,2.7900009155273438,-12.040000915527358,15.900001525878906,1.25,0.1900024414062642,-3.0200042724609375,-5.309997558593736,2.020000457763679,8.0,4.0,10-14,0.8362503051757825
09-30,3.05999755859375,2.8899993896484375,4.969997406005859,-2.1800003051757884,4.855003356933594,-15.259994506835938,12.479995727539062,-0.40999603271485796,-0.25,-7.870002746582017,-4.970001220703125,2.700000762939453,6.0,6.0,10-15,0.0012499491373691995
10-01,5.194999694824226,1.2900009155273438,6.269996643066399,-2.7050018310546946,4.4550018310546875,-13.010002136230469,12.19000244140625,0.1900024414062358,-0.529998779296875,-7.310005187988281,-3.3899993896484375,2.7599983215332173,7.0,5.0,10-16,0.45041624704996686
10-02,5.340000152587905,1.5149993896484375,5.904998779296868,-2.4449996948242188,3.8050003051757812,-8.889999389648452,8.720001220703125,-0.6100006103515625,-0.5599975585937358,-7.430000305175781,-0.5500030517578125,2.809997558593757,6.0,6.0,10-17,0.6341663996378593
10-03,4.465000152587905,1.6450004577636648,7.784999847412102,1.329998016357429,5.2449951171875,-8.400001525878906,5.129997253417969,-1.6299972534179688,0.7099990844726562,-8.120002746582017,-2.6599960327148438,1.1599998474121165,8.0,4.0,10-18,0.5549993515014672
10-04,5.3149986267089915,2.1599998474121094,3.875,1.9099998474121165,3.8499984741210938,-6.9199981689453125,6.489997863769531,-1.3600006103515625,1.1199951171875142,-10.089996337890625,-2.7399978637695312,1.6200027465820312,8.0,4.0,10-19,0.43583329518636305
10-05,5.149997711181655,2.0,4.609996795654297,2.6649971008300852,4.7299957275390625,-3.8199996948242188,6.849998474121094,-4.25,0.11000061035157671,-10.910003662109347,-1.5800018310546875,0.9599990844726562,8.0,4.0,10-20,0.5429150263468477
10-06,4.884998321533203,0.48000335693359375,4.665000915527344,2.7099990844726634,4.279998779296875,-3.8699951171875,1.970001220703125,-2.0800018310546733,0.4700012207031392,-9.690002441406278,-2.9900054931640767,0.1999969482421804,8.0,4.0,10-21,0.08583291371663293
10-07,4.850002288818359,0.7800025939941406,6.4850006103515625,2.4650001525878906,5.4799957275390625,-0.8499984741210795,1.100006103515625,-1.3800048828124716,0.160003662109375,-11.279998779296918,-5.319999694824219,-0.43000030517577414,7.0,5.0,10-22,0.17166741689046283
10-08,1.625,0.3300018310546946,4.229999542236328,1.625,6.430000305175781,1.4700012207031108,-3.2600021362304688,-2.2300033569335795,-0.739997863769517,-12.160003662109403,-1.0699996948242188,-2.5499992370605398,6.0,6.0,10-23,-0.525000254313151
10-09,1.6700019836425852,0.2800025939941406,3.964996337890625,0.5299987792968821,6.814994812011733,0.1100006103515625,-3.5200042724609375,-2.3799972534179688,0.339996337890625,-16.100006103515625,0.980003356933608,-2.440002441406243,8.0,4.0,10-24,-0.812501271565751
10-10,1.1800003051757884,-0.37999725341798296,5.604999542236335,0.3300018310546875,1.7900009155273438,2.2399978637695312,-2.25,-3.410003662109389,0.19000244140625,-15.34999847412108,3.029998779296861,-3.0900001525878835,7.0,5.0,10-25,-0.8429164886474615
10-11,0.43499755859375,-1.125,5.470001220703125,0.43499755859375,-0.27500152587890625,8.30999755859375,-0.2299957275390625,-2.430000305175753,-0.4499969482421875,-15.480003356933608,2.69000244140625,-1.279998779296875,5.0,7.0,10-26,-0.3275000254313139
10-12,-0.7099990844726562,-0.7250022888183594,3.2849998474121094,0.9599990844726562,-1.30999755859375,9.639999389648438,-0.5999984741210938,-3.630004882812486,-0.5,-16.040000915527344,3.75,-0.7000007629394531,4.0,8.0,10-27,-0.5483338038126616
10-13,-1.384998321533196,-1.5,3.5999984741210938,0.22499847412109375,0.18499755859375,8.339996337890625,-1.8899993896484375,-3.3600006103515625,-0.4700012207031392,-16.43000030517578,3.779998779296875,-3.7099990844726562,5.0,7.0,10-28,-1.0512507756551113
10-14,-2.335002899169929,-1.625,1.7199974060058594,0.22499847412109375,1.19000244140625,4.590003967285156,-3.0800018310546875,-2.3400039672851562,-1.05999755859375,-15.449996948242173,4.290000915527344,-3.039997100830078,5.0,7.0,10-29,-1.4095830917358392
10-15,-4.435001373291016,-2.1399993896484446,3.0049972534179688,0.22499847412109375,1.2249984741210938,3.3300018310546875,-2.3499984741210938,-1.6399993896484375,-0.29000091552734375,-16.010002136230455,1.8000030517578125,-5.5700035095214915,5.0,7.0,10-30,-1.9041671752929688
10-16,-4.270000457763679,-2.7849998474121165,5.714996337890625,-0.6599998474121165,1.3950042724609375,1.8600006103515483,-2.7099990844726562,-2.040000915527358,1.2600021362304688,-20.22000122070314,3.6299972534179688,-4.9099998474121165,5.0,7.0,10-31,-1.9779167175293029
10-17,-5.040000915527344,-3.1949996948242116,6.884998321533203,-0.5750007629394602,-0.529998779296875,1.9099960327148295,-0.01999664306640625,-2.9799957275390767,2.0800018310546733,-14.629997253417955,2.850006103515639,-3.6800003051757812,4.0,8.0,11-01,-1.4104156494140636
10-18,-4.255001068115234,-2.8050003051757812,1.7050018310546875,0.8699989318847727,-1.7299957275390625,0.3699951171874716,0.7099990844726562,-2.709999084472642,3.2099990844726705,-13.210006713867173,5.180000305175781,-2.2199974060058523,6.0,6.0,11-02,-1.2404171625773088
10-19,-6.344997406005859,-1.7050018310546875,-0.9950027465820384,1.7099990844726634,-1.9950027465820312,-0.540000915527358,1.0400009155273438,-3.899993896484389,6.529998779296861,-12.330001831054688,1.959999084472642,-1.9499969482421733,4.0,8.0,11-03,-1.5433333714803095
10-20,-6.220001220703125,-1.19000244140625,4.350002288818359,2.1899986267089915,-2.9600067138671875,2.2900009155273153,1.1999969482421875,-3.970001220703139,5.450004577636719,-10.910003662109375,1.6499938964843608,-1.1299972534179759,6.0,6.0,11-04,-0.7708346048990933
10-21,-4.970001220703132,-5.08000183105468,2.709999084472649,2.384998321533196,-2.6700057983398438,-2.7099990844726562,4.6699981689453125,-2.9399948120117188,5.319999694824219,-9.360000610351562,3.489997863769517,-0.09999847412110086,5.0,7.0,11-05,-0.7712507247924835
10-22,-3.0749969482421875,-4.334999084472663,2.479999542236328,1.5449981689453125,-0.844993591308608,-1.7900009155273438,0.6699981689453125,-2.6800003051758097,5.979995727539077,-13.900001525878906,4.120002746582031,-0.8899993896484375,5.0,7.0,11-06,-1.0599997838338246
10-23,-1.9300003051757812,-4.409999847412109,4.474998474121094,3.3249969482421946,0.6449966430664062,2.6999969482421875,1.0400009155273438,-1.540000915527358,7.529998779296875,-4.770004272460952,2.0699996948242188,-1.4699974060058594,7.0,5.0,11-07,0.6387488047281883
10-24,-0.779998779296875,-4.584999084472656,5.299999237060547,5.640003204345703,-2.3949966430664062,4.0,3.0800018310546875,-1.8199996948242472,10.479995727539062,1.19000244140625,-0.5500030517578125,1.1100006103515625,7.0,5.0,11-08,1.7225004831949846
10-25,0.5849990844726562,-4.424999237060547,6.825000762939453,3.7900009155273438,-3.4000015258789062,7.6699981689453125,3.0800018310546875,0.7600021362304688,9.939994812011719,2.029998779296861,-1.0600051879882812,0.6699981689453125,9.0,3.0,11-09,2.2054157257080065
10-26,1.7449989318847656,-3.145000457763672,7.245002746582031,2.9550018310546875,-2.8899993896484375,10.540000915527344,1.8799972534179688,1.220001220703125,7.410003662109375,2.590003967285142,0.3699951171875,-0.34999847412108664,9.0,3.0,11-10,2.4641672770182286
10-27,2.81500244140625,-1.8850021362304545,2.6950035095214844,1.7550010681152273,-5.4199981689453125,11.120002746582017,2.6700057983398438,1.6900024414062642,5.8600006103515625,7.1100006103515625,3.6899948120117188,5.729999542236321,10.0,2.0,11-11,3.152501106262207
10-28,3.4550018310546875,-0.5300025939941548,1.5250015258789062,-0.3600006103515696,-5.7299957275390625,7.0,1.7900009155273438,2.629997253417983,4.8000030517578125,2.80999755859375,3.649993896484375,9.680000305175781,9.0,3.0,11-12,2.559999783833821
10-29,2.2050018310546875,-0.9200019836425852,4.400001525878906,-0.9850006103515696,-6.81500244140625,5.6200027465820455,-2.1999969482421875,3.0100021362304688,5.25,3.470001220703139,2.0100021362304688,7.939998626708984,8.0,4.0,11-13,1.9154173533121757
10-30,4.2949981689453125,-1.095001220703132,5.305000305175781,-0.8649978637695455,-6.614997863769531,5.339996337890639,-2.529998779296875,2.209999084472642,5.0500030517578125,-4.260002136230483,3.6699981689453125,7.669998168945305,7.0,5.0,11-14,1.5145829518636031
10-31,4.1399993896484375,-0.9799995422363281,7.290000915527337,-0.6049995422363352,-4.469993591308594,2.509994506835966,-2.75,0.9900054931640625,4.589996337890611,-6.819999694824219,3.3000030517578125,6.759998321533203,7.0,5.0,11-15,1.162917137145996
11-01,3.4449996948242188,-2.0099983215332102,8.944999694824226,-1.759998321533196,-4.7599945068359375,4.2399978637695455,-4.379997253417969,1.5199966430664062,0.18000030517578125,-8.819999694824219,1.4599990844726562,5.340000152587891,7.0,5.0,11-16,0.28333377838134943
11-02,3.2649993896484375,-2.654998779296882,3.1599998474121094,-0.9199981689453125,-7.0,2.529998779296875,-3.8199996948242188,3.629997253417983,-1.5899963378906392,-4.279998779296875,-1.0800018310546875,7.519996643066406,5.0,7.0,11-17,-0.103333473205567
11-03,3.7649993896484375,1.2050018310546804,0.3300018310546946,-1.7249984741211009,-6.8950042724609375,4.840003967285156,-3.6599960327148438,3.1399993896484375,-3.1399993896484375,-8.279998779296875,-1.3400039672851562,10.329998016357422,6.0,6.0,11-18,-0.11916637420654357
11-04,2.3400001525878906,0.9399986267089844,-0.4949989318847585,-0.3249969482421946,-6.040000915527344,6.069999694824219,-3.4899978637695312,3.4199981689453267,-5.599998474121094,-4.760002136230469,-0.20999908447265625,9.30999755859375,5.0,7.0,11-19,0.0966666539510103
11-05,0.35499954223633523,0.779998779296875,-0.23999786376952414,-0.06999969482422586,-5.6049957275390625,1.5699996948242188,-1.3199996948242188,1.7900009155273438,-5.529998779296875,-1.150001525878892,-2.75,9.75,5.0,7.0,11-20,-0.20166619618733547
11-06,-0.8050003051757741,0.3549995422363281,-2.075000762939453,-1.6850013732910156,-4.375,-0.6399993896484375,-0.1199951171875,-1.0900039672851562,-5.319999694824219,-1.6200027465820312,-1.0199966430664062,10.7699966430664,2.0,10.0,11-21,-0.6354169845581055
11-07,-1.8300018310546804,1.3250007629394531,-1.6650009155273438,-0.6949996948242188,-2.3300018310546875,-1.2200012207031108,-0.220001220703125,-0.279998779296875,-4.649993896484389,-3.44000244140625,-2.6800003051757812,5.039997100830078,2.0,10.0,11-22,-1.053750356038411
11-08,-2.740001678466797,1.75,-2.9500007629394602,0.81500244140625,-2.0200042724609375,-0.1699981689453125,-2.720001220703125,2.30999755859375,-2.8899993896484517,-2.4899978637695312,-2.6399993896484375,5.039997100830078,4.0,8.0,11-23,-0.7254171371459979
11-09,-2.9650001525878906,0.25500106811522727,-1.1100006103515696,1.44000244140625,-2.2649993896484375,0.9400024414062358,-2.7400054931640625,2.2399978637695312,-3.1199951171875,-3.1500015258789205,-1.7600021362304688,5.039997100830078,5.0,7.0,11-24,-0.5995836257934606
11-10,-1.5,-0.6899986267089773,-2.529998779296875,1.3199996948242259,-1.0699996948242188,3.239997863769517,-4.010002136230469,2.6399993896484517,-2.9199981689453125,1.1100006103515625,-0.5,3.1599998474121165,5.0,7.0,11-25,-0.14583333333333157
11-11,-1.0349998474121094,-2.7050018310546875,-4.51499938964843,1.6899986267089915,-0.6500015258789062,0.8099975585937642,-0.75,3.8599929809570312,-2.7999954223632812,4.75,-0.8300018310546875,3.4399986267089844,5.0,7.0,11-26,0.10541566212972242
11-12,-0.154998779296875,-1.6750030517578054,-4.394996643066406,2.1149978637695455,1.0449981689453125,2.0,3.4499969482421875,2.589996337890625,-2.8700027465820312,-0.5500030517577983,0.2299957275390625,4.859996795654297,7.0,5.0,11-27,0.5537481307983428
11-13,0.02500152587890625,-1.8650016784667969,-6.079998016357422,0.6850013732910156,-0.13500213623046875,0.8899993896484233,2.8899993896484375,4.319999694824219,-2.7999954223632812,4.0200042724609375,0.9099960327148438,2.6800003051757812,8.0,4.0,11-28,0.4616670608520496
11-14,-0.9899978637695312,-1.3149986267089844,-6.44999694824218,0.8600006103515625,-0.2350006103515625,-1.420005798339858,0.34999847412109375,3.3000030517578125,-2.6500015258789062,3.879997253417983,-0.43999481201171875,0.0,4.0,8.0,11-29,-0.42583306630452417
11-15,-0.4099998474121094,-1.7550010681152344,-3.3850021362304688,0.09499740600585938,-1.0900039672851562,0.3899993896484233,-1.2600021362304688,-1.0999984741210938,-1.5200042724609375,2.1800003051757812,-1.5699996948242188,0.0,3.0,9.0,11-30,-0.7854178746541353
11-16,-1.6499977111816406,-0.9150009155273366,-1.2299995422363352,-0.15999984741210938,0.339996337890625,-2.279998779296875,-2.7700042724609375,-2.779998779296889,-0.9300003051757812,-1.4300003051757955,0.6500015258789062,0.0,2.0,10.0,12-01,-1.0962502161661807
11-17,-1.7450027465820241,-0.6100006103515625,3.3600006103515696,-1.1300010681152344,-1.0450057983398438,-9.629997253417969,0.4499969482421875,10.180000305175781,-1.1399993896484375,-1.94000244140625,1.089996337890625,0.0,4.0,8.0,12-02,-0.18000125885009646
11-18,-0.22499847412110086,-0.24000167846680398,2.9500007629394602,-0.4850006103515625,-1.7600021362304688,-10.430000305175781,-1.0999984741210938,9.3699951171875,-0.9400024414062358,-0.23999786376953125,-0.3600006103515625,0.0,2.0,10.0,12-03,-0.288333892822265
11-19,0.08499908447265625,-0.6650009155273509,3.8649978637695455,-0.4949989318847585,-1.4449996948242188,-8.02999877929689,-1.7900009155273438,6.849998474121094,0.879997253417983,-2.400001525878892,0.3899993896484375,0.0,5.0,6.0,12-04,-0.22958405812581142
11-20,0.30999755859375,-0.43500137329102273,3.2599983215332102,-0.0800018310546804,-0.720001220703125,-7.6399993896484375,-1.7699966430664062,9.080001831054688,1.4700012207031392,0.9499969482422017,-3.279998779296861,0.0,5.0,6.0,12-05,0.09541638692220467
11-21,-0.5450019836425781,0.6800003051757812,3.274997711181655,-0.4799995422363281,-1.089996337890625,-9.939994812011719,-1.7099990844726562,8.069999694824205,-0.6100006103515767,2.1100006103515625,-1.2699966430664062,0.0,4.0,7.0,12-06,-0.12583255767822385
11-22,-0.6599998474121094,0.6199989318847727,3.5649986267089844,-0.13499832153321023,-1.5099945068359375,-7.759994506835966,-1.5800018310546875,9.19000244140625,-0.6899948120117188,3.370002746582017,-0.9399948120117188,0.0,4.0,7.0,12-07,0.2891686757405563
11-23,-0.5550003051757812,2.8400001525878835,6.6399993896484375,-0.13499832153321023,-1.029998779296875,-6.559997558593764,-2.0800018310546875,6.970001220703125,-2.8000030517578125,3.370002746582017,-1.4699935913085938,0.0,4.0,7.0,12-08,0.4325008392333949
11-24,-0.6400032043457031,1.4549980163574219,6.079998016357415,1.0349998474121094,-1.904998779296875,-8.809997558593764,-8.949996948242188,7.549995422363281,-2.8000030517578125,1.529998779296875,-2.9300003051757812,0.0,5.0,6.0,12-09,-0.6987508138020851
11-25,-2.229999542236328,1.6399993896484375,6.079998016357415,0.8549995422363281,-4.575004577636719,-8.549995422363267,-6.4199981689453125,7.549995422363281,-0.9599990844726562,-0.4100036621093892,0.44000244140625,0.0,5.0,6.0,12-10,-0.5483338038126634
11-26,-0.7700004577636648,1.6399993896484375,3.720001220703125,0.34999847412109375,-5.529998779296875,-4.9199981689453125,-3.6399993896484375,10.05999755859375,-0.09999847412109375,1.0699996948242188,2.5999984741210938,0.0,6.0,5.0,12-11,0.37333329518636127
11-27,-0.7700004577636648,1.4899978637695312,2.5200004577636648,1.3250007629394531,-3.55999755859375,0.06999969482421875,-3.6399993896484375,11.459999084472656,0.5699996948242188,-0.23999786376954546,2.4899978637695312,0.0,7.0,4.0,12-12,0.9762500127156564
11-28,-0.3999977111816406,1.5050010681152344,4.0800018310546875,1.19000244140625,-4.370002746582031,0.06999969482421875,-5.0500030517578125,12.979995727539077,1.3700027465820312,-1.6999969482421875,3.7699966430664062,0.0,7.0,4.0,12-13,1.1204166412353527
11-29,0.09000015258788352,0.7649993896484375,1.4099998474121023,1.549999237060554,-4.370002746582031,-0.4499969482421875,-5.25,13.389999389648452,-0.220001220703125,-1.5400009155273438,3.7699966430664062,0.0,6.0,5.0,12-14,0.762082735697429
11-30,-0.21999740600586648,0.875,-2.6199989318847727,1.55999755859375,-4.370002746582031,-0.37999725341796875,-8.540000915527344,5.490005493164077,-2.379997253417983,0.620002746582017,3.8799972534179688,0.0,5.0,6.0,12-15,-0.5070826212565128
12-01,1.0499992370605469,0.010002136230475855,-4.680000305175781,1.75,-3.3199996948242188,-0.8699951171875,-7.19000244140625,-0.5400009155273438,-2.970001220703139,-4.180000305175781,5.9199981689453125,0.0,4.0,7.0,12-16,-1.2516667048136398
12-02,2.3550033569335866,-1.8699989318847585,-4.694999694824226,0.6350021362304545,-2.9899978637695312,-4.960006713867173,-3.55999755859375,0.4700012207031392,-1.1100006103515625,-5.279998779296875,4.6999969482421875,0.0,4.0,7.0,12-17,-1.3587497075398758
12-03,3.224998474121101,-1.80999755859375,-4.470001220703125,0.875,-2.8699951171875,-6.330001831054673,-5.189994812011719,-0.25,-1.4100036621093608,-8.029998779296875,9.130004882812486,0.0,3.0,8.0,12-18,-1.4274991353352846
12-04,3.1199989318847727,-2.1299972534179545,-3.834999084472649,1.8950004577636719,-3.7400054931640625,-1.8600006103515625,-4.689994812011719,-0.5400009155273438,-2.5,-7.8600006103515625,6.7599945068359375,0.0,3.0,8.0,12-19,-1.281667073567706
12-05,3.020000457763679,-1.93499755859375,-2.2150001525878906,2.5999984741210938,-1.69000244140625,0.3899993896484375,-0.3899993896484375,-0.45999908447265625,-0.9899978637695312,-8.119995117187472,10.0,0.0,4.0,7.0,12-20,0.017500559488935252
12-06,2.6300010681152344,-1.354999542236321,-4.659999847412109,2.0449981689453125,0.9800033569335938,2.9499969482421875,-2.8899993896484375,-0.48999786376953125,2.5699996948242188,-9.14999389648436,6.629997253417969,0.0,6.0,5.0,12-21,-0.06166617075602036
12-07,2.8400001525878906,-0.625,-2.529998779296875,2.549999237060547,1.9300003051757812,4.259994506835952,-4.760002136230469,-0.3699951171875,3.8199996948242188,-10.629997253417969,6.079994201660156,0.0,6.0,5.0,12-22,0.2137495676676444
12-08,4.720001220703132,-0.2749977111816406,-1.2249984741210866,2.359996795654297,3.595001220703125,6.829994201660156,-6.8600006103515625,-2.379997253417983,3.1500015258789062,-8.729995727539062,6.739997863769531,0.0,6.0,5.0,12-23,0.6604169209798177
12-09,6.039997100830071,-0.29000091552734375,-2.7849998474121094,3.319999694824226,5.19000244140625,5.909996032714858,-8.569999694824219,-3.8999938964844034,2.3300018310546875,-11.970001220703125,8.150001525878906,0.0,6.0,5.0,12-24,0.2854169209798165
12-10,5.549999237060547,0.4500007629394531,-1.4350013732910085,3.319999694824226,4.605003356933594,8.26999664306642,-8.370002746582031,-3.279998779296889,2.3300018310546875,-11.970001220703125,7.82000732421875,0.0,7.0,4.0,12-25,0.6075003941853853
12-11,5.859996795654297,0.4750022888183594,-1.4350013732910085,2.4199981689453125,5.680000305175781,9.550003051757812,-5.0800018310546875,-3.279998779296889,5.1399993896484375,-14.80999755859375,8.709999084472656,0.0,7.0,4.0,12-26,1.1024999618530267
12-12,3.6899986267089844,0.75,-1.3600006103515554,1.0149993896484304,4.9499969482421875,10.040000915527344,-7.0500030517578125,-2.700004577636733,6.8300018310546875,-21.06999969482422,7.099998474121094,0.0,7.0,4.0,12-27,0.18291568756103396
12-13,4.75,0.375,-0.11500167846679688,1.5200004577636719,4.6199951171875,11.07000732421875,-3.1699981689453125,-5.980003356933608,9.47000122070314,-13.840003967285156,8.319999694824219,0.0,7.0,4.0,12-28,1.4183330535888672
12-14,5.095001220703125,-0.7649993896484304,2.920001983642571,1.2800025939941264,4.2599945068359375,8.710006713867173,-3.44000244140625,-1.6699981689453125,8.720001220703125,-11.090003967285156,5.899993896484375,0.0,7.0,4.0,12-29,1.659999847412107
12-15,4.0649986267089915,-0.06999969482422586,1.0,0.29000091552733664,4.1399993896484375,8.480003356933594,-6.810005187988281,-2.2699966430664062,9.809997558593764,-7.220001220703125,5.739997863769531,0.0,7.0,4.0,12-30,1.4295829137166347
12-16,2.979999542236321,0.34000015258790484,-0.6199989318847585,0.32999801635741477,4.709999084472656,8.860000610351562,-4.7100067138671875,-2.3499984741210938,8.449996948242188,-7.4199981689453125,5.2299957275390625,0.0,7.0,4.0,12-31,1.3166656494140632
12-17,3.3699989318847656,-0.23999786376952414,0.43500137329102273,0.32999801635741477,4.7550048828125,3.19000244140625,-2.2100067138671875,-1.8300018310546875,8.449996948242188,-7.4199981689453125,4.3300018310546875,0.0,7.0,4.0,01-01,1.0966666539510097
12-18,3.1599998474121094,-0.13499832153319602,0.43500137329102273,-2.654998779296875,2.6750030517578125,0.25,-0.34000396728515625,-1.8300018310546875,8.539993286132827,-6.490005493164077,1.8000030517578125,0.0,6.0,5.0,01-02,0.4508326848347994
12-19,2.289997100830071,0.14500045776367188,1.2400016784667898,-0.8299980163574219,1.2549972534179688,-2.3199996948242045,0.839996337890625,-2.2000045776367188,6.480003356933594,-5.7700042724609375,2.5100021362304688,0.0,7.0,4.0,01-03,0.3033326466878255
12-20,2.05999755859375,-0.024997711181640625,0.27000045776366477,-0.3450012207031321,-0.34000396728515625,-2.3600006103515625,0.3600006103515625,-2.0600051879882812,5.7600021362304545,0.8700027465820312,1.0999984741210938,0.0,6.0,5.0,01-04,0.4408327738443987
12-21,1.305000305175767,0.34999847412109375,1.6349983215332031,0.05500030517578125,0.1100006103515625,-2.9899978637695455,0.5400009155273438,0.9899978637695455,4.5800018310546875,3.3499984741210938,0.3800048828125,0.0,10.0,1.0,01-05,0.8587503433227527
12-22,1.3050003051757741,-0.029998779296875,1.6299972534179688,0.4550018310546875,-1.2999954223632812,-2.819999694824247,-0.12999725341796875,0.4900054931640909,3.8199996948242188,7.75,0.7600021362304688,0.0,7.0,4.0,01-06,0.9941679636637364
12-23,-0.3699989318847656,0.44000244140625,1.6599998474121094,0.7050018310546875,-1.529998779296875,-9.730003356933594,-3.5600051879882812,1.5900039672851705,1.5199966430664062,7.1100006103515625,1.6100006103515625,0.0,7.0,4.0,01-07,-0.04625002543131392
12-24,-0.5499992370605469,1.104999542236321,1.2899971008300852,1.515003204345696,-2.1199951171875,-9.840003967285142,-6.099998474121094,1.0800018310547017,1.5399932861328267,11.05999755859375,4.6300048828125,0.0,7.0,4.0,01-08,0.3008333841959665
12-26,-0.22499847412109375,1.3499984741210866,1.7099990844726634,1.2949981689453196,-0.6200027465820312,-10.139999389648438,-3.1699981689453125,2.6699981689453125,3.2999954223632812,6.529998779296875,3.6899948120117188,0.0,7.0,4.0,01-10,0.5324986775716152
12-27,-0.6899986267089915,2.0699996948242045,1.579998016357429,1.5,-1.19000244140625,-10.650001525878906,-5.029998779296875,0.4799957275390625,3.3499984741210938,10.400001525878892,4.1999969482421875,0.0,7.0,4.0,01-11,0.5016657511393205
12-28,-0.4399986267089915,2.484996795654297,4.539997100830071,3.009998321533196,-0.285003662109375,-7.450004577636719,-4.970001220703139,1.75,3.5600051879882812,11.67000579833983,4.9499969482421875,0.0,7.0,4.0,01-12,1.5683326721191364
12-29,-0.5649986267089844,2.7700004577636648,2.559997558593757,1.9199981689453054,-0.1750030517578125,-6.870002746582031,-7.4199981689453125,3.6399993896484375,4.099998474121108,11.98000335693358,5.8600006103515625,0.0,7.0,4.0,01-13,1.4833329518636063
12-30,-1.6949996948242259,3.3699989318847727,2.329998016357429,2.654998779296875,-0.2700042724609375,-8.189994812011733,-7.69000244140625,3.8199996948242188,2.7099990844726847,11.91000366210939,3.8799972534179688,0.0,7.0,4.0,01-14,1.0691661834716826
12-31,0.22999954223632812,3.5399971008300852,0.8600006103515625,2.4199981689453054,-2.1899948120117188,-7.010002136230469,-6.620002746582031,1.3799972534179688,2.7099990844726847,9.66000366210939,1.7599945068359375,0.0,8.0,3.0,01-15,0.5616658528645869
