,2009,2010,2011,2012,2013,2014,2015,2016,2017,2018,2019,2020,ups,downs,avg
01-02,-11.04275132891561,-2.6800276799671976,6.234134960730979,2.339237937451729,1.13509047663103,3.134536463230179,-5.128789730525137,-8.586570505618312,1.7367389041982946,5.531541975188995,8.09412316051801,2.9974619992550036,8.0,4.0,0.31372721934816356
01-03,-11.484459456369226,-2.6800276799671976,5.630494688191964,1.5430938986390816,0.9491923229926763,3.404556839033838,1.2081121317549686,-8.586570505618312,1.7553833236883039,2.1695026878157244,8.817266757566802,2.0175236835358032,9.0,3.0,0.3953390576053688
01-04,-11.484459456369226,-2.428568625936688,8.391332558914657,2.0536105454531546,-0.3429850010013467,3.72152871282943,1.2081121317549686,-6.772905339044506,1.7633679855484035,2.272528722624419,4.814026642492612,-1.9598854271436346,7.0,5.0,0.10297528751018703
01-05,-10.387381872190618,-2.353668539951918,10.254661454136818,3.055899342099608,-0.49453226737239014,3.72152871282943,-0.1733520489945916,-11.370487365277022,1.157496397572231,1.1979218047869562,4.216069838769002,-1.9598854271436346,6.0,6.0,-0.2613108308946775
01-06,-11.595799870433176,-2.1879865600395743,8.497636572476551,2.7901702237562396,-0.49453226737239014,3.574368967015002,6.754510728630445,-10.396851754970319,0.18026796836392703,0.7222757893429594,4.216069838769002,-1.6318155057674175,7.0,5.0,0.03569284414760419
01-07,-13.074260969139143,-2.304579236483966,7.078075840271316,3.0369217938931237,0.03173920170972861,1.248816599495546,6.324864446509772,-8.665334097876997,2.25806911608833,1.3392846707869994,4.5835444479037255,-4.665342246903705,8.0,4.0,-0.23401670281210593
01-08,-6.567668303077583,-2.823628328662859,6.397875923665156,2.769322051200584,2.0900713831877367,1.4477320865661971,4.042416197371272,-8.764931635928166,2.0629392033226575,1.4514327378198812,5.472544524178711,-3.9266960809296823,8.0,4.0,0.3042841465594921
01-09,-1.8677299853076923,-1.878955179268196,6.323997260764363,0.9596795831907198,1.4782630407763204,2.748661301624814,3.4018133420699757,-5.693885117710067,2.322939745217143,4.374251518319396,-2.405535635321545,-6.2101382711895905,7.0,5.0,0.2961134669304702
01-10,2.6791181999020512,-1.6047242059473734,6.655529090853997,0.07575931080557088,-1.0821631055078909,2.8593079590063555,6.660038345838748,0.12549306832107843,0.05799106816612612,4.947381519720523,-2.640574774584469,-3.8271758879903097,8.0,4.0,1.2421650490487006
01-11,0.23540728657450571,-4.348746629641068,4.914970839484609,1.3199472429755073,-0.7054086199743123,4.810152834916289,6.474101853260637,3.5595252856891553,-1.195985590393203,2.810839703505258,-0.3106586442020106,-2.924540151974534,7.0,5.0,1.219967117518403
01-12,4.506534495647967,-0.4738306227841658,1.38180118640252,2.7431891884170034,0.07214135301853707,3.375297935143155,6.917059936082498,-2.1594382416989455,-1.414823098281667,2.338148260250759,-2.0089079916505796,-4.509342208778195,7.0,5.0,0.8973191826474073
01-13,1.3529384837431067,-4.960277836436709,4.321468734549879,3.529628994699937,0.2640164871591096,1.250523820875292,7.8739349380319315,2.816902384882011,-1.4340691452236503,4.288006903613449,-1.3060513167022134,-7.1008118688730155,8.0,4.0,0.908017548359927
01-14,4.905496688893335,-6.072086424302021,1.662101064266237,2.892984185488377,0.4869426018227597,-4.009870299356533,5.655916275516633,1.225968763939927,-1.5206947140045501,3.456788134599034,0.5953545378153381,-12.643531469958564,8.0,4.0,-0.2803858879400023
01-15,8.490569638564537,-4.849013298549234,-0.5866234662514769,0.9832923907368735,-0.7246389275307016,-1.877765438779151,1.7820655187473105,4.691991052580455,-1.0441651246845813,3.7109397650372107,-0.4994881461683135,-12.57624195745006,5.0,7.0,-0.2082564994789277
01-16,8.905088084283655,-5.368545424006556,0.3583561710237728,0.3841735644710702,1.2368045254677766,-3.3100591612883257,-2.5085120576044573,7.703950622216562,-2.507290372008234,2.736320459172007,0.20229045421326963,-15.810483563904048,7.0,5.0,-0.6648255581636258
01-17,13.193252805923622,-6.381812044104936,-0.34136201920227877,1.5098246840296203,0.2295764061335935,-2.6176817352890533,-1.396144583697014,11.146725946868152,-4.229255472092911,1.4239814324236488,0.40220604198970106,-13.534732834116003,6.0,6.0,-0.049618447594488156
01-18,11.433571806154854,-7.664234069356446,3.299184280822545,0.7254537850897028,-0.37207189822561615,-2.7816592777611273,-0.47238572899114883,14.136859441558801,-3.760582423671882,0.6608714228091156,-1.6088548543126697,-11.844558954182002,5.0,7.0,0.1459661274945104
01-19,10.388073556958531,-1.8838256042632138,5.531751689277136,0.7743150925487328,-0.14249549209202264,-1.8660029817691781,-0.33696850036077447,11.73830833047326,-4.148517268719045,0.5478236986243082,2.6043201783491035,-10.84146828513408,6.0,6.0,1.0304428678243964
01-20,9.005092169467693,0.7214232268871723,5.483026268694573,2.587344498857212,-1.2161918724913208,-2.414663581296035,3.4478976737520037,10.303754625235001,-4.425743782874381,-1.5826084302819294,2.3588673486668923,-15.26539115948793,7.0,5.0,0.7502339154274124
01-21,3.785535009470159,0.6275726640983131,5.147330056905308,0.2832889966337728,1.6329751196319857,-4.630882886109191,5.991067167825467,9.175099326691553,-2.435642657893719,-0.2574691558538286,2.013149109244056,-17.75255384805501,8.0,4.0,0.2982890752157387
01-22,7.0866148740037564,3.240734563152016,5.138003185933925,0.8264508405983229,0.6206307721308032,-1.8626167727742944,5.074064194953412,5.941025293197457,-3.7609066637570243,-3.536291588246121,2.535718165337062,-12.86334316490943,8.0,4.0,0.703340308301657
01-23,2.9308866762384524,2.2942343596229824,4.969639928223102,3.1991914757791022,3.1594527967812014,-1.0030405520822656,4.6223357632407795,12.252460449759258,-2.496529207564891,-7.5575017924481385,1.8098615220266092,-6.2037619597314535,8.0,4.0,1.4981024549870614
01-24,0.8457302647548903,-2.2282020030404244,4.729345832641463,5.006355287171939,3.6091620045203188,1.1702230876977213,3.0045178453609225,10.00876979027415,-3.9919794170101532,-9.420896733989071,-1.1020976868687882,-3.6339978085171567,7.0,5.0,0.6664108719163176
01-25,1.5776471206625766,-2.2722384196456167,5.417173775633496,3.8873389738082826,3.3932301904918694,3.2181021033332193,4.012891685601996,8.156870869591732,-6.904001353964349,-11.032329649855663,-3.035972301601435,0.532126730525835,8.0,4.0,0.5792366437151619
01-26,0.5993329047817024,-1.7034259962907714,2.3673189255080103,5.986356379966588,4.218401556215288,6.4357829128336945,3.6120670752721518,3.507235883641177,-6.368453269686116,-11.32539562789097,-1.9962551079779844,-1.014889436129742,7.0,5.0,0.35983968335358524
01-27,5.767591638209224,2.2741712556148155,0.6733977573762926,6.551782034042343,4.2922147960511285,8.158636768546389,3.074514895329807,-0.7318240337457,-4.850216186910372,-10.209872543382534,-5.495215321800238,-3.080028194384458,7.0,5.0,0.5354294054122247
01-28,-5.361441983109417,-3.7058072887868234,1.3660396446691045,5.483755798565891,6.812726526273899,4.006886251331531,7.516274933386975,-4.316759839442938,-3.1179922331612784,-15.380048272682895,-6.054052404455237,-4.5454630152403634,5.0,7.0,-1.4413234902209624
01-29,-6.541328534101236,-2.4705353104624828,-2.3472847648289523,6.349488291168901,4.799755566414174,5.768901778474654,4.602997238846732,-7.949529798995202,-1.3926454500035772,-16.49845326929125,-4.946400283828719,-0.46797495632658787,4.0,8.0,-1.7577507910777959
01-30,-5.298315724637161,-8.28423092130385,-2.0625494723136053,5.830281825722324,5.801645081720427,5.128202670457997,4.474247108893253,-5.015952844567331,0.23659846942794194,-11.663756884319175,-3.9945621714296506,-0.5837124667529738,5.0,7.0,-1.2860087774251505
01-31,-3.697944734070105,-8.28423092130385,-2.9912838786097775,6.38560419752635,6.4520975694440486,5.636454276046663,0.7296140852380367,-5.015952844567331,-1.2257133788106582,-12.227967824758162,-2.5322965873304413,3.2767228459889552,5.0,7.0,-1.1245747662671894
02-01,-3.697944734070105,-4.930821012019993,-2.3641522320924193,6.901097559666895,3.742514799083102,7.635197915930529,0.7296140852380367,-5.384379058498212,0.2272086825114582,-9.141995421077024,-2.170541058523094,5.319706358378928,6.0,6.0,-0.2612078429559914
02-02,-4.1185638884442035,-6.649807868909262,-3.5634907805530074,7.27968760671121,4.723057559667459,7.635197915930529,2.405069973939326,0.7976267510700664,1.0322589732281329,-5.685649656580764,-2.7183434143854828,5.319706358378928,7.0,5.0,0.5380624608377446
02-03,-6.544253121562174,-4.718807657636961,-3.942135423052093,5.006966373528897,4.723057559667459,7.824696889509742,0.6293857014815772,-3.3878377852931707,-0.18858803117244247,-2.6227007927466723,-2.7183434143854828,5.695028463549026,5.0,7.0,-0.020294269842691337
02-04,-21.941678137098343,-0.0430765833129713,-3.6799698943003856,4.162311852773662,4.530113877280793,4.735536033496214,1.3472851602698699,3.3606287258878758,1.0421866518687823,-2.6227007927466723,-2.4958727225615673,1.73517812885123,7.0,5.0,-0.8225048082992926
02-05,-22.02401561506129,0.0,-2.5245155141766666,4.162311852773662,0.2863960911799297,6.908622055514617,-0.923308053041834,5.309237718770088,1.0421866518687823,-1.7364612079055215,1.8952633674602557,-3.381194570958386,6.0,6.0,-0.9154564352980303
02-06,-20.82303947834453,1.3784178019423654,-2.5245155141766666,6.427482580727936,1.316587372828903,3.136531695855805,-0.5036233020974402,3.374752047369901,0.46920358320303984,-0.5852817326182135,3.5402655818964743,1.824529056660102,8.0,4.0,-0.24739085889602686
02-07,-24.938182971129113,2.925582588482056,-1.3145222616974532,2.8159171523136206,-1.8682823567121365,1.3194680768747449,-0.6714923995827247,1.4828660997306646,1.8580191462905553,2.0192666947598368,5.8615114264820924,3.7914083222795303,8.0,4.0,-0.5598700401590273
02-08,-26.72876791564861,3.233302597557336,3.7928159395421934,3.6575904030464277,-4.623596371668601,2.605391728842293,-2.292104292681164,1.8361767265924187,1.337088383163575,4.508077453101696,6.3575611023525225,4.632507618535006,9.0,3.0,-0.1403297189387421
02-09,-28.36145360245583,-2.638150351833448,4.034345235315617,2.7753818193235946,-4.670693913768616,3.238350203069116,-5.346942269743168,9.167709223812395,-2.3377410108005403,5.424816176364565,4.626442347944265,3.0135557045714423,7.0,5.0,-0.9228650365167171
02-10,-30.247159909970723,1.8574193419186984,8.873154628932888,3.3114315318921346,-7.4975776795557145,2.1348331751448386,-3.6223233112153252,3.2784413960513814,-4.009026669791525,2.5233893115504307,1.1955945546845963,0.6872418036953987,8.0,4.0,-1.792881818888576
02-11,-20.682539659831733,1.7479528930164956,9.694900250951669,1.9713006540724836,-6.382639407802166,3.1430146124056138,-1.7356143732095728,5.696201489773223,-2.891417748507993,3.6884835963381186,1.3817645888113286,-6.980399081373344,7.0,5.0,-0.9457493487796563
02-12,-23.198154868354457,1.8342651517527564,8.296177912759317,2.6781139455639877,-10.125654759268068,4.831521407417629,-1.9026166781535254,2.617951356022862,-2.8492352034355344,5.228339929865374,-0.9287569956917726,-12.524256840118566,6.0,6.0,-2.1701921368033332
02-13,-22.46781225383725,-0.15105674275728193,4.783513416225063,3.5474314675294147,-8.178142593939777,5.88393106471383,-4.181446243890662,2.3446451843011173,-4.205602589842669,6.411541492402681,-3.0241680621257405,-19.746834480348003,5.0,7.0,-3.2486666951307726
02-14,-8.091491443288493,0.429094100666103,6.129752549549077,1.617369574606178,-5.050428423089727,5.0847434045268285,-3.7192294204809113,0.8905118399292884,-3.390868727042077,0.16831896490219106,-2.020200074126503,-18.544299469183674,6.0,6.0,-2.2080605935859765
02-15,-9.395062916534572,1.3078185188964655,7.799835007801286,1.5178837691420206,-1.788531598810196,3.497105871638263,-7.056474874252118,-0.5777768735532407,-3.8766906062950093,-6.18221690560116,-5.481901340787406,-17.927211834784256,4.0,8.0,-3.180268648594994
02-16,-12.390089227627495,1.933440889120677,4.57704292359697,-3.3023029299796467,-3.529779224843406,4.027312638073441,-7.54569388202839,-4.865618828884365,-0.11993514595440684,-6.132913954841386,-4.9137185647715445,-24.216664632161457,3.0,9.0,-4.706576661691751
02-17,-23.360389318345646,2.0774029132813894,4.112614886647807,-0.43035118667036365,-4.5262865750148045,5.015309941839863,-8.342690892493538,-8.920337359593402,1.01949449410137,-6.448433281011323,-6.074467111141123,-17.815366355973257,4.0,8.0,-5.307791653697753
02-18,-17.8601121000067,1.5445662300639071,-0.1840067566011784,-1.5721068908589189,-6.8292633304751025,4.950074198071165,-5.466409938997771,-3.6716404245860543,0.5797119573845761,-6.700927810681227,-3.412156168850642,-18.56506213113771,3.0,9.0,-4.765611097222972
02-19,-9.236793271321716,1.2314760059840824,0.34042022106081965,1.0777539104969136,-7.890625592180143,6.629775062696769,-3.657868566834771,-4.044774752944263,-1.0155377146372493,-6.416956463341965,-2.9955599617939055,-23.7866384775429,4.0,8.0,-4.147110800029861
02-20,-7.847362536148161,3.8718420958970787,2.493470820397907,-1.5364354491271779,-2.1571792359568054,5.491105261290248,-0.6520101461085313,-7.776118036526353,-0.9130582618092107,-6.040665625533916,-3.4345536955988223,-18.58613559986351,3.0,9.0,-3.090591700757271
02-21,0.23483157625835263,3.245794576622284,0.9690963477882264,-2.1643150562600466,1.2420362878548725,6.556777328463202,-1.5913387947849804,-4.274366908985786,0.599578770811295,-4.752000119641229,-3.708936199874547,-15.808359806426742,6.0,6.0,-1.6209334998479248
02-22,1.6589517897766262,5.411785573737444,0.23945674327305655,-2.608234926869628,0.2070080727620711,5.296871912286115,-2.61190318443566,-1.1202848079221766,2.0094444132717277,-6.16634620991853,-3.9047163830331195,-9.098005094359008,6.0,6.0,-0.8904976751192568
02-23,2.093336199301413,7.6614962247544325,-7.7118669272634195,-2.9697725194251507,3.049364552216798,5.579401129658324,-3.7936102765369113,9.871478013959576,-2.8893786890893463,-7.891344173421631,-3.056338355423242,-12.994997363869665,5.0,7.0,-1.0876860154282353
02-24,-5.771526711204255,5.476800183012076,-4.130430048333452,-3.8978289604912684,4.539041256149102,5.012639197685907,-4.434563765977632,1.473924251008839,-1.5501436173353722,-8.545647747074694,-3.7219502820704546,-26.419538203641814,4.0,8.0,-3.4974353706894186
02-25,1.6632036867379847,5.685952372939392,-5.623815478844021,-2.1919775236984065,5.369907076483181,2.67125256293978,-7.935950973595338,5.203434853408674,-3.2479191939085847,-8.84779983089273,-9.613601716666679,-78.1648951658247,5.0,7.0,-7.9193507775767875
02-26,4.796296578866477,4.846209493733629,-6.153113723117049,-1.0575990260835917,4.010573228072281,-0.4525842188939143,-4.136330531980765,6.587326315402708,-2.309306984682998,-6.507776861293902,-8.868538530519922,-51.92308432957151,4.0,8.0,-5.097327382505713
02-27,7.333331637912327,4.239169331500138,-9.219095165547412,-0.5566179952714866,2.4292770738222504,-1.2639746535802634,-3.6626205166620505,10.406869706817348,-3.291489309470985,-6.24937985113697,-9.266494881034342,-54.40040930935329,4.0,8.0,-5.2917861610003945
02-28,15.574073791503906,3.2010608432127414,-6.303829566044536,-2.5323108840323347,3.210660333823005,-2.3172868648971368,-2.900051321009122,10.419259899079163,-2.148500243385296,-1.369310420189382,-6.13074440994166,-62.789493895895475,4.0,8.0,-4.507206061481344
02-29,0.0,0.0,0.0,2.5588343199094945,0.0,0.0,0.0,13.886675178275446,0.0,0.0,0.0,-61.760163723741314,2.0,1.0,-3.776221185463031
03-01,22.479171759902542,3.0026647368265507,-1.3141852453967957,-1.9445442544465605,5.297200973329311,-2.2470633034086607,-3.9085270212399106,13.051621149441067,-5.772287689242692,-1.291421487045305,-8.863044485908276,-93.41538649338942,4.0,8.0,-6.243816780048179
03-02,22.715716468220286,2.126119900475339,-3.082321628175272,0.6801524042738181,6.228829429583534,-3.488048491764959,-4.297925044124329,8.979758939741155,-1.4527134737028622,-1.561715455126358,-9.303373481044584,-80.63218962202812,5.0,7.0,-5.2573091711393625
03-03,21.911572564910784,0.684083373906665,-6.316392582116739,1.290550534526636,7.615869510791631,-1.7852298992511322,-2.8100127165253106,7.715885987321826,-1.5557409583890494,-1.9221125044318454,-7.938449017033921,-100.73954835824811,5.0,7.0,-6.987460338711547
03-04,19.01743310647068,0.6366774093471023,-4.679873183674308,2.1015310584589137,6.617081256387322,-2.3126645996167325,-4.251145947323763,4.837416323467616,-3.1011768101615274,-3.203239720058083,-8.95891865073148,-107.44578535837901,5.0,7.0,-8.39522209298444
03-05,16.400578042611787,-1.6386595708491047,-3.9142540443129765,3.0655950235284313,3.2808469462773924,-0.7031094339744551,1.1802418718255039,-0.5730281182430066,-4.424499408071092,-1.3539080653753683,-3.8946931052748566,-107.89650018833143,4.0,8.0,-8.372615837515765
03-06,16.029670852703898,-1.628227980106399,0.09201184563884421,3.9781908111647177,1.312169570986072,-1.8823648495040586,2.3053208502777247,1.3464036330678104,-3.774758247566929,-2.5794667249311742,1.0120530144364612,-85.81988848035137,7.0,5.0,-5.800740475348699
03-07,18.690534536852617,-4.384652680969943,-0.6022436060789443,1.3686685618993581,-1.0456271523773957,-1.2744624354534422,3.2428880682198784,0.2115510227757056,-3.440030676160037,0.453961389677648,4.734592704583381,-26.34407992252164,6.0,6.0,-0.6990750157960676
03-08,20.271984771130537,-6.18321263580865,4.6678676000096155,-0.527199821093665,-1.9328222855681354,-0.8105392643071592,2.0216660150477943,7.10900683381228,-0.3173628008376919,3.998857119889696,9.855039116062752,-13.184819664269906,6.0,6.0,2.0807054153389557
03-09,18.611787654556053,-7.158473280609616,6.669016864757689,-1.0280342882333036,-1.9169881489948624,0.6725155083185773,3.2642248285300317,4.795783025652959,-1.1093453834506373,1.8896695462935025,10.04275452572122,-7.767266070164168,7.0,5.0,2.2471370651981206
03-10,19.93038985881696,-4.9925610566330585,9.853596821110127,0.0702874996715349,-3.841809586448028,1.3514904749214507,3.157300627633427,4.782615032721457,-0.1479127177934163,3.941589331487949,10.952823691053254,-20.44006187452054,8.0,4.0,2.0514790085017593
03-11,15.730339486616057,-5.628172303822486,7.381430868301615,-3.0629858899410563,-2.944471280470344,2.109704573435576,2.577660266242178,0.94861819002419,-0.316952369283662,3.4902669073680026,7.9205787198693685,2.3618056400204304,8.0,4.0,2.5473185673633227
03-12,7.298230380901477,-5.412122882950154,6.609977150608742,-1.7900294817058078,-4.9709520280263275,3.3616966096926792,4.72432196893337,1.4756294124712954,-0.14766310858927734,4.9215936656278405,6.251342421506374,18.11539147262792,8.0,4.0,3.3697846317581774
03-13,7.014497232931339,-4.666738369953521,7.806148017512932,-4.181521628815819,-0.760287845409164,4.793874499871984,5.080035283829847,-0.5918784814117397,-0.09487279918994476,6.99079358966313,6.542151701865438,12.320482637552294,7.0,5.0,3.3543903198705647
03-14,3.0264788942428456,-8.353837367106303,9.36702573632192,-3.055357263817171,-2.2730861701384657,3.2011212017432586,2.289903934591426,-0.6460238328721126,-1.29577973876882,6.056618386632423,5.180245360176157,21.642727494222427,7.0,5.0,2.9283363862689655
03-15,0.7581887529878552,-8.148234568763337,10.976021388070523,-5.472954620376894,-1.1792120592973854,2.545283944373275,3.7872143841476946,1.234399817541486,-1.8574841285136379,7.222797115510596,6.068292722271961,21.325572117756327,8.0,4.0,3.104990405475705
03-16,-3.7261828246523723,-3.78657950422559,12.684883878535077,-6.521938981126814,-0.023272909788450164,3.2203095059034688,2.9372748502933628,0.5434009931055348,1.2061836793250644,5.529958413952716,2.8227067050596464,13.611110051472972,8.0,4.0,2.374821154821218
03-17,-11.366040670759267,-2.6462409659431945,8.817855458470348,-7.078356590936198,-0.5694194578130329,5.036522494485381,5.795524607405795,-3.8555473753682636,0.5876285513651739,7.392081703186781,3.485930039155507,11.692396243886305,7.0,5.0,1.4410278364279445
03-18,-13.239591348104721,0.0642785096932712,9.447102865666853,-7.677493124482091,-0.6714962929496257,3.5734284407745154,1.1233490586447232,-2.67444134315453,0.8041224528833762,5.153148227554666,3.4250915379049367,17.149215629384713,8.0,4.0,1.3730595511513404
03-19,-10.694907222330889,1.7570167709366975,6.535783837538654,-5.6615670584302435,0.9649038337664633,5.268744989307826,2.3557679186339797,-3.1224481509853583,0.9776648823132306,6.459575984807597,4.188162869546329,3.9884315441520157,9.0,3.0,1.0847608499380252
03-20,-8.436897610202074,1.9712839190927773,5.99949412048648,-1.1998241099774376,2.177454569188376,3.9804254570978004,1.1015400908903763,-4.656926382126068,1.3634052172699622,1.5544529965775573,0.16658371371746936,-0.8381529720131717,8.0,4.0,0.2652365841668373
03-21,-15.666025898141523,1.549389287259928,5.9042131090514305,-0.22014794414820854,1.7446447064737136,3.3195448443814444,2.933801253986508,-5.441418821665235,2.506188457220113,0.27600734402745913,-3.1299930074036877,0.17340335618401195,8.0,4.0,-0.5041994427311706
03-22,-9.53091302085823,4.268677289069755,4.23249304720925,2.82669879665716,0.8881801195400897,4.348700970690546,2.4336781308870203,-7.9505108254720875,3.6641205843471694,-0.1151989523772555,0.266155646958115,9.817228189119348,9.0,3.0,1.2624424979809066
03-23,-4.656323202132074,3.7127926542435845,2.4375628795366087,1.6114778451945149,1.728786940170481,5.812218962179518,4.0017248636711695,-5.3870079005440195,2.8387007793428567,-1.6223504570532534,1.224317600492479,13.411879057359508,9.0,3.0,2.0928150018717813
03-24,-5.5683707176802795,4.9394102426152084,-0.6445479565369463,1.2328231125243128,-0.8627686418100506,4.9814510960535365,6.356072767067215,-4.324630410367577,2.787457644664123,-3.2638970775104603,0.9501434899605898,-0.9383690819708101,6.0,6.0,0.4703978722507385
03-25,-9.43591045509989,13.803740109604718,-2.377844625891844,-1.4839007137681237,0.6653321291019539,2.1903366040866223,4.57197168990326,-4.64756739941133,4.304165299062423,-3.056143442561555,5.9312568559544925,3.9680695177551106,7.0,5.0,1.2027921307279865
03-26,-6.93462199950411,13.63987065476961,-3.1617498127372676,-2.7294406929877284,-1.5840448549958075,2.6846333202891746,2.849851423952161,-4.64756739941133,4.762881849044595,-5.533208449683533,4.734626613318171,4.355197125603107,6.0,6.0,0.7030356481380867
03-27,-2.31154066650139,10.39136206022781,-3.296702126781834,-3.5740843732619987,0.03898873431406166,2.243550944695653,3.700556489848972,-4.310709534789506,4.087924539834528,-2.853554513457099,4.037743095521769,12.896205165541055,7.0,5.0,1.7541449845993349
03-28,2.2597918676999584,13.08900534763783,-3.296702126781834,-5.413458897517264,0.42760675932822106,0.37392130227254844,2.020418446811381,-1.4427624077608605,3.327583229635643,3.5667878846976433,3.534898586549051,15.364147126766087,9.0,3.0,2.8176030932782
03-29,4.047416461520376,11.272308806908152,-6.212834040792037,-5.896065929827947,0.0855237245587977,0.874176746283277,3.730017478814699,-1.9456759498008327,0.8990572927168989,3.7751415221283473,3.5956679135557867,22.764409725936456,9.0,3.0,3.082428646000164
03-30,7.644659728373673,12.912860541032126,-9.118372954659842,-7.916466019883707,0.0855237245587977,0.025483157398195292,4.607099199667874,4.967098913704572,0.7253770988922346,5.914077815778299,1.8130262885295951,21.954485095019326,10.0,2.0,3.634571049034262
03-31,11.634666382354656,13.447564892307778,-7.142212713395068,-10.101993039501961,-0.19491658405355353,0.5525683708020298,3.168233100275171,6.685519452111767,0.3371416131181317,5.914077815778299,1.8130262885295951,17.024723009277054,9.0,3.0,3.594866548966991
04-01,5.601453013891333,12.544605151087351,-7.033720944188094,-7.726665233889303,-3.5285566344418644,0.9803878916714504,5.43230138244219,7.37978651819853,0.9399245962005501,6.410258989425055,7.947958704044714,18.067727091694845,9.0,3.0,3.9179550438447293
04-02,-1.8399731966653468,10.54076692831671,-7.015642431435132,-9.69708358221959,-11.068078440601393,1.9780437028256148,5.359330389001771,9.604013034121383,0.5436442618836345,7.286972241496527,5.943987007018965,3.985961837343371,8.0,4.0,1.3018284792572092
04-03,-6.583385551454592,10.54076692831671,-6.909322111214424,-10.499174144183772,-5.83298099810152,0.4549491461733429,3.1543450048688255,9.638864201675663,-1.3801753484401302,5.3593921168739165,8.226671513897761,0.0,6.0,6.0,0.5141625632009816
04-04,-2.4645493637846396,11.52036502889918,-6.601226378439002,-5.458008993075756,-7.002265229835013,1.3252932046248724,3.1543450048688255,7.1324812986114425,-2.621686016540358,6.279805003249099,8.48070389309336,1.153168943371875,7.0,5.0,1.2415355329203237
04-05,-3.61898065144974,9.02577879171746,-6.4166699245691845,-4.809448232978877,-8.648319396941611,3.145089789318244,3.193874748385668,8.910125656439233,-2.8999261277030124,7.505539508399277,3.634588447642948,-7.968236064995672,6.0,6.0,0.0877847119387279
04-06,-1.0319555808740042,9.824984554343832,-4.878045380783947,-3.1391037054234974,-10.512105667048093,3.04920479746229,2.4272349366151222,9.996204103713875,-5.102371196823722,9.676560315992827,2.804098837298146,5.760037855217469,7.0,5.0,1.5728953224741913
04-07,-3.5733427843131915,6.967988632058662,-4.7410271156777055,-3.1391037054234974,-10.042495946780674,4.411905102691145,3.5502366447149045,9.978588288105998,-4.3627394735578795,8.391671554053952,2.3173537566978206,-0.3886414117697639,6.0,6.0,0.7808661283999809
04-08,-3.7603222551155184,4.38902613887654,-4.7410271156777055,-3.3474445821281056,-11.856485065917846,4.655655125718098,2.640020208141328,7.433540785826648,-5.6597692437347416,9.347600470474877,4.226436192900659,-11.827162754388503,6.0,6.0,-0.7083276745853561
04-09,-8.853793132949384,6.346657664431464,-2.9231724788151365,-4.280310311908445,-10.180410926787244,3.3124873079493176,2.0368453694259294,6.753181838062093,-5.6484420907713275,9.291922307500556,7.938731693496859,-3.8702157819015213,6.0,6.0,-0.006376545188903293
04-10,-9.95386896663939,4.1923682186997695,-0.7601488789491004,-0.386101864643198,-9.931619758279915,6.6330425383027105,1.1361316735143947,6.505812642280105,-5.332333582102573,6.25217076344704,7.38273473718489,-0.3244481684768281,6.0,6.0,0.45114494619482554
04-11,-9.95386896663939,5.158837024024445,-0.7151116498812361,1.4360938667554877,-6.945713483251498,6.138184683330048,3.080854248573363,8.539293362671744,-4.416470539784966,4.529186646195556,5.012506217141623,-0.3244481684768281,7.0,5.0,0.9616119367215289
04-12,-3.077182837136067,5.750968031414964,1.0059751837927704,1.1368966278334331,-3.5020403048067994,4.8724806408110455,3.6430185447785526,2.8209628131115005,-2.330220739925552,4.69670545691445,-1.3180633875392023,2.1031213919107183,8.0,4.0,1.3168851184299843
04-13,1.8996311271576372,4.5341446935521095,0.9935558523301067,2.912711138994837,3.1184839942071703,3.401627520555238,2.0988407296073976,6.040106394940526,-1.4102447942789498,3.7954981151627343,1.7510098634548068,0.16143840829999284,11.0,1.0,2.4414002536653006
04-14,3.0438926096074526,-0.6075703569886841,0.9305662988978962,3.438883446034704,4.652878828611833,-0.9289157516567396,0.9244058342612784,7.928061067654789,-1.5162764735385657,3.7954981151627343,-0.039185849147574094,5.186352325569246,8.0,4.0,2.2340491745390305
04-15,6.5467703914496855,-0.987024172114458,0.6442387320514377,5.298562640867333,2.4597046991420193,-3.1103437973627637,0.5078204394162451,10.412972227325437,-1.5162764735385657,5.611295654987927,-4.331840633573404,11.316140961291847,8.0,4.0,2.7376683891618954
04-16,10.89138464463026,1.7821211669473596,1.6911232583411946,5.732893223674021,2.279995712571869,-1.3953014970139903,1.7445336886272083,8.365873288498266,-2.94623426211776,4.940495099948072,-5.515462344454736,23.470244083062564,9.0,3.0,4.25347217189286
04-17,8.609668720166145,1.306891179953993,1.8842655358974867,4.56242110757053,5.232753198791689,-4.540813212492043,2.5165375582464065,5.434115253888624,-3.502700393264343,5.940591310689585,-6.0281031776884095,12.32187954254332,9.0,3.0,2.8114588853585825
04-18,14.861571281630424,2.9390654410171653,2.8129148335536533,6.347212959558174,2.9622184786847456,-5.642855897241709,2.0052135981912813,6.269668522118364,-3.0424895022249014,4.006464088369118,-13.037330978895595,13.725907133707546,9.0,3.0,2.8506299965390216
04-19,11.830495235804852,3.6835576004642956,1.325041633633937,4.868228179219282,4.535891026334913,-5.642855897241709,1.2228389305616645,4.409279511600772,-1.5456603096685204,2.237462988607447,-16.51975231908189,13.344559832818137,9.0,3.0,1.9790905344210987
04-20,15.299637303581784,1.8052091109860846,-3.3934333029733055,5.719253358176339,2.0449383722392,-6.600078100739569,1.172905605876916,1.5626870268590085,-1.6782921530897197,2.2974712988591097,-16.51975231908189,7.6284531055846925,8.0,4.0,0.7782499421898882
04-21,21.002222204100715,-1.4785966204632903,-5.259695174529953,5.197657731171076,2.732511651291208,-6.665981231657524,2.8171879152354995,0.2268624704930701,-1.9834346691951488,1.5516546629334849,-20.074018048048845,13.350452405613792,7.0,5.0,0.9514019414120072
04-22,20.630898584925173,-7.454601220674115,-3.8200956014544376,3.815802288818379,6.113890648342828,-3.1133464361618386,-3.3424963000987837,-1.9914316914331918,-2.1577982578939516,1.008538726657311,-17.788776564917626,6.297497848485856,5.0,7.0,-0.15015983128369959
04-23,22.45582370892692,-8.12969782315967,-3.8200956014544376,1.6050930066589273,7.172326919916479,-1.3992131777161738,-3.3550638941719226,-0.5293746127125297,-5.801353812833022,-0.15697947848638566,-16.834722676435835,3.5340290717544893,4.0,8.0,-0.43826903080943014
04-24,18.521863583707635,-6.950656380392319,-5.740295113904632,0.3054306624771626,11.614711366105206,1.2501169454610055,-1.7248625978810055,1.8459266066536468,-3.147007808964254,-0.6146254736970442,-13.249078038615462,5.410121147428312,6.0,6.0,0.6268037415315211
04-25,19.489231069595274,-9.875940548110519,-2.6991751960038424,-2.3463818554960665,11.631612760021838,5.487164757861921,-2.397979317825581,-1.3726510255029092,-3.9044542549204717,-0.09541209946919824,-8.561100878723215,2.8359494605873286,4.0,8.0,0.682571906001213
04-26,15.097931149277228,-11.543045856566772,-0.35932584169554593,-3.2540420728811172,13.618558361938483,6.422371693992758,-4.128342898771725,-5.264495704196808,-2.9135728794504194,0.14432308992612355,-4.0944363757332685,7.803768061675083,5.0,7.0,0.9608075606261682
04-27,18.797975883094693,-2.009577831324653,-0.8209324985437949,-3.7297794727471274,11.580851557757562,3.607594295915939,-4.128342898771725,-5.995232130993244,1.6289410837888116,0.8489684966698882,-3.158567754184686,13.430514567435209,6.0,6.0,2.504367774841406
04-28,14.024146882549651,-4.468207371230641,-4.958291118638391,-4.481445435636633,10.398296101910947,4.125930065573394,-7.477347918876742,-1.9546809023772802,2.157817744628657,-0.32260569697293945,-2.928695032676315,9.751205047095514,5.0,7.0,1.1555101971124353
04-29,10.252562643318026,-2.6573214207400007,-5.961196424045844,-3.098296269060709,8.72136649662069,3.8788080535900784,-6.776569910603511,-2.8635496271123912,2.6549630970208966,0.6557366955093611,-2.1052631578947367,4.022526047660697,6.0,6.0,0.5603138520218796
04-30,9.726962716541845,-3.450826340601465,-3.983503517430402,-5.353539309167621,9.352087129669565,6.817531894816059,-8.02401593510685,-3.0627478757711915,2.3865083041283217,-0.6472996193945298,-2.7272759911848112,1.431540312208432,5.0,7.0,0.2054518140589462
05-01,6.029576055418568,-4.779480011485652,-5.136472678892944,-10.085117130912751,13.053337657792035,6.5255040228350065,-7.9694357787792045,-2.8322966202445654,2.8194279355727967,0.9437165012656074,2.596986478001561,7.531122428749648,7.0,5.0,0.724739071610009
05-02,-2.4459630662224288,-5.0703142437998245,-5.216236601527383,-10.150186259199627,11.15153612013261,6.5832568496945285,-8.504367953377402,-5.251108929805983,3.0191074728197145,2.9776276562402932,5.500214505972451,3.029043695773624,6.0,6.0,-0.36478256277495213
05-03,-0.9529152177125118,-7.041192834913114,-3.2951334080193027,-8.852958470339889,7.951591721985279,4.475458573232751,-9.544798536649726,0.07436508386755167,2.206117078150905,4.51851676030413,3.666806975511067,1.724137239585374,7.0,5.0,-0.42250041958312395
05-04,-5.553114894545558,-6.79065608725965,-0.6344078828455583,-6.407280609216618,6.422155593650585,3.396922266240613,-9.859619817164392,2.733852354145702,4.67993396120641,5.629626615547839,3.30648868842819,1.971473617224254,7.0,5.0,-0.09205218288234873
05-05,0.056299667571026384,-2.2656572481772987,2.1290604145418874,-5.881758336858249,5.389581323663859,3.1707317073170733,-2.984747029065681,-1.0570805066654017,2.2270035102603556,6.263374987943673,4.139527662085972,12.185353846279178,8.0,4.0,1.9476408332413662
05-06,-7.65065591926952,-0.1369455003925288,-0.7690861692934122,-7.6330394336408816,6.8096111530296906,-1.3000920449506312,-5.340128053120719,2.151477774087955,1.355561644114496,9.718590557222786,1.9135657315996775,9.514409217019454,6.0,6.0,0.7194390797005304
05-07,-1.4908809570150208,1.3596859761314815,-4.4081756022960175,-8.78413383753404,-0.05899404962361771,-2.8462082081173645,-3.3606024168633404,2.201223966981356,0.0,9.460212607733583,2.0281826640578395,8.243114960698811,5.0,7.0,0.1952854253461392
05-08,-6.115406068296328,-4.167068734178051,-5.028778128579076,-3.7824361586408672,-2.695855786487858,2.3329495197202554,-3.3606024168633404,1.7982048057943765,2.259881859461065,9.540993584843369,1.673113583681394,2.2792036622251817,6.0,6.0,-0.4388166897766566
05-09,-1.7807853010092844,-10.59299704150007,-4.183435923759749,-3.7205137421708923,-3.933406738993952,1.804920138934668,-1.2712818234776022,2.817596182511866,1.5787790903952552,4.823853521052448,-1.4314865452992562,5.337134457460209,5.0,7.0,-0.8793019771546967
05-10,-1.7807853010092844,-5.865395904837592,-6.3309337881257495,-4.729602096680697,-2.0239893863246596,0.49923603511748066,-1.2712818234776022,1.8949099910713456,-2.1722707908218375,3.2769607242527212,-2.2494847223248673,5.337134457460209,4.0,8.0,-1.284625217141711
05-11,-5.706098002772177,-7.580112168398367,-0.5940080117995933,-2.4877153241007406,-2.0850921401091145,0.49923603511748066,-0.13116488073453889,2.6306197419583137,-1.7373482703823884,4.529191366711881,-0.6350191740776324,4.740060314797103,4.0,8.0,-0.7131208761491479
05-12,-5.867896249941559,-9.796371450343184,1.5671645083972447,0.6489636701274761,-2.0850921401091145,0.03858112983179349,-3.4899196225638875,3.1054426747620774,-2.190567410604701,3.4965058825682482,-0.6350191740776324,4.89670546742155,6.0,6.0,-0.8592918928776406
05-13,-1.5158121880217055,-8.361744682084698,1.641785967294081,0.6489636701274761,-1.7199466290732202,-1.1541761413418516,-2.7481737591793425,5.332210167958711,-2.2229472630750635,3.4965058825682482,-5.233541480851335,6.298596326336668,5.0,7.0,-0.4615233441118359
05-14,-4.526152217994866,-6.366551644400737,2.3320896186284767,-0.2480404779532906,-4.463805133498366,0.7925158067893231,-1.9438239965545996,2.8767445076717286,-2.2229472630750635,1.0835164322261088,-8.237714977176593,9.804661888540652,5.0,7.0,-0.926625621399769
05-15,0.029290528855508494,-3.499103236327408,2.3320896186284767,2.4963153960956697,-2.7227024536021793,2.3291230352441903,-1.6516867648349718,2.8767445076717286,-4.076034773343186,-2.0974874115964206,-8.322810181611294,9.577089476391016,6.0,6.0,-0.22743102153573913
05-16,-4.072076381116626,-3.499103236327408,2.3594202457215663,5.63608966975912,-0.29360790805715287,2.557279569324701,-3.1460708446716836,1.9562582632458057,-2.8612152767206953,-4.55210477343009,-10.123799570871936,0.5499732942251636,5.0,7.0,-1.2907464124099364
05-17,2.148461018428019,3.079521841621611,2.3485907348041546,3.6142208169987184,-1.8218761842849984,2.7474088055642434,-2.9725198884148494,0.0,-3.715681878605132,-5.335670737864227,-7.624663096866828,-1.549185217885391,5.0,7.0,-0.7567828155420567
05-18,2.9238957757402337,1.9076688953270904,2.3089579046721207,4.634122590525121,-2.0928997522959696,4.096742469486368,-3.5065966002269473,1.1676461911448386,-1.5280754292093903,-5.035069031175836,-8.388291073008176,-2.884044282519573,6.0,6.0,-0.5329951951283434
05-19,6.126178966181257,-1.3884771401915408,2.033463839533788,0.7822565919775833,-2.2006165613228967,3.3081284490018263,-1.689950387447926,0.8297190946691176,-3.875539912100181,-6.421171238176939,-11.576942980816106,2.2196516027728954,6.0,6.0,-0.9877749729932601
05-20,4.946853022380507,10.63573000879133,1.2385654284561942,-0.9063382364805049,-5.042598140248003,3.311821934647394,-0.7686336941169352,-0.21052404822948914,-3.1004353088827585,-8.182666657686589,-14.411337869537164,3.940886322372351,5.0,7.0,-0.7123897698778056
05-21,3.8859028616274673,6.64501499963747,3.641743555316119,-9.305115031830065,-1.920302678783207,2.343896413054519,-2.7861989304790673,-0.6439586911039087,-2.9977865472677694,-7.689056689012929,-15.286317988760906,5.508396777851867,5.0,7.0,-1.5503151624792009
05-22,4.6575682343003155,9.642690848861658,6.004871916152194,-12.090708098104223,0.9306983597495169,2.5289107567431186,-1.4043365576903144,-0.9690629891890842,-3.8247104075643303,-4.289208768705595,-10.239683208126047,5.580639718612161,6.0,6.0,-0.2893608495800526
05-23,4.54733783331294,11.273127101203537,5.707306166726025,-10.699895404134905,-2.2408882106149735,2.2562766418242277,-0.15728500875010362,-1.9570914270624227,-3.7331860369758787,-5.489793639867716,-8.314031203600948,7.097707027248483,5.0,7.0,-0.14253468005764428
05-24,5.3817818476682815,5.46654759704441,2.7507794490717963,-6.184158090831593,-1.7973836615322405,1.5417874845369874,-2.0256401099757437,-1.5011705070707788,-2.0257583406340216,-3.3063578331888785,-6.253815627396102,6.727112958336037,5.0,7.0,-0.10218956949765379
05-25,5.767930036658664,2.4026105594622824,0.7866784632189628,-7.195535148344787,-2.0230242439259585,2.937903729486987,0.5909888241450939,2.7394010630420937,-3.2558083579215054,-1.3948706346613227,-6.192858596429484,13.269267517039934,7.0,5.0,0.7027236009809136
05-26,6.010855479799929,5.334095210730148,1.5696705031674651,-10.471979175256969,-0.3674186541500367,4.198679428013152,-0.04488936735872606,3.5848143588493198,-3.482699536792332,-0.06027182296546303,-3.370124694930585,17.17920122168582,6.0,6.0,1.67332774589931
05-27,8.546556935569196,-2.600909971231547,0.7251706423930572,-9.858568845436375,1.1757594548605037,4.364896982971993,0.10101733257379078,4.440019784943315,-1.6676133808932094,1.4584933572900505,-2.966905651893447,11.333448024414071,8.0,4.0,1.2542803887967833
05-28,3.50830483674211,-0.9921961309318938,-0.18358449032506888,-11.695785767115424,0.37988149107195024,3.2201673763755942,1.3936534511595564,4.686035580363998,-1.7137692949386576,1.24075729344064,-2.2417884161071924,7.17239187822646,7.0,5.0,0.3978389839968393
05-29,2.7375382838454962,2.8706249856687163,1.480411092002042,-14.065049779454647,-2.881264970271303,3.6404687356776675,1.9024456929913538,3.807047943951283,0.5106561668764016,1.5252970249758213,0.08092450268695808,8.376774686209759,10.0,2.0,0.8321561970966291
05-30,-1.9534899942898671,7.299802387663176,-1.3652839655449251,-7.242221331032458,-2.360562711819695,4.426372205570517,1.8250209700748172,0.24521450984412688,0.28926848551505757,-1.0888840231580288,1.258379054669283,6.866797809597144,7.0,5.0,0.6833677830907622
05-31,0.47995217896468245,8.219551000481266,-4.230732827723519,-7.11974791887063,0.4088550176141719,4.805781247953976,2.0849413765413756,0.03685806551399285,0.27606007811367933,0.3720950878699668,3.7045767036349404,-1.2903222438384532,9.0,3.0,0.6456556471879543
06-01,1.1594969003251387,7.452955800489821,-3.008667712878501,1.1111098308578813,-1.6354200704566877,5.5988534925890034,0.860043173869072,2.6873984896594494,-1.652986861192634,-0.08456530581065011,2.4461976489656574,1.4456882745769193,8.0,4.0,1.365008638416206
06-02,0.052460217085040985,2.364987854219665,-7.815690386762886,2.481117042158538,1.1850309827916614,7.577617649556256,-0.6164485707669517,2.3653621056387926,-0.8433599431308555,-0.3551781555562896,4.092959883180021,-4.979893381364972,7.0,5.0,0.45908044142066834
06-03,1.7465487474509291,0.5978766522003743,-7.475449214243582,4.298113061554256,-0.007586538954908508,6.463207222734432,1.1878326743720615,3.3115032461018274,-0.30360580472267495,-0.9699646060485201,2.6065530919696345,-1.410257288063182,7.0,5.0,0.837064270362554
06-04,0.0546087583991041,6.703507171658532,-6.017298188725271,6.456951472661046,0.8775205526718902,5.356345471802589,1.8422820169541918,1.4192209651757575,-2.4816130629538113,-3.932385576956422,1.392304228864337,-5.087656263208866,8.0,4.0,0.5486489621952562
06-05,-0.3549517218163202,8.379382236745801,-7.331952468744725,3.0191074728197145,4.814101462242183,4.967411788066253,-0.7414105672860429,-1.3594366846370085,-0.7681883540028854,0.03430021830327073,7.100797345143602,-13.014485309890016,6.0,6.0,0.395389618078652
06-06,-0.6143303047674914,8.104668695996015,-6.660144311583144,1.0734745305437392,3.65070955227905,3.7167528506915946,-0.10110533664254692,-0.4697703749353685,-3.133873221067663,0.8028719052829061,4.940783764717566,-18.34984975631513,6.0,6.0,-0.5866510004833728
06-07,-2.2191380138452876,8.238070885948375,-7.086225389248438,-2.7006611156679723,2.1461787305146514,3.5494087958438016,-0.3378032428836415,-2.6806054358631974,-0.34149465790393563,1.2559658345198832,4.568531282625559,-17.34366191620466,5.0,7.0,-1.0792861868470718
06-08,-5.406176885421811,4.7464062661877175,-6.6053428307434645,-1.0113995990093794,2.927945518052727,5.431779576651604,-0.9516302245731856,-0.5299692955295399,-1.136361148483058,1.4736683678583185,3.8917140645841792,-18.757173071504567,5.0,7.0,-1.3272116051608716
06-09,-10.625367238083543,2.480037074056504,-9.315179378861563,1.0867248867001438,-0.48094480311806276,7.179183742755281,-1.1466785715708738,-1.17225284069468,-3.397611330526255,1.188979456850725,6.834335930636843,-13.449071533799456,5.0,7.0,-1.7348203838045777
06-10,-11.82939363378113,-1.8064398833111057,-6.2463016181182995,-6.302031379147986,-0.9355838019989482,7.426966143190117,-1.824532863923791,2.440192527226946,-3.168037671973352,-1.2092655922481286,7.762266520669956,-6.042703086094491,3.0,9.0,-1.8112386949591845
06-11,-14.512769886149531,-2.8266607787124176,-3.3254419462831577,-4.918965331534276,-1.3342727410561654,2.0527338203265932,-2.6149029700576047,2.643539622978313,-2.497428157189362,0.42190531684003885,4.4832129726669665,-4.494383511031708,4.0,8.0,-2.243619465766859
06-12,-15.300064020276146,-1.9749164008565718,-4.542726892974894,-10.918723764970439,0.3995305709237694,3.783829957480702,-1.3470709652903126,3.6804740950906063,-2.3806769747065455,-1.403748492634627,5.5641960076507475,-7.395299030568155,4.0,8.0,-2.652932992594322
06-13,-13.26500348433951,-4.16865930109229,-6.553376067364132,-10.409716482936316,-1.1224843830322735,1.7238407669955091,-0.9961568024596464,-0.4071081186699365,-3.627415254703413,1.1948531931228097,7.089911627201001,-6.659853464193163,3.0,9.0,-3.1000973142892807
06-14,-11.10302062004313,0.7560592460228879,-4.684537887437195,-10.183127709901116,0.08342859708720898,1.715219721899947,-1.791214680539021,-5.585961602757338,-1.0568185286088423,5.164206818461226,8.507893952641203,-2.917404998208453,5.0,7.0,-1.7579398076152188
06-15,-12.862644694250536,-4.6860202307056,-0.4491739752206115,-12.725995107327234,-1.1224843830322735,1.2042968391091415,-1.3172878653982776,-0.84403968367737,2.224214561002548,7.8673444492784395,8.18562188951974,-7.075473506355469,4.0,8.0,-1.8001368089214587
06-16,-10.304661917892629,-10.125700062038288,1.4451967854718566,-10.49807494177837,-1.7708628513053597,1.5624979418284992,-4.440581833106884,3.9070014871101275,0.5616715556671996,5.898489099163218,7.208771409889902,-9.969782066697672,6.0,6.0,-2.210502949474033
06-17,-7.847470516410724,-11.88369877565943,0.8244408212425435,-11.237669426125498,-1.2530446894359055,3.8250908757116404,-1.67903316969568,3.056091775103304,1.0671725275965631,5.570847978476077,8.254618011070319,-3.5925773792065865,6.0,6.0,-1.2412693306111147
06-18,-6.154299790730825,-12.046353708710065,2.1338477020389135,-5.127069931515791,0.2143177084954599,2.5825843478474777,-1.439171288310583,0.2996164821250533,2.144444783528646,6.276619416088574,5.145551052281147,-4.480853660878231,7.0,5.0,-0.8708972406450187
06-19,-2.9446408332125795,-12.442815413253413,2.1338477020389135,-6.480963598195497,-0.20693133127550142,0.6435006266511535,-0.8223798586082834,0.2996164821250533,2.144444783528646,5.906934385674323,4.7695724424521195,-3.2372668665379285,6.0,6.0,-0.8530901232177497
06-20,0.647813344925679,-12.442815413253413,3.491153916152396,-4.497413863503324,4.997098306969463,-1.2269414566559536,-0.6053669455425951,0.2757081426365732,2.949622478968383,2.4264715552925713,-4.442667311685711,-3.4741380316508432,6.0,6.0,-0.9917896064455647
06-21,-0.656328215091587,-11.637059513742381,0.8634064550242326,8.86288975319805,5.425015028600822,-0.7378812422421521,-2.693255542029942,-0.15334381302709685,5.683663358117935,4.761906245628116,-5.493382048999621,-5.134371294135649,5.0,7.0,-0.0757284023916059
06-22,-5.059940573160757,-8.246899443117796,1.8403734649298131,7.661499304277044,7.593560233481156,-1.0152286596362639,-2.8131244468533,-1.014978632441206,2.890366026738181,3.2018281133497464,-3.4262221147190672,-3.760882212917039,5.0,7.0,-0.17913741167245734
06-23,-7.440523340154484,-7.000498718666664,2.0631593333489002,10.527977582492577,7.794173964780865,-0.5653136292157387,-4.348342621786087,-2.102462323412386,2.7796257490620255,4.574041052162238,-3.8532118439704934,-4.066651940618459,5.0,7.0,-0.13650222799814204
06-24,-11.125780224579747,-0.7610725076172805,3.911215538571339,7.717389645783798,9.25213019877508,2.341663039193912,-1.8680755239666094,2.05413790932286,3.2225953087082577,5.185845906788391,-2.2468080282559098,-1.745999047871873,7.0,5.0,1.3281035179043517
06-25,-11.105709478414093,-5.761074712644537,1.8969344633720044,6.332742610791621,6.876073975433306,-0.03448291513644071,-3.7400920132635345,5.038672898383492,1.3990724384477078,6.047444097581891,0.12201953243448939,-6.935078015948893,7.0,5.0,0.0113769067530843
06-26,-9.373477509991412,-1.5606888916754038,3.109609971806225,8.230406552756959,7.291516684137061,0.978036559305334,-4.225351858311602,3.700532103755277,1.1872490081097253,5.113769197412226,-4.419511771817522,-2.782461494594266,7.0,5.0,0.6041357125743835
06-27,-8.402134674189828,0.7531566960685419,1.5600435306670675,4.051477536662721,7.914535339480966,0.6177086786066553,-2.0830893368801724,4.785564009963135,1.8076352342488806,2.3942670601720493,-1.599378876760626,-4.658522266325864,8.0,4.0,0.5951052443094604
06-28,-6.930693431197183,0.1420872656176207,-3.433998033047984,7.3138809231501085,7.443601095561093,-0.2573807979079522,-1.1137126779066517,1.3872153253458146,1.7764544401890399,0.9305339547827721,-2.757555591236817,-11.975645816458329,6.0,6.0,-0.6229344452590388
06-29,-7.13599853515625,5.02179553324037,-4.257254636926763,1.9264221767274246,4.892111130142421,-1.6527501226603043,-2.0227100377977205,1.9967077289512853,0.6293471312187632,0.1845045324697866,-2.6803359559060396,-9.36123316554828,6.0,6.0,-1.038282851770442
06-30,-6.407639386751125,7.901877169673852,-5.670103569760735,3.1998203089871358,5.740163927543109,-2.824460221183294,-3.966279543519214,0.5009520363677528,0.05520928776228097,1.8129328331773509,-2.476882530499942,-12.70300108466396,6.0,6.0,-1.236450897738899
07-01,-3.6647638993132245,7.089270069264085,-4.184353433890597,2.317408610246937,6.495756146193746,-0.743366403494657,-0.6335718231423526,-1.1211861670626357,-1.9874164268774874,1.401641592012625,-2.409235176292307,-5.4568568055556295,4.0,8.0,-0.24138947649262488
07-02,3.384476363395571,7.783198705235078,-4.346063590315557,4.293551975321894,3.9431438400848213,-2.459450683605585,-2.9069047074418166,1.2881610792390552,-0.6099610095631276,2.826292143910152,1.340847821302817,-6.44753778407077,7.0,5.0,0.6741461794577108
07-03,5.791218553566514,6.367217699165188,-6.752144391598199,-1.7696284466776426,4.413395815274938,0.2988885385839205,-2.21020581128003,2.209612640761342,-0.5442472897048021,1.7494585462626864,-0.2298815497036638,-6.215762367986636,6.0,6.0,0.25899349472196787
07-05,9.55956524459895,2.375831378742305,-1.6942486973778002,4.860389965428664,3.7235190745324296,1.1699360674972739,-3.264556750240941,0.5885860225459835,1.5267109521002442,0.29130976292079735,-3.9675984934297115,-5.416144226509099,8.0,4.0,0.8127750250674247
07-06,10.001430717112685,2.1174430123281036,1.6918217407311253,6.266802223207215,4.162385824592463,-0.1557769800275719,-5.7018588048330745,-0.8776221509851954,6.02269160451083,-0.6230754423511524,-5.8222783687371615,-6.891433440448457,6.0,6.0,0.849210827924984
07-07,16.210236135554602,0.3360522986013988,0.2504522810427931,5.387796534534791,4.925173804873512,0.2671471528334581,-11.279354396388408,0.6089392233386066,6.224149368194555,-2.0634369514327626,-5.524992630038845,-0.8595384504284096,8.0,4.0,1.2068853642237742
07-08,14.905629461340956,-3.71021589503407,1.8206333051705104,6.880409298962295,5.993141704343228,0.1463608839535279,-9.259014435765197,-0.5236881037382082,4.972956137654325,-3.055803482654352,-3.5730705165890684,5.910352341249739,7.0,5.0,1.7089742249078075
07-09,12.296922137756292,-3.075572722314318,4.623827699884141,7.80006573749977,4.863204231264399,-0.008575295216017745,-12.104096671221509,-0.9621250878760179,4.31347507747509,-3.089496384502521,-2.2245183600187177,11.65570558714454,6.0,6.0,2.007401329156261
07-10,12.464987865095638,-3.046282759579315,6.204997701641257,8.076130370972257,4.285518799343535,0.8538144802293192,-11.10527662547522,-1.7302781925047306,3.541062087880505,-3.345271520375749,-3.5049748288329283,9.543728296260694,7.0,5.0,1.853179639554605
07-11,10.602240242362566,-2.26744577178499,7.093926602461022,3.790578792232508,0.3609386034740089,1.9836097308307548,-10.67157726033232,-2.3709534321486543,2.8721470102846274,0.7642087752611443,-3.604010061264003,10.440322787697829,8.0,4.0,1.5828321682562077
07-12,13.52119774779358,-3.136909046256363,6.892006174486791,4.84899077360738,-0.4442280538017652,0.22422985224572484,-10.3380495560766,-8.11428493923611,4.532521268333943,3.30269927706765,-3.672446634917549,7.983618900720568,7.0,5.0,1.2999454803306039
07-13,14.540099418086328,-2.9791711352909798,7.159610842889512,2.8843160892597024,0.3678864518228146,0.43889373513764174,-12.040972567069845,-4.213796790855575,3.1029049513522278,1.8850332655376258,-1.2203463630246547,8.340130661157655,8.0,4.0,1.522049046583538
07-14,12.960975083815518,-6.046143574647573,7.072163574453823,2.5603558523649603,2.598902054661194,-0.7577101105159073,-16.45033544733956,-6.079216029493951,3.0395749376442796,2.936597701411729,-3.8376023545701923,2.63591960007268,7.0,5.0,0.052790107321416646
07-15,9.47712262132025,-5.598652565133605,2.7673654865602804,4.290700455492546,1.509545851591478,-0.0440982908783428,-8.3279136668221,-5.414890650443668,3.0079139568560356,3.2981530186789314,-5.291255233159055,-0.4019433570320154,6.0,6.0,-0.06066269774743884
07-16,2.3272235407169153,-1.7104228942536615,2.450276793730627,7.692311759365808,0.10366190886166446,-2.503501981645789,-5.994344983486492,-4.3494626144361375,4.250887360236739,3.515287263406055,-3.6701643210884214,1.402062484898518,7.0,5.0,0.29281785969215196
07-17,1.8476800561282585,-1.4419298059268641,1.846663111741087,4.3390918046997555,-1.2005521542423137,-1.6896997665659017,-3.550298703464152,-4.192738936351658,3.6889506504014986,4.295607747377403,1.010916967078887,2.762886912552352,7.0,5.0,0.6430481569523626
07-18,-1.9746142394198647,-1.4217541053317477,0.47059152640548413,1.3366035704880466,-1.0378682038793967,-2.1209220455533337,-0.24440757219881531,-1.897188628709198,3.615726785237419,4.156972629799089,0.4892232689694434,1.649482963011437,6.0,6.0,0.25182049573488025
07-19,0.8230431571501396,-4.62564321664662,-2.371576429420918,2.1901413788750603,-2.1857121147271275,-2.217728006136294,0.7766750741544306,-4.243969627447053,0.1587989914596022,2.5324522679813746,-1.3861414823029592,-2.404463048213251,5.0,7.0,-1.0795102546061346
07-20,2.3368847170950793,-1.5998432889202145,-4.636627876797403,1.2145282512424633,-2.749329747044337,-6.131212476959856,-0.9586706054728426,-2.7788224279180262,-1.4514774390324023,2.564307739530757,-1.5841591549492287,-1.8143059050212815,3.0,9.0,-1.4657273511872742
07-21,5.296810315936556,-0.7079658233122196,-7.7362665257795875,3.235440615965965,1.6965882204201057,-7.506479583142993,-1.1643110429393968,1.0683560197513968,-0.6390857552377505,2.15815807203857,-7.573701014877932,-8.734093876106808,5.0,7.0,-1.7172125314403412
07-22,7.811485682054108,-0.19417179440989077,-8.767091287594603,-1.1235894411151022,2.3132675386335633,-4.23933959096998,0.8470179097904105,1.6875067904573013,-1.0723547086677994,2.4378620562093656,-5.760368727550025,-3.5699537245567967,5.0,7.0,-0.8024774414766208
07-23,5.396051353005002,0.6504836591702063,-8.399668754406777,8.946138690171253,3.59319856616068,-6.738469925344612,-0.302278049682411,4.394807121373131,-4.960625373477752,-0.3676145206925428,-10.8734130859375,3.7438453711899635,6.0,6.0,-0.40979541237261324
07-24,4.268129127067934,-0.6990303113622574,-15.282755075228598,9.684129062459675,5.971801216281433,-8.964738947215105,1.222227257905834,6.517091646473919,-3.161968719565715,-1.388217271606638,-12.008177915767897,3.3694563240840516,6.0,6.0,-0.8726711338727804
07-25,4.768000194010759,-1.2495106880039326,-10.727690900706037,12.001099575808741,5.66509155957091,-7.6706679969934575,3.8112682823724384,12.655283050864094,-5.799046151243938,-3.1744792798754133,-10.212763194424905,4.315268229968428,6.0,6.0,0.36515439011230705
07-26,5.011503589580327,-4.493249031318271,-20.28216876995989,9.712699915412006,6.708485242381497,-6.329707463084648,5.780120811186924,11.26186444015596,-3.949531995453668,-4.960498602106215,-8.691163892374284,4.578498809790438,6.0,6.0,-0.4710955788158185
07-27,0.5754051731029194,-0.6203673224352745,-14.538849874240103,6.385541512708824,7.367811046534911,-6.911184235135543,0.7727761365454711,11.72825713238248,-6.231328143768701,-5.1967071987195395,-8.2140488285166,0.5121901105636943,6.0,6.0,-1.1975420409147886
07-28,3.622040180277976,0.13902621041823887,-18.89872726189976,7.729382622191032,8.746370889794845,-5.205047943857622,-0.7604587079884375,10.646384296586362,-5.611510548366436,-5.807605643378214,-4.430061637076655,6.321836473616976,6.0,6.0,-0.2923642558068081
07-29,3.8774410622566045,-3.5306230070023155,-17.2548597595517,9.00283865626708,8.895737817800986,-5.484759597996436,-0.5692041327826483,8.633416885244587,-5.301605972798485,-6.205540421382603,-5.732638610194859,1.8615908600405893,5.0,7.0,-0.9840171850082665
07-30,1.7387799879723338,-0.36026605107963977,-16.818031086428785,9.482680705289294,9.234057010936139,-6.504822057552335,1.7390208736911887,11.988371102903999,-6.754933188438763,-5.807605643378214,-10.446611371832141,5.113054214160321,6.0,6.0,-0.6163587919797168
07-31,0.215667417231529,-5.517241920911084,-9.104577423774467,10.329369259194888,8.057380913419394,-2.9055044773104113,3.42799681384726,12.82676338904673,-7.466396364502536,-6.123458799511294,-9.335203953682228,4.563050868820806,6.0,6.0,-0.08601285651095125
08-01,-3.315809413020978,-7.497904236698108,-7.934148804713368,8.971455969888954,2.7685337220227066,-1.5890949371451948,4.3663178411667545,13.70614080951561,-7.353109873602112,-2.031364269277023,-8.064520557822464,5.540845818391644,5.0,7.0,-0.20272149427446506
08-02,-1.429140975805319,-8.85632805505931,-3.0325040411069777,12.474956279650991,2.154728419885988,-5.1339907501750375,4.066262363654974,11.772505027985666,-6.09055763757043,-9.08696954428249,-9.917359070015207,2.2142540649614983,5.0,7.0,-0.9053453264896376
08-03,-2.624178632220887,-8.08800181373476,-3.5948418905216593,2.795483248365832,1.4194381760477979,-7.5820236989122325,4.3663178411667545,8.741412810671092,-4.612847745463728,-6.037769467512699,-5.3052566449314,3.3354226560407554,5.0,7.0,-1.4322370967504279
08-04,-7.809021292213897,-8.238751614311193,1.9893646240234528,3.7151719562852654,1.5390533996239824,-5.391649936988649,4.086994357147005,6.628245706076692,-6.4368008651794275,-7.328481380418113,-5.4176640329951455,-4.125479439569016,5.0,7.0,-2.232418209876587
08-05,-7.866714596941618,-9.737551275702637,-2.042551243558843,4.730155960939753,0.8425061232893234,-3.0351863217106323,5.372474975093695,0.06650139412764952,-5.518939311302178,-6.89327720760088,-4.056904511774009,-9.492991738361304,4.0,8.0,-3.136039812791807
08-06,-5.9604464156986525,-6.331016345702201,5.744682474339262,4.9015239301831155,-0.34710771551677616,0.3643832515149727,-0.7914890525068061,-0.4876994407591307,-7.5437768322419805,-7.95504500292592,-0.6040370587972286,-11.576405850997808,3.0,9.0,-2.548869504925763
08-07,-1.2327332238842839,-7.059458034283826,-1.1069282792489246,0.7575082900122343,-1.0347989613522945,1.137212187346286,4.2947937870772295,1.1664664293761204,-6.63574987996564,-8.41683710434522,-1.1213985956104668,-7.016006840861988,4.0,8.0,-2.1889941854783976
08-08,-3.2240548134069402,-9.200181498234091,-1.1762005057512321,0.7998484361845002,-4.4388867595633235,-0.4660701022458355,1.0380213506235918,1.1987777337755585,-8.913847373460902,-6.3035751268125235,-4.066303211617388,-10.633629487433831,3.0,9.0,-3.782175113161868
08-09,-3.5889063040622697,-9.319628574828755,-5.222932502520085,-0.45909464988288656,-4.610116022673532,-0.9507869911141031,0.5995134807010531,0.8665141289828951,-7.253087328222013,-4.253322431597047,-2.784254716254108,-14.421770590499586,2.0,10.0,-4.28315604183087
08-10,-0.5409632243860372,-9.778691009532793,2.2254730018738464,-0.9916391197734471,-4.557427776503756,-1.035544906306283,-1.8835105813769804,1.9625051348477303,-4.711552235311286,-4.645411662477718,-0.9064969401405738,-16.29407650213268,2.0,10.0,-3.429777985101665
08-11,2.7297898520905814,-9.637739371067882,-3.5809622845557194,-0.3580932664903647,-2.823834703824323,-1.910234753756191,-11.60843295920367,0.49598210182621955,-4.01832704079355,-3.562905144944515,-3.1916249033695934,-11.482057585490347,2.0,10.0,-4.079036671631613
08-12,0.2956608115517921,-9.032702502373391,-4.704185323698621,-2.139987729943252,-1.366364101880625,1.1580507427527116,-16.92510180152369,-0.5180134177441216,-3.383852934748642,-4.381441930640546,-8.599300583895905,-10.612886370245175,2.0,10.0,-5.0175104285324545
08-13,-2.1492244738342614,-7.672077698047822,-7.084077931823145,-0.3580932664903647,-0.7192444010073074,2.787936937127304,-12.241164534308686,0.19839115895066242,-3.9825041453613292,-3.439469561567025,-8.678196045766652,-9.616273714327486,2.0,10.0,-4.412833139704676
08-14,-0.9597175618485932,-7.5806052170369105,-9.098117590006947,-1.0808833241433966,-0.07038237576104789,4.3089957452129255,-12.593326821282904,-0.3324133537482529,-4.117850715385494,-3.7252407181648968,-4.688798226692872,-10.887663157456634,1.0,11.0,-4.235500276359585
08-15,2.892683052091808,-8.623866721827547,-7.167504230132092,-0.9189487252383836,1.7998308385415214,2.320232260656812,-12.70602133242828,-0.41029357432900915,-4.340521643832608,2.1446119802640875,-3.3227680996422295,-7.58206824146241,4.0,8.0,-2.9928862031115275
08-16,1.5350915030649859,-5.246079118526739,-3.3096654050179324,-2.720957639032587,2.489653238148196,2.927907455395684,-5.568018432149879,0.9655445022066826,-2.2008440137973215,2.416227602864511,-4.673927266928462,-3.5372639056745467,5.0,7.0,-1.4101942899539506
08-17,1.9249196752346418,-8.679769661288315,-1.9522810318185484,-2.906061361372061,4.245581329122191,2.927907455395684,-3.492439093133288,-0.16653883244936432,0.34660083885956094,3.3759910569467055,-7.279744751359364,-0.7141351170586232,5.0,7.0,-1.0308307910767316
08-18,-0.45833587646484375,-7.459416970945155,5.356949217680105,-1.4067529848549065,4.245581329122191,2.7308784031189366,-2.681657730795281,-3.661436966189168,-0.5019698555475739,3.3759910569467055,-7.279744751359364,-2.2276098767846055,4.0,8.0,-0.8306270838394133
08-19,-4.53128975330869,-1.7567202121097005,5.421748397901245,-1.4067529848549065,2.8009383150154687,2.593737300109394,-1.3812195450203044,-3.6953377233606983,-0.02390853698902341,3.3759910569467055,-4.470990939274919,-0.8847634018561316,4.0,8.0,-0.32988066890013007
08-20,-5.205948920154782,-1.6455366770789557,6.739386662245645,-3.4753048695697037,1.5472829591537625,0.39922041484611764,1.2610934745653302,-3.0285912192038307,-0.02390853698902341,3.4816305538153647,-3.369726267328875,-0.9153265542294123,5.0,7.0,-0.3529774149940303
08-21,-8.395313072518313,-1.9902166632622362,6.739386662245645,-0.43397375629250234,4.159563619608763,0.510483973703727,3.667479742244079,-3.0285912192038307,1.5295863690302052,2.3175212850938225,-4.168358399801078,0.7093852811872665,7.0,5.0,0.13474615183629557
08-22,-8.452522621395433,-1.9902166632622362,5.545832199049922,0.37504210927495557,3.818603955289552,1.364396927649688,10.873757621663122,-2.9587747339275676,1.6462389223464828,0.3059148618439705,0.07939335561206734,-1.4416500162844796,8.0,4.0,0.7638346598216703
08-23,-8.452522621395433,-2.503079167097539,-0.7017575068364471,1.4096174372502819,2.4356841038072927,-0.18563632968473975,10.873757621663122,-2.5868803594971244,0.885061269269285,1.263888261501139,5.054915588527983,-1.4416500162844796,6.0,6.0,0.504283190101945
08-24,-8.70126076396966,1.9041306164479708,-3.403862828468205,-0.3408906794371511,2.1304417834371656,-3.1832538109412423,10.574557953158964,4.323524617689543,3.6767168851921572,0.36474705861567613,4.393277369632708,-2.782287811781638,7.0,5.0,0.7463200324646905
08-25,-5.591035012283682,1.4090857996850026,2.6579861932105864,-0.5804286420711128,2.6760777187830476,-2.6240750410937563,11.09376882170356,4.315097230696406,3.8019310141189395,-0.6446705744042969,4.431215002296388,-2.8743664719761948,7.0,5.0,1.5058821698887404
08-26,-0.46171098601740423,4.043418668682015,0.9043781971808517,2.882310637497282,2.850606341549667,-7.878905014530531,8.588727123115197,4.389312344193761,5.0654490899656315,-2.7272740483800058,5.481426357381429,-5.951497383059867,8.0,4.0,1.4321867772981687
08-27,1.9881828430870334,0.9637699673652574,-0.9705579580720556,3.2866753851380914,4.497403534892325,-7.205609740080944,1.481865832739038,3.371501606726874,5.869071148755199,-3.6516120036694675,10.424995422363281,-7.3817489429844025,8.0,4.0,1.0561614246883526
08-28,1.5986061289330924,3.0021038941522944,-2.5770342316613988,3.185054966596624,2.4709439058916285,-6.254285971779229,-0.4939519718062485,4.49544262999931,3.894903550314794,-3.1927935056180363,9.450686440736892,-10.391778334196637,7.0,5.0,0.4323247917969238
08-29,3.2778108025007873,2.025293870831274,-7.3019261359790075,3.8957549066344237,6.018544975134061,-7.714924960669438,-1.7938349771787585,1.6297918093489687,5.436140978854873,-2.2027168574299747,8.083420364109399,-8.313424489955116,7.0,5.0,0.25332752385012425
08-30,6.2744073339913955,5.032537465541517,-7.0723450176802425,6.275450306799837,6.042471560592138,-5.587684372979469,-0.3202664717127923,3.129709138575089,5.425571363770423,-1.6846256025094792,8.441313638077261,-19.31578987523129,7.0,5.0,0.5533957889361995
08-31,5.2007861842759535,5.872790242906395,-6.731984251170749,4.14232622244703,5.216871994684847,-4.511936382722286,-1.5035593127314961,2.1128358737500643,6.70691625981447,-1.103130570032033,8.515366691134462,-16.107557076615244,7.0,5.0,0.6508104896451178
09-01,8.392779736232153,2.451187181822364,-4.1823340956641735,3.2395145630740156,5.6908223732225744,-6.306750304870818,0.536443360555122,-0.11306512941333965,5.982433632850582,-0.6328013069268812,6.965365249122998,-15.419967316505945,7.0,5.0,0.5503023286248877
09-02,12.446784830249316,2.2821619627620753,-0.6837589448673433,5.0876893512981125,4.812550858045592,-5.691291545424355,-0.5954680705147654,-0.5200754434580334,5.740939423862619,-0.9089328876943477,6.625522328592326,-13.241774009189477,6.0,6.0,1.2795289878051428
09-03,16.184069058530188,1.3649268126309713,0.9002859436209045,7.05662545310476,4.445120772208831,-2.3949787244162817,3.114842903575298,-7.213120523391146,6.439307159860173,0.11882480904011376,13.439983907358268,-5.55555659289094,9.0,3.0,3.1583609149359284
09-04,15.331012401271854,3.1338749609074763,3.8053123709533088,6.082475720140441,4.31543500553662,0.5513849392462469,3.815365222178193,-4.266085775704333,7.88457238561883,-0.11910786843455198,6.95641645033454,-5.580026297697252,9.0,3.0,3.4925524595292816
09-05,11.522291938591215,2.5164845225575205,3.5492507183443607,6.334135754110154,6.030619369718457,0.009508637701597173,2.852137490198414,-4.24315769875256,7.716281643947921,1.3059837575966726,7.033941517669713,0.0734184504375045,11.0,1.0,3.7250746751767476
09-06,10.815066414170698,0.4488851118158781,0.9115804834598205,1.0213930050470088,5.861803631750043,3.593496236871394,2.5106702335632813,-5.308160596673702,5.669493111794417,3.8861598070258996,6.000980412852321,0.8739907930486207,11.0,1.0,3.023779887060473
09-07,10.04153574323779,-1.1170588054714923,-4.074833919243142,0.6075569633357233,4.738343156047793,3.4006473429860407,-1.8358267593252235,-4.336281087144816,5.924826728576716,4.743277885573936,1.623216551620613,-0.2947746236324577,7.0,5.0,1.6183857647134567
09-08,9.399605689455854,-0.7252777020352912,-6.975907555478171,1.0302000282550265,4.146899788103649,2.8360630512387393,-1.489815824693017,-2.042347872828953,7.857296137078299,4.86810232442266,1.9727981844266118,-5.204845107668131,7.0,5.0,1.306064261689773
09-09,11.412586549094861,1.0956151583470861,-2.2653714284251136,1.0127710215513637,3.0911360049964474,0.4226462691217331,-2.2733303067296493,0.9302771048078322,6.636228477115988,4.102004384869901,1.2345679012345678,-8.868660025356576,9.0,3.0,1.3775392592190367
09-10,6.556379333017739,-2.0362951809009133,-3.212274116472131,1.3602417410044447,3.1742275204178703,-1.1602596596884527,-6.872941648607264,0.5774094370359965,6.3478529377110195,4.302694984966338,0.037437639242643796,-4.4529930849963595,7.0,5.0,0.3851233252275776
09-11,7.614648103569705,-2.1359011643860946,-12.195440534660017,0.6889839992975108,2.8705924496080453,-0.9007227084813999,-5.627054434329601,-0.39952785243872885,7.001589141100449,6.266631806545762,-3.1440953379114878,-7.339192112573642,5.0,7.0,-0.6082907203882916
09-12,6.227956214086697,-2.921827590144187,-16.806835573096677,-0.49813662792157565,1.9780600379644502,0.8028193653066763,-4.641291548680373,-3.5988895341878484,8.121299844710249,6.924543927496231,-3.790548116914886,-7.669040733688546,5.0,7.0,-1.3226575279224828
09-13,3.6976971905339466,-0.19541885135494433,-13.132498245627303,-4.141050537289425,2.8824847127202275,0.22517694234720334,-4.32705170148719,-1.2771671099767024,5.956440702862001,6.9347976867913985,-3.4127951819034767,-6.875843214595811,5.0,7.0,-1.1387689672483396
09-14,2.343559724220706,-1.0410925460188356,-11.62701859646705,-6.347201057243719,3.255923487031187,-1.5444430473607815,-5.00068600613517,0.12421026804882537,5.692561583332987,5.9771750137233015,-11.553996527865081,-4.592783367064627,5.0,7.0,-2.026149255983188
09-15,0.3369482744552013,0.21790907703444148,-21.685287941602937,-5.244125797266566,3.6550603869981533,-0.02945269876360718,-11.26314224463753,3.2034931519362604,4.212904322829694,6.2006198982114284,-14.049811647725772,-3.0715853847775634,6.0,6.0,-3.126372550275733
09-16,-1.9475795923226833,3.005755386907969,-21.362232536014204,-2.826859243732877,2.887596086893144,-3.288503370766307,-13.988315374574132,3.1822029511531182,4.3875839051133,7.448818176750123,-14.217118638911192,-12.90412313029497,5.0,7.0,-4.135231281649893
09-17,1.1256165936540192,5.020250586008576,-18.131647670888302,-3.882193980942392,0.8920099939300161,-6.2310704983970195,-9.423077366458879,4.161341071533695,3.8938201352503783,7.862349144227373,-9.43141994727885,-14.607680023945328,6.0,6.0,-3.2293084969422257
09-18,1.9758130567249093,6.4911493900021755,-18.94822931449608,-1.4799849162617094,0.20912031548954613,-8.394429541457232,-4.7527457959208315,5.260389099911259,3.8143424576130505,7.753500748327549,-13.607149503513808,-13.27212198115896,6.0,6.0,-2.912528832061678
09-19,2.6703428330605945,5.636224368041265,-23.58822630066344,1.3635571505529887,0.9456978864240068,-7.764588942632088,-5.109881092537635,6.8865640531105585,4.1675273091577925,7.561539870042067,-16.919766536165408,-7.985539388555164,7.0,5.0,-2.6780457325137053
09-20,-0.2837701651808566,8.776120383391165,-27.349799858051533,-2.2236236766180637,2.024834927364499,-5.049044364161824,-3.9815198409884394,5.941108155458339,2.4041447614758744,8.567269044344346,-16.045840198512902,-11.331040429662302,5.0,7.0,-3.2125967717618082
09-21,-0.6438789367405677,6.372752190063423,-13.263638551910745,-2.5837190042115523,2.0306335504792274,-4.8217601719498315,0.700753870536715,1.702756734259863,2.5329621042523915,8.375521851034527,-14.79941797996814,-11.490950422854956,6.0,6.0,-2.1573320639174707
09-22,-1.8421968291271975,7.1612052702944,0.06510813772248675,-1.9175344061098893,1.7112935909090303,-5.353627612388188,6.732796283250419,4.898333104952895,1.847813500947175,4.901063644526181,-13.114061823515854,-5.458040944697351,7.0,5.0,-0.030654006936324214
09-23,2.802084056838898,8.982946382128135,4.010418891492728,-1.6065346840278876,3.2819725343539075,-6.046903166941012,11.830028797189613,7.835281853173546,0.04152487778158469,4.791521207467878,-12.986462665343895,-1.083632596443504,8.0,4.0,1.8210204573058333
09-24,5.501116849343729,6.506289333258887,0.1562535700697275,-3.0024522904287094,0.4281695801215317,-9.11227296622153,12.546251555455736,8.338463078876787,0.26929272709714425,5.387260605556751,-12.614671950809656,0.16343655704183158,9.0,3.0,1.2139280541135191
09-25,6.811470552977532,7.37920918674539,2.3682207647948226,-2.3675090888236734,0.046659178771755634,-6.133675128495902,13.107313080509561,8.112000517736968,-0.10395932174138538,3.227299069793319,-11.69793815428602,-2.015804132176614,7.0,5.0,1.5611072104838126
09-26,5.406683839634483,7.416799654695589,-2.3765003244784486,0.4052269835841139,-0.33231812688405166,-7.741116628401326,17.118296421798338,7.445043678361682,-0.3834225353181818,5.319235527209285,-9.476600593444372,-1.988557778376767,6.0,6.0,1.7343975098650286
09-27,10.658941830483037,8.254573858883509,1.0074335913165753,-3.3789926467965183,0.4605926569748331,-7.73054714120383,20.232077694303033,8.973176353974416,-0.5579674750345838,-0.41907074735610444,-9.316237585965585,0.6105642511709598,7.0,5.0,2.399545386729146
09-28,10.569197970955694,7.814382251986444,7.2997236319878605,-2.3287699102810944,1.3059733193603442,-10.776428621977534,20.46964733321646,2.1759540873298215,0.11348458682062831,-0.8697702723996054,-8.208201171316256,0.31949611872850603,8.0,4.0,2.3237241103676056
09-29,9.869730912658511,5.14609622771154,8.857317404878552,-4.283107252425812,3.191125364049871,-13.403095480473507,18.48192694581933,1.2980269578269585,0.1960202628784255,-2.387921438532068,-7.705699138590341,5.286575519925997,8.0,4.0,2.045583023810621
09-30,6.828065719877192,5.853163320806963,12.27917873593887,-3.9697719545323507,5.424887656220576,-18.218713129945364,14.63414154101605,-0.42574872245279144,-0.2579180844041024,-6.470977280752605,-7.1768970696074,6.987579724607286,6.0,6.0,1.29058253806436
10-01,11.36264119886288,2.612660082080696,15.491036144387529,-4.973344109964292,4.921022745085348,-15.51765589754771,14.210774790018213,0.19730263279858495,-0.548369137019582,-5.982980168382448,-4.971402358522231,7.336518872662659,7.0,5.0,2.011517066204971
10-02,11.67979004814598,3.0683531942246836,14.722011192821846,-4.4353735960530045,4.228482835324965,-10.08279411848693,10.165541320580793,-0.638744094608966,-0.5795876036792452,-6.061842476686837,-0.7942282335852887,7.469424876065448,6.0,6.0,2.3950861120052864
10-03,9.765966827153196,3.322897530090476,18.540127497552316,2.3386636914665937,5.754561753650027,-9.527051945474014,5.980411898369135,-1.7252298851642118,0.7303765982506468,-6.641585641012957,-3.901431535360252,3.083465923304321,8.0,4.0,2.3100977260687725
10-04,11.412923902809686,4.318272346350714,9.519714594494092,3.314821039254121,4.224037101233435,-7.848472624084312,7.447782773958217,-1.4502032715442943,1.1493023625053245,-8.398532036916261,-4.0187706827591905,4.254208688774011,8.0,4.0,1.993757016172962
10-05,11.097937391777874,3.947498201637372,10.71843054071052,4.625125217340771,5.189528665037132,-4.185383844992631,7.828569684709821,-4.563513502996503,0.11380157891996524,-9.0810751769068,-2.3173978057825617,2.5654706879952633,8.0,4.0,2.1615826364541855
10-06,10.35505755280556,0.965024810486475,10.617960099492095,4.703226544096741,4.7191121822575255,-4.2424852723079916,2.3228407940255926,-2.188093713943751,0.4862416748359582,-8.065592217941358,-4.478067460670703,0.5526304388820243,8.0,4.0,1.3123212860015139
10-07,10.274339795974111,1.5581353827335342,14.760442489240313,4.29629656224469,5.963323279529751,-0.9163415853233196,1.2961070671815498,-1.451719880343837,0.16553243952761848,-9.514971310774389,-8.255740988932406,-1.1852269008927119,7.0,5.0,1.4158480291804088
10-08,3.4968796154798385,0.6592125888968984,9.627857994805552,2.874325646742501,6.976996581673759,1.530772924491621,-3.891146077500371,-2.3458903999645426,-0.7727629983933985,-10.333988145942362,-1.5814360580997642,-7.26081809400468,6.0,6.0,-0.08499970181791243
10-09,3.593720550406555,0.5593339718594834,9.079451578063543,0.9454977725652517,7.361593342338354,0.11947497633992743,-4.201485227677964,-2.5076358250822905,0.35109082068148995,-13.849467615927418,1.4086579865351314,-6.947615363367826,8.0,4.0,-0.3406152527721469
10-10,2.539273239033356,-0.7692251855881339,12.370336288580043,0.5991318447426576,2.006277618288108,2.4329291530294794,-2.6856051954920823,-3.632300555894231,0.1959394029229778,-13.813893173786148,4.211841362897835,-8.798406169034736,7.0,5.0,-0.44530844752507276
10-11,0.9513342222197009,-2.312198187699261,12.011420972189903,0.7859034698928369,-0.30822856099120216,9.025738662037709,-0.2680602789726247,-2.5955994807578335,-0.4664147311203925,-14.584514269785585,3.739230400495476,-3.466013454425782,5.0,7.0,0.2093832302569121
10-12,-1.5926403214682392,-1.4877945734228246,7.506855515110115,1.7344157379182294,-1.468277898083878,10.321198321369861,-0.7023276038601897,-3.9171306296938493,-0.5200207925794201,-15.112117022578092,5.212677054124794,-1.8661711390629596,4.0,8.0,-0.1576111126855377
10-13,-3.189035947043589,-3.1331592689295036,8.236098260180338,0.406501319464881,0.2039327190233029,9.055370766628249,-2.266458092675141,-3.6466253881146056,-0.48882081460668275,-15.479555680851226,5.252186626626745,-10.621239771140008,5.0,7.0,-1.3059004392864366
10-14,-5.382051376065171,-3.393901344505478,3.935020457634517,0.406501319464881,1.2974295961278743,5.190550663174095,-3.7243070673658036,-2.539617953967608,-1.1024415411043442,-14.423073704350841,5.918875161195689,-8.791199941753613,5.0,7.0,-1.8840179776263166
10-15,-10.52569490912854,-4.469505726626929,6.874850872475653,0.406501319464881,1.3430528301908888,3.639346263447746,-2.7715514196801303,-1.7798995013154784,-0.29921679839678805,-15.024401748345662,2.5334313503780765,-17.13320146753796,5.0,7.0,-3.1005240779228536
10-16,-10.134094287079831,-5.816624447125867,12.311496258769614,-1.1741680451199892,1.5074608371079763,1.997208917863771,-3.196130505025602,-2.223676654709196,1.2795796898655423,-19.81575954457511,5.055002613606905,-15.103045527258448,5.0,7.0,-2.9427292244733523
10-17,-11.961554803128207,-6.730565857729057,14.467321494973362,-1.0079775289614865,-0.587809875134825,2.0508923966973818,-0.023583727857637425,-3.281933510333056,2.089824029503889,-13.865981383005055,4.09365985504153,-11.319595494221575,4.0,8.0,-2.173108700346228
10-18,-9.913796015009927,-5.86084469160891,3.813042212314541,1.4936886390919195,-1.918699839153597,0.3972888737241882,0.8302141163966239,-2.997123578137153,3.2141774268475523,-12.540352357232385,7.440390837143555,-6.535170227350089,6.0,6.0,-1.881432050247807
10-19,-15.54003703516846,-3.5494989829724015,-2.317193242673137,2.935872805959598,-2.2126132383130397,-0.5855572634780332,1.2114163471311477,-4.27818532230426,6.3838094836751775,-11.704957527722645,2.815281538564529,-5.695084265923114,4.0,8.0,-2.711395558602053
10-20,-15.176286758751791,-2.435036765736134,9.058730211059524,3.7599771085412987,-3.318393290511787,2.4092591709653455,1.394210471124643,-4.365516949772527,5.327993478206552,-10.356943270734732,2.380600136494707,-3.214785787664972,6.0,6.0,-1.211349353898323
10-21,-11.97590655591116,-11.462098073181922,5.643479922196685,4.081106053351573,-2.983580134178111,-2.9039853121891515,5.2798172188496855,-3.232895022084471,5.200899058762896,-8.756666352135852,4.905126899400169,-0.2855467527526315,5.0,7.0,-1.3741874208226907
10-22,-7.209840183420297,-9.781135185745304,5.164513782996794,2.6822885588086596,-0.9211747088034282,-1.9827214662499852,0.7748330744615484,-2.9469982771361445,5.808640995439273,-13.580851717739382,5.590992821391211,-2.4694766011090565,5.0,7.0,-1.5725774089255096
10-23,-4.525205711902982,-9.950360735059116,8.947312863603234,5.693000629632447,0.7177395631213237,2.8095702300861882,1.2027303120684367,-1.6724596925539816,7.205740458657297,-4.485194490737741,2.7969188421505016,-4.078794030697516,7.0,5.0,0.38841651986400755
10-24,-1.8288364628160498,-10.386225024189129,10.424860781183067,9.247422608838802,-2.7117262809578104,4.162330971396598,3.561931059990845,-1.9825704077570807,9.798051437212886,1.1087323405429557,-0.7700967038066429,3.079912825066921,7.0,5.0,1.9753155953921133
10-25,1.3290902932745192,-9.987584260424013,13.492143691734146,6.316668192545573,-3.8496394221321033,7.9812677322890675,3.561931059990845,0.8134455033158836,9.369398770034262,1.8598247832507435,-1.484185403478756,1.8820174091646606,9.0,3.0,2.6070315291304027
10-26,3.8627536499285826,-7.031076436282999,14.21843290400304,4.9250030517578125,-3.2721913492237014,10.649692619507137,2.204758212067829,1.3067707934096284,7.102466722955358,2.372884957469346,0.5180553439840054,-1.0121412827883927,9.0,3.0,2.9871174322323033
10-27,6.093078776882572,-4.09827629091155,5.487129018470621,2.925001780192045,-6.317750450057792,11.170268614457532,3.12756906693053,1.8088434505898663,5.616793355223813,6.513972066840346,4.937108532886989,14.214833408646218,10.0,2.0,4.289880944179266
10-28,7.578420310355201,-1.1291065391991342,3.1049607528518193,-0.6219238503763582,-6.703317153150628,7.1065989847715745,2.067453081163256,2.814938718642269,4.600788811957111,2.6800167853958614,4.8862035416324945,22.943827021240338,9.0,3.0,4.110738372106984
10-29,4.8864306505367034,-1.959953154150929,8.958569429934425,-1.7202246580946026,-7.949842592838986,5.691142021855236,-2.640418814570459,3.2216655532470573,5.010498245049922,3.288788882994056,2.722842244025906,18.945355895054412,8.0,4.0,3.2045711419202285
10-30,9.518001482427286,-2.3327679010200773,10.60575820996896,-1.5074901492990826,-7.91741187570233,5.4735511188215025,-3.0364843837775926,2.3858352045790383,4.828841999750502,-4.207409517264674,5.007501873516528,18.301117148343103,7.0,5.0,3.09325360086193
10-31,9.174513882877424,-2.0826682305398556,14.017884368426458,-1.0496175375480434,-5.275573485437383,2.5727701615905465,-3.3005280965823482,1.0830384569543918,4.394022954354866,-6.922452220063279,4.544832700755206,16.12979801036822,7.0,5.0,2.773835080429683
11-01,7.753769235114996,-4.3671879519722125,17.240050080356063,-3.10514875098277,-5.61783821344133,4.346041379534718,-5.361729859855993,1.6400481636398105,0.17566146484968895,-8.993575733935387,2.0107410442088787,13.188441420657645,7.0,5.0,1.575772689847842
11-02,7.378529694120763,-5.7448853630442125,6.174286495837597,-1.6231442554549564,-8.26153631850078,2.6395397178644284,-4.644376528661664,3.8384236704366317,-1.5686625180705238,-4.364228400749917,-1.4874009392319414,17.62361604350704,5.0,7.0,0.8300134415043722
11-03,8.31768350914735,2.6469012425396437,0.6554808283905444,-3.0433988440955977,-8.127546822503508,4.9307292040713735,-4.316542037027622,3.2976258657784245,-3.0978683610305344,-8.442947695587547,-1.8521133317846068,22.77838669002871,6.0,6.0,1.1455325206605527
11-04,5.201155957519926,2.084947645108684,-0.9832136654735097,-0.5595677307097167,-7.04866465566671,6.299947888898593,-4.205829986240795,3.591680450642272,-5.5248603397790275,-4.685502813090567,-0.28579079324829765,20.529212506823978,5.0,7.0,1.201126205398736
11-05,0.8000891385670705,1.7300627595343743,-0.4767064414546701,-0.11999605026625955,-6.652024193492161,1.6074533882026922,-1.5502051334937939,1.8798581102497973,-5.452034666921607,-1.093157375702859,-3.859107377996874,21.499449455469822,5.0,7.0,0.6928068010579609
11-06,-1.8142896654371836,0.7874005754579033,-4.277470283931914,-2.8412467154881016,-5.211745804878178,-0.6508688881629943,-0.1409220376244279,-1.1804245294710782,-5.234159510793972,-1.5324971720863323,-1.4488588365888848,23.748615226993405,2.0,10.0,0.016961029832353407
11-07,-4.124412610115302,2.876996534924669,-3.403517943269866,-1.1719074129463638,-2.7917587546297655,-1.2407212427385603,-0.2583690155733725,-0.30058913012372396,-4.583984409079957,-3.2541883182283926,-3.7191235026015748,11.11355517179597,2.0,10.0,-0.9048350527155202
11-08,-6.304651947049263,3.765060278044488,-6.145194661601292,1.3884198139922443,-2.4203262576320226,-0.17288535114378845,-3.2909875021011987,2.4145475099879117,-2.848974093152031,-2.4325887543202303,-3.663612932406484,11.11355517179597,4.0,8.0,-0.716469893798808
11-09,-6.857870037540821,0.5513536607896806,-2.3122603596582954,2.453155745639109,-2.713874208596571,0.9452960763553082,-3.315993687813808,2.341379645282192,-3.0690487948018657,-3.0773754465573577,-2.442412150790552,11.11355517179597,5.0,7.0,-0.5320078654914177
11-10,-3.4021319909475127,-1.4918889226140049,-5.327434596499588,2.2487217677475986,-1.2639533521390784,3.184586133083956,-4.856488011446402,2.7710711479704733,-2.872317591735098,1.0844085616772743,-0.6819421741422836,6.968026358844015,5.0,7.0,-0.3032785558500541
11-11,-2.3474707276710216,-6.09921516149115,-9.507263066060595,2.8610100481464387,-0.7640335576789422,0.8135773186585893,-0.9083202165095958,4.051635474932028,-2.7542743670064347,4.481132075471698,-1.1371446161758012,7.585443754032349,5.0,7.0,-0.3104102534460364
11-12,-0.35008192875222743,-3.7767826592715568,-9.254572515753798,3.5549170547779743,1.2352954121000328,2.0088389403815983,4.052145845636038,2.718585524458629,-2.8250840142137,-0.5461798097575802,0.31283424651890696,10.71664158583742,7.0,5.0,0.6538798068301449
11-13,0.05646871827727157,-4.205189949566862,-13.27365566171693,1.1744558325428696,-0.1595864226992048,0.9199911198072711,3.394408515816611,4.453607932808473,-2.7542743670064347,3.9204254306303596,1.2377530933968894,5.909592933514913,8.0,4.0,0.05616643131710234
11-14,-2.23601994274551,-2.928727354165148,-14.196097179021574,1.4946134804796096,-0.27777850424364786,-1.4678580005134259,0.41108583113714187,3.4382193543853634,-2.6547801382294653,3.8057845704377735,-0.6118687103385028,0.0,4.0,8.0,-1.2686188827347824
11-15,-0.9140560731163215,-3.9473709047559478,-7.08233552863669,0.16329592995566558,-1.2884207883509424,0.40314182164612544,-1.5084426608931827,-1.176846538734665,-1.5224402325865023,2.100800207861857,-2.183284125809993,0.0,3.0,9.0,-1.4129965744517161
11-16,-3.7830967503923367,-2.051111640906399,-2.504325562866868,-0.27503197165524157,0.4018869314691878,-2.4237257220086095,-3.3772304143286025,-3.0073547229285413,-0.9253734379858519,-1.3780479439490698,0.9039097382516242,0.0,2.0,10.0,-1.5349584581083924
11-17,-4.035155022967117,-1.3715584739289128,6.477734103607545,-1.94241698828483,-1.2557902353280728,-11.104701473549966,0.5393706659428968,9.92977042383104,-1.1343277508939678,-1.8695215420303044,1.5065602776488052,0.0,4.0,8.0,-0.35500300132940704
11-18,-0.5096805341215733,-0.5238495812742187,5.687296748961525,-0.824550514906309,-2.133335922703598,-11.955525631101976,-1.3087429318041988,9.139675598907862,-0.9353258123445132,-0.22755083056016986,-0.5077582547303052,0.0,2.0,10.0,-0.3416123054731228
11-19,0.19519827315844157,-1.4514917286053834,7.451316644222467,-0.8416917536573393,-1.7515147816051135,-8.892578635566919,-2.2137038115458423,6.681621828344422,0.8600442299087468,-2.3231067491969464,0.5509244026056984,0.0,5.0,6.0,-0.14458184016148065
11-20,0.7119016457206533,-0.9494737233003604,6.3591112071513605,-0.13647531987784728,-0.870197291869162,-8.322439145607573,-2.1889644196216027,8.668259504586814,1.4284337463728822,0.9195595496006058,-4.768826457560444,0.0,5.0,6.0,0.0709074412996104
11-21,-1.251583434515456,1.448967186775803,6.3865011488726084,-0.8192516487220504,-1.3043694202664613,-10.827880698879113,-2.1147651144758277,7.7790629082349305,-0.603662139464889,1.9517163985193147,-1.7626600822682712,0.0,4.0,7.0,-0.0931604080157844
11-22,-1.5196864903854346,1.3228055174180924,6.982663021054917,-0.22742304606659386,-1.8069699787236997,-8.453152776542721,-1.950860442930686,8.797628299780722,-0.6838402394223437,3.238207702954014,-1.3046422931258788,0.0,4.0,7.0,0.3662274395008656
11-23,-1.274837044035898,6.018224698528551,12.66088173951069,-0.22742304606659386,-1.2325719490274474,-7.05376081569222,-2.5841742902951994,6.703857977175071,-2.832291153622172,3.238207702954014,-2.040240845309347,0.0,4.0,7.0,0.947989414509954
11-24,-1.4667199013730026,3.13881572802455,11.802383943304765,1.7435981077662248,-2.303783677654077,-9.707986290461449,-11.746944036555403,7.292567865723834,-2.832291153622172,1.4701631438295926,-4.150730212749768,0.0,5.0,6.0,-0.5634105403139089
11-25,-5.231670480319831,3.5574825247967743,11.802383943304765,1.444744065270901,-5.717326630296897,-9.694971295690705,-8.325765942327674,7.292567865723834,-0.9710692682032366,-0.40145272998689696,0.5949194792494599,0.0,5.0,6.0,-0.47084653903995877
11-26,-1.797176883709815,3.5574825247967743,7.221200164569219,0.5965035852953642,-6.9938014425702075,-5.518786410247128,-4.6440412314376625,9.71698800078173,-0.10027925481045101,1.0327185489055157,3.4894623534802522,0.0,6.0,5.0,0.5466891629211327
11-27,-1.797176883709815,3.2320995945497986,5.008447831748443,2.250914338161222,-4.469270746532268,0.08065410080171495,-4.6440412314376625,10.921565854515089,0.5677853354813283,-0.2359629003341366,3.32709511706493,0.0,7.0,4.0,1.186842534192387
11-28,-0.9335924840360554,3.263582377398,7.865063770707831,2.0045521902813226,-5.5932457445348955,0.08065410080171495,-6.442974264760635,12.193514419591924,1.3536239096678473,-1.6655206753453056,5.048877374466469,0.0,7.0,4.0,1.4312112478531847
11-29,0.20768467633389526,1.6859490680957299,2.790697288133481,2.567499195766778,-5.5932457445348955,-0.5184893922056405,-6.715272421983391,12.652366208047535,-0.21938693994933012,-1.4817674502120162,5.048877374466469,0.0,6.0,5.0,0.868742655163218
11-30,-0.5113245745582166,1.9294377716447275,-5.319794785552838,2.5840609345610375,-5.5932457445348955,-0.43748244387265467,-11.403392956507052,5.082867683161103,-2.381426050908244,0.5965580147805893,5.19619304749311,0.0,5.0,6.0,-0.854795758691111
12-01,2.323264175573817,0.021826810832406993,-10.046153047442436,2.898790841415316,-4.192977623172855,-1.0072885139764902,-9.354673932227234,-0.518185318368172,-2.9717842186810226,-4.021938124604831,7.717374839786194,0.0,4.0,7.0,-1.5959786759054424
12-02,5.130726097265621,-4.150019695723282,-10.078350943639121,1.071643109921646,-3.7605304784755793,-5.812054050516697,-4.605430036283543,0.4510135542004526,-1.110666983425725,-5.134687041989641,6.225986330962518,0.0,4.0,7.0,-1.8143641781419457
12-03,6.912439306615504,-4.016860859810388,-9.595366123325803,1.470711850926796,-3.5933329391431865,-7.4061094426676775,-6.846958579233675,-0.23990020362379041,-1.415098023631507,-8.023579768565888,11.718655440460154,0.0,3.0,8.0,-1.7529499451666222
12-04,6.687384017828481,-4.727024386378502,-8.121556512775422,3.133008909053985,-4.685256042776987,-2.0408170098833893,-6.1873279989306775,-0.519631375136719,-2.53678328014563,-8.169629648837704,8.577584971767077,0.0,3.0,8.0,-1.5491706963512906
12-05,6.473047983668155,-4.275765137385154,-4.5352173334719454,4.196253248126113,-2.0864227671682096,0.42791243390411204,-0.5145110474232275,-0.4423068119929387,-0.990889628147402,-8.637373612034107,12.408487969242339,0.0,4.0,7.0,0.16860127477647793
12-06,5.6846452022296665,-2.9562551964691735,-9.752013942225597,3.3401359247231395,1.209880687572338,3.2367752556483387,-3.94270023100515,-0.47351937367008146,2.5337668215437015,-9.84081906445967,8.226824115514662,0.0,6.0,5.0,-0.22777331671648549
12-07,6.110812793612682,-1.3667177044748242,-5.164843825197857,4.164964149633085,2.38271642614294,4.607890370424668,-6.663869684857835,-0.3586614036961294,3.6893950753784024,-11.432562776548105,7.544353490436323,0.0,6.0,5.0,0.2927897425711124
12-08,9.969376067180582,-0.6001041060626506,-2.4954134657025624,3.8546294070580216,4.348879430094894,7.187954581093474,-9.765125423987989,-2.320816365277707,3.0423039385993644,-9.38911100489658,8.295381986177883,0.0,6.0,5.0,1.010662920356394
12-09,12.355522774293584,-0.6328443223112378,-5.673252879925469,5.338907488149053,6.1595090313611935,6.2171220118872945,-12.276178190138376,-3.8030168507318773,2.2503397821636195,-13.338535219127456,9.859667511259493,0.0,6.0,5.0,0.5381034280733185
12-10,11.353174649933138,0.9819983752261868,-2.9232050699339003,5.338907488149053,5.465230524784801,8.699765259271022,-11.989690645035221,-3.198438499939827,2.2503397821636195,-13.338535219127456,9.460448799621059,0.0,7.0,4.0,1.0083329537593728
12-11,11.98731102967645,1.0365570778179083,-2.9232050699339003,3.916805332883197,6.77723478181078,9.905614240227555,-7.276897305132951,-3.198438499939827,4.833097755896245,-16.972263575552468,10.446149401996545,0.0,7.0,4.0,1.544330430812461
12-12,7.5483251578298365,1.6268981015715727,-2.766196654177298,1.6534974625752812,5.883747901871093,10.41385803771442,-10.098844432476195,-2.6180593906175527,6.376623837302646,-25.428432946682815,8.47154120146263,0.0,7.0,4.0,0.08857985636446826
12-13,9.510461565769598,0.8201203116764196,-0.23405247256597111,2.501029073798432,5.491495623458851,11.482218549660148,-4.301802230860149,-5.861024628520355,8.655516775183848,-15.55231407969258,9.927216247688698,0.0,7.0,4.0,1.8699053946330781
12-14,10.131241057762661,-1.6977349452587411,5.898397981296605,2.1061333802666913,5.063585695841522,9.261038204404803,-4.685375275399119,-1.6286309284520684,8.047250988913438,-12.46207914766141,7.039725651297789,0.0,7.0,4.0,2.256129388584348
12-15,8.135692213139018,-0.15558944701646732,2.0738282345182784,0.47717138337520226,4.9279839118858995,9.03858813101383,-9.660952467539355,-2.2331496399323627,9.053153842135195,-8.113272720554363,6.8619220072503415,0.0,7.0,4.0,1.7004479540229347
12-16,6.003827224757868,0.7456961146730321,-1.285771290313787,0.5426260360260617,5.5686911592656365,9.392558505638375,-6.625414202415392,-2.3118528665469933,7.798077612261442,-8.356794788193007,6.2905890857995805,0.0,7.0,4.0,1.4801860492460681
12-17,6.789561893513262,-0.5263688065448484,0.9021181299851482,0.5426260360260617,5.621902080719317,3.3817474604946516,-3.1087450101460545,-1.8002969046574884,7.798077612261442,-8.356794788193007,5.208084992593596,0.0,7.0,4.0,1.3709927246710063
12-18,6.366475177337123,-0.2960814078713039,0.9021181299851482,-4.476854844675151,3.196896270327196,0.26968717176936274,-0.4782725908004243,-1.8002969046574884,7.874590619129792,-7.415454458519148,2.184734876917558,0.0,6.0,5.0,0.5272951699118886
12-19,4.613674178037797,0.3160772921278951,2.5293251195764435,-1.3742826559590284,1.4954686377512123,-2.5026966248116977,1.1815956972316104,-2.172200438539531,6.00500707721589,-6.616218705462938,2.9966595895593526,0.0,7.0,4.0,0.5393674305605838
12-20,4.169613621075506,-0.05469360065675721,0.5481686161985428,-0.5578933050644478,-0.40515249607211634,-2.545847559918731,0.509843658461583,-2.0375917102665313,5.269901166885484,0.9601619476014434,1.313274171521646,0.0,6.0,5.0,0.5974820424804684
12-21,2.6824260313364734,0.7579826310861771,3.223259478987165,0.08893969120321807,0.13107794655823568,-3.247526744520702,0.7628208907239863,0.9561501400576874,4.128731468903632,3.6971619595578944,0.45368299083188357,0.0,10.0,1.0,1.1362255403938042
12-22,2.6001202249113207,-0.06511564900280484,3.2089719700285473,0.7357726874708724,-1.575561009217873,-3.057241717404571,-0.18656322165416617,0.4728869717968175,3.443612804755383,8.55313977242664,0.9032590227519899,0.0,7.0,4.0,1.2527734880718464
12-23,-0.7463417573184669,0.9531082696421167,3.268038010142086,1.13545148868115,-1.8595026762225113,-11.225199956941626,-5.076294492247075,1.5344565963521146,1.3702304506308436,7.902634782576251,1.894341276407881,0.0,7.0,4.0,-0.07075650069143645
12-24,-1.1057483283090637,2.3935871771306747,2.5396144253013375,2.408590091563638,-2.585044582325314,-11.685077869926642,-9.061198012141526,1.0422715715381758,1.3880066052198528,11.775977187200098,5.235193074400915,0.0,7.0,4.0,0.19551427830434576
12-26,-0.452349148630003,2.9088525717725564,3.3388637691652088,2.086351176594745,-0.7434977228924106,-12.11759004860001,-4.708850539684468,2.537779861400419,2.927863942124635,6.836263618913008,4.224862567816358,0.0,7.0,4.0,0.5698791706650034
12-27,-1.4003015836470523,4.392106191197644,3.0928805807450255,2.4071251433151466,-1.4270325579999588,-12.72705722638505,-7.684080124727666,0.46592481380299855,2.9988349311397795,10.484929196389935,4.8087899294084435,0.0,7.0,4.0,0.45100994110327036
12-28,-0.8884373814285976,5.2343272786177835,8.604998569488465,4.8302950940659635,-0.34177199207984854,-8.575051580522036,-7.585472337213689,1.6924564547148586,3.178292223991281,11.76530447736763,5.667503040751486,0.0,7.0,4.0,1.9652036539794413
12-29,-1.1514135525225588,5.72728287322056,4.962678305764145,3.0811172450581914,-0.20958449312312874,-7.855022660069645,-11.653837572378595,3.4693094292540896,3.6603860333245475,12.077833513524144,6.640227320511685,0.0,7.0,4.0,1.5624147035469527
12-30,-3.5527137441842207,6.843332328113408,4.516813138916523,4.210941810347045,-0.3237267267102449,-9.69115442549561,-12.221873275898655,3.640869006376784,2.4194259733846706,12.01574186045922,4.497504815574613,0.0,7.0,4.0,1.0295967300736277
12-31,0.4705391514124955,7.188541329296355,1.6671525164578842,3.852580151002854,-2.679548173328112,-8.241244224585847,-10.316351777279218,1.3152852435203592,2.4194259733846706,9.972131091376719,2.057991786624597,0.0,8.0,3.0,0.6422085889902299
