,2009,2010,2011,2012,2013,2014,2015,2016,2017,2018,2019,2020,ups,downs,end_day_sum,avg
01-02,-3.0791988372802734,-1.1164093017578125,2.862358093261726,1.185596466064446,0.7326774597167969,2.5602264404296875,-4.027801513671875,-5.008197784423835,1.8915481567382955,6.097953796386719,7.6522216796875,2.5226593017578125,8.0,4.0,01-17,1.0228028297424323
01-03,-3.20465087890625,-1.1164093017578125,2.5755767822265625,0.8006744384765554,0.6269111633300781,2.7731781005859375,1.14849853515625,-5.008197784423835,1.910514831542983,2.501014709472642,8.554283142089844,1.6979446411132812,9.0,3.0,01-18,1.104944864908853
01-04,-3.20465087890625,-1.0078353881835938,3.9091873168945312,1.0482177734375,-0.11919021606445312,3.0231857299804688,1.14849853515625,-3.982841491699226,1.9200973510742188,2.6155319213867188,4.7665252685546875,-1.649444580078125,7.0,5.0,01-19,0.7056067784627272
01-05,-2.9217929840087855,-0.963409423828125,4.86979675292968,1.5480918884277344,-0.20670318603515625,3.0231857299804688,0.01978302001953125,-6.559223175048842,1.3143997192382812,1.4531021118164062,4.20074462890625,-1.649444580078125,7.0,5.0,01-20,0.34404420852660983
01-06,-3.253631591796875,-0.8953399658203125,3.991619110107422,1.4199867248535156,-0.20670318603515625,2.9026870727539062,5.845390319824219,-5.794902801513672,0.3397369384765625,0.9385910034179688,4.20074462890625,-1.0965042114257812,7.0,5.0,01-21,0.6993061701456705
01-07,-3.5027961730957067,-0.9366989135742188,3.3371658325195312,1.5389480590820312,0.09768295288085938,1.0641555786132812,5.4246368408203125,-4.746006011962891,2.4120635986328125,1.6160736083984517,4.565956115722656,-3.58587646484375,8.0,4.0,01-22,0.6071087519327808
01-08,-1.863183975219723,-1.1625823974609375,3.0235671997070312,1.4060554504394531,1.3002395629882884,1.2216949462890625,3.5742568969726562,-4.802284240722656,2.213012695312486,1.7401275634765625,5.51959228515625,-2.9301986694335938,8.0,4.0,01-23,0.7700247764587399
01-09,-0.4876079559326172,-0.7514724731445312,2.9871368408203125,0.5262527465820312,0.9408187866210866,2.2738723754882812,3.034271240234375,-3.0666465759277344,2.4784011840820312,5.030693054199219,-2.026580810546861,-4.737953186035156,7.0,5.0,01-24,0.5167654355367031
01-10,0.843145370483402,-0.6338157653808594,3.1510162353515625,0.11165618896484375,-0.5433044433593821,2.3618621826171875,5.780677795410156,0.2351837158203125,0.21376800537109375,5.718109130859389,-2.2381668090820312,-2.8168487548828125,8.0,4.0,01-25,1.0152735710144052
01-11,0.124786376953125,-1.7830581665039134,2.3465919494628906,0.7056846618652273,-0.3268241882324219,3.912750244140625,5.612754821777344,2.3705596923828125,-1.0160064697265625,3.337013244628892,-0.08058166503907671,-2.0891571044921875,7.0,5.0,01-26,1.0928761164347296
01-12,1.4043521881103551,-0.13800811767578125,0.6281890869140554,1.3426094055175781,0.1199035644531179,2.7309036254882812,6.013885498046875,-1.09307861328125,-1.3932113647460938,2.8034515380859233,-1.6532287597656392,-3.3157424926757812,7.0,5.0,01-27,0.62083546320597
01-13,0.47367286682128906,-2.090351104736328,2.012004852294922,1.7275314331054688,0.23057937622069602,1.0438690185546875,6.93841552734375,1.7496795654296804,-1.4121780395507812,4.847305297851548,-1.0093078613281392,-5.243255615234375,8.0,4.0,01-28,0.7723304430643682
01-14,1.4681415557861328,-2.538257598876946,0.7738380432128906,1.4159317016601562,0.3597145080566406,-2.9254302978515625,4.906684875488281,0.761951446533196,-1.4974746704101562,3.8740158081054688,0.7782897949218608,-9.154052734375,8.0,4.0,01-29,-0.14805396397908646
01-15,2.6668815612792898,-2.0270042419433523,-0.27313995361328125,0.47197723388671875,-0.4150733947753906,-1.455291748046875,1.4645309448242188,2.9161453247070312,-1.0330734252929545,4.169815063476548,-0.25946807861328125,-9.152717590332031,5.0,7.0,01-30,-0.24386819203694662
01-16,2.797084808349606,-2.244171142578118,0.168426513671875,0.18328857421875,0.7240867614746094,-2.5259323120117188,-2.0615386962890625,4.788120269775391,-2.4452438354492188,3.0438613891601562,0.19219970703125,-11.565032958984375,7.0,5.0,01-31,-0.745404243469238
01-17,4.144008636474606,-2.6423377990722656,-0.15932846069335938,0.7285881042480469,0.13375473022460938,-1.9975662231445312,-1.147369384765625,7.1963043212890625,-4.05645751953125,1.5648803710937642,0.38442230224610796,-9.900375366210938,6.0,6.0,02-01,-0.479289690653481
01-18,3.519931793212887,-3.1355209350585866,1.5977821350097656,0.3528289794921946,-0.21675872802734375,-2.1226959228515625,-0.3917694091796875,9.444580078125,-3.6204833984375,0.7251892089843608,-1.5377197265624858,-8.664047241210938,5.0,7.0,02-02,-0.3373902638753246
01-19,3.1607627868652344,-0.8144149780273438,2.7039222717285156,0.37575531005859375,-0.08301162719726562,-1.4367523193359375,-0.2798309326171875,7.628997802734375,-3.9711456298827983,0.60113525390625,2.4891738891601562,-8.002067565917969,6.0,6.0,02-03,0.1977103551228853
01-20,2.6983222961425817,0.31673431396484375,2.6766281127929688,1.2555580139160156,-0.7009963989257812,-1.8492507934570312,2.9757308959960938,6.509593963623047,-4.236534118652344,-1.7366256713867188,2.2489013671874716,-10.834907531738281,7.0,5.0,02-04,-0.05640379587809452
01-21,1.153865814208988,0.2759857177734375,2.5127487182617188,0.13746261596679688,0.9685325622558594,-3.47137451171875,5.382377624511719,6.058063507080078,-2.331512451171875,-0.2862548828125,1.9125366210937358,-12.334083557128906,8.0,4.0,02-05,-0.0018043518066415132
01-22,2.1820049285888707,1.4252281188964915,2.5082015991210938,0.40323638916015625,0.3643455505371094,-1.4552841186523438,4.5055694580078125,3.922687530517578,-3.5541305541992188,-3.8072280883789062,2.4218902587890483,-9.218910217285156,8.0,4.0,02-06,-0.02519909540812204
01-23,0.9024391174316406,1.0089836120605469,2.4217147827148438,1.5992202758789062,1.8770675659179688,-0.7786178588867188,4.104438781738281,8.089958190917969,-2.3883743286132812,-7.900703430175781,1.7107162475585938,-4.653266906738281,8.0,4.0,02-07,0.4994646708170573
01-24,0.2604103088378906,-0.9365653991699219,2.298809051513672,2.5248374938964915,2.1584014892578125,0.908416748046875,2.6678848266601562,6.443748474121094,-3.772125244140639,-9.732780456542955,-1.0187454223632812,-2.7257537841796875,7.0,5.0,02-08,-0.07695515950520775
01-25,0.48937797546387074,-0.9546699523925781,2.6037826538085938,1.97955322265625,2.029266357421868,2.49810791015625,3.6007156372070312,5.145580291748047,-6.359519958496094,-11.135444641113281,-2.8063430786132812,0.39913177490234375,8.0,4.0,02-09,-0.20920515060424835
01-26,0.18409156799316406,-0.7058258056640625,1.1289253234863281,3.0564117431640625,2.5227394104003906,5.167686462402344,3.227569580078125,2.257678985595703,-5.923538208007827,-11.43124389648436,-1.84527587890625,-0.7495880126953125,7.0,5.0,02-10,-0.2591973940531413
01-27,1.8318023681640625,0.9727897644042898,0.3186531066894531,3.3451004028320312,2.568866729736328,6.673980712890625,2.7518386840820312,-0.45153045654296875,-4.5113677978515625,-10.305290222167969,-4.9110870361328125,-2.2292861938476562,7.0,5.0,02-11,-0.32879416147867896
01-28,-1.5983295440673793,-1.4795341491699219,0.6464080810546875,2.7998008728027344,4.187660217285156,3.2350082397460938,6.6790771484375,-2.67156982421875,-2.9001541137695312,-14.828155517578125,-5.3820037841796875,-3.2611846923828125,5.0,7.0,02-12,-1.2144147555033362
01-29,-1.8901519775390625,-0.9863510131836009,-1.1107025146484375,3.2717628479003906,2.951648712158203,4.671791076660156,4.001838684082031,-4.9198455810546875,-1.3173904418945312,-15.75372314453125,-4.47857666015625,-0.34070587158203125,4.0,8.0,02-13,-1.325033823649089
01-30,-1.5309829711914098,-3.3074569702148438,-0.97869873046875,2.9876632690429688,3.5881004333496094,4.161979675292969,3.8899002075195312,-3.1042633056640625,0.22747802734375,-11.478927612304702,-3.671287536621108,-0.42833709716796875,5.0,7.0,02-14,-0.8037360509236681
01-31,-1.068542480468757,-3.3074569702148438,-1.406597137451179,3.3175926208496094,3.9754867553710938,4.5744781494140625,0.63433837890625,-3.1042633056640625,-1.1657638549804688,-11.95602416992189,-2.354621887207017,2.4045028686523438,5.0,7.0,02-15,-0.7880725860595715
02-01,-1.068542480468757,-2.031543731689453,-1.1289100646972656,3.5971031188964844,2.305957794189453,6.196601867675781,0.63433837890625,-3.3206214904785156,0.2180023193359375,-9.31292724609375,-2.0182571411132812,3.9036788940429688,6.0,6.0,02-16,-0.168759981791179
02-02,-1.185277938842777,-2.7373504638671875,-1.6797256469726491,3.830799102783196,2.910144805908203,6.196601867675781,2.126861572265625,0.5079727172851562,0.9856872558593892,-5.791954040527344,-2.5276107788085938,3.9036788940429688,7.0,5.0,02-17,0.5449856122334807
02-03,-1.872224807739265,-1.9817428588867188,-1.8481483459472727,2.634815216064446,2.910144805908203,6.363433837890625,0.5690689086914062,-2.1635818481445312,-0.1800689697265483,-2.6717453002929688,-2.5276107788085938,4.1957244873046875,5.0,7.0,02-18,0.2856720288594558
02-04,-5.540311813354492,-0.01810455322265625,-1.7252426147461009,2.1903495788574077,2.785614013671875,3.8838882446289062,1.2126617431640625,2.2388381958007812,0.9951629638672017,-2.6717453002929688,-2.325782775878892,1.2655258178710938,7.0,5.0,02-19,0.1909044583638515
02-05,-5.598680496215824,0.0,-1.1835365295410227,2.1903495788574077,0.17065048217773438,5.7609100341796875,-0.820892333984375,3.537006378173828,0.9951629638672017,-1.7843246459960795,1.8260269165039062,-2.4531936645507812,6.0,6.0,02-20,0.2199565569559736
02-06,-5.293394088745117,0.5791397094726562,-1.1835365295410227,3.464233398437486,0.7978782653808594,2.6000747680664062,-0.44774627685546875,2.2482376098632812,0.4454498291015625,-0.6011505126953267,3.3925857543945312,1.3726119995117188,8.0,4.0,02-21,0.6145319938659638
02-07,-6.33949089050293,1.2487831115722656,-0.6236419677734446,1.4755058288574219,-1.0976676940917969,1.093780517578125,-0.5970001220703125,0.968902587890625,1.743896484375,2.0801467895507812,5.564613342285156,2.8523101806640625,8.0,4.0,02-22,0.6975115140279128
02-08,-6.698665618896481,1.3844985961914062,1.8800010681152344,1.9383010864257812,-2.716461181640625,2.1597824096679688,-2.0055618286132812,1.2040786743164062,1.260528564453125,4.551506042480483,6.035530090332031,3.485076904296875,9.0,3.0,02-23,1.0398845672607437
02-09,-7.0174255371093714,-1.0994758605957031,1.9892578125,1.4709243774414134,-2.7441329956054688,2.702056884765625,-4.542869567871094,6.227375030517578,-2.160919189453139,5.477073669433608,4.392097473144531,2.2292861938476562,7.0,5.0,02-24,0.5769373575846363
02-10,-6.923151016235352,0.755615234375,4.620361328125,1.7550239562988352,-4.289127349853523,1.7611846923828125,-3.1063385009765625,2.0977210998535227,-3.7057876586914205,2.547691345214858,1.0956192016601562,0.49648284912109375,8.0,4.0,02-25,-0.2412254015604649
02-11,-4.952165603637695,0.733001708984375,5.048259735107429,1.0447654724121094,-3.6895675659179688,2.6278762817382812,-1.48321533203125,3.7251319885253906,-2.6727066040039205,3.7690353393554545,1.26861572265625,-4.750617980957031,7.0,5.0,02-26,0.05570109685261867
02-12,-5.419094085693359,0.7691726684570312,4.319923400878906,1.4296798706054688,-5.686542510986328,4.120246887207031,-1.6511077880859375,1.7120552062988281,-2.634796142578111,5.429351806640611,-0.8457565307617188,-8.167549133300781,6.0,6.0,02-27,-0.5520346959431967
02-13,-5.248479843139645,-0.06334304809570312,2.398948669433601,1.9108200073242116,-4.6580772399902415,5.0843048095703125,-3.6287155151367188,1.5333099365234375,-3.8384552001953125,6.698417663574247,-2.7294540405273438,-12.149116516113281,5.0,7.0,02-28,-1.2241533597310363
02-14,-1.8901729583740234,0.18098831176757812,3.118183135986328,0.8568954467773438,-2.9562568664550852,4.393714904785156,-3.2275772094726562,0.5737991333007812,-3.146598815917983,0.17176055908203125,-1.8452606201172017,-11.409271240234375,6.0,6.0,02-29,-1.2649830182393422
02-15,-2.1685333251953125,0.5565147399902273,3.9876327514648366,0.8110694885253977,-1.0469284057617259,3.0218734741210938,-5.932792663574219,-0.3668670654296875,-3.5636062622070455,-5.9827957153320455,-5.007179260253906,-11.029609680175781,4.0,8.0,03-01,-2.2267684936523473
02-16,-2.7836284637451136,0.8279800415039062,2.248729705810554,-1.7229423522949148,-2.0661659240722727,3.49920654296875,-6.315238952636719,-2.9631996154785227,-0.11373901367188921,-5.935066223144517,-4.488197326660156,-14.144771575927741,3.0,9.0,03-02,-2.829752763112386
02-17,-4.781547546386719,0.891326904296875,2.0348052978515696,-0.22452545166015625,-2.6242027282714773,4.402984619140625,-6.930915832519531,-5.456005096435547,0.9667053222656108,-6.240409851074219,-5.487709045410156,-10.971202850341797,4.0,8.0,03-03,-2.8683913548787436
02-18,-3.8521690368652344,0.6696243286132884,-0.09101486206054688,-0.8202247619628906,-3.8740501403808594,4.3427581787109375,-4.608177185058594,-2.3140907287597585,0.549690246582017,-6.46942138671875,-3.1619110107422017,-11.360595703125,3.0,9.0,03-04,-2.582465171813966
02-19,-2.1191387176513707,0.5339088439941477,0.16843414306640625,0.5773696899414062,-4.432109832763672,5.886077880859375,-3.0876617431640625,-2.5492668151855398,-0.9477767944335938,-6.211799621582031,-2.7870941162109375,-14.456279754638672,4.0,8.0,03-05,-2.4521114031473785
02-20,-1.8003787994384801,1.678600311279304,1.2609405517578125,-0.801898956298821,-1.2405967712402344,4.847892761230469,-0.55035400390625,-4.900981903076165,-0.8529891967773438,-5.8682861328125,-3.1523208618164205,-11.594234466552734,3.0,9.0,03-06,-1.9145506223042803
02-21,0.05388069152832031,1.3980712890625,0.4825248718261719,-1.1226730346679759,0.7194671630859446,5.788764953613281,-1.3432540893554688,-2.784423828125,0.5686645507812642,-4.580139160156264,-3.2772674560546875,-9.861431121826172,6.0,6.0,03-07,-1.1631512641906738
02-22,0.3861217498779297,2.3844223022460938,0.11834716796875,-1.3471870422363352,0.11990737915039062,4.676429748535156,-2.182830810546875,-0.7525405883789062,1.8955383300781392,-5.93505859375,-3.4502639770507812,-5.675434112548828,6.0,6.0,03-08,-0.8135457038879389
02-23,0.4893798828125,3.375316619873047,-3.7281494140625,-1.539653778076179,1.7663764953613281,4.940589904785156,-3.1342697143554688,7.00819015502929,-2.5968780517578267,-7.595375061035156,-2.7006149291992188,-7.82684326171875,5.0,7.0,03-09,-0.9618275960286482
02-24,-1.3065052032470632,2.429679870605476,-1.9892654418945455,-2.020793914794922,2.670318603515625,4.412239074707031,-3.628692626953125,0.9783172607421733,-1.393218994140625,-8.225135803222685,-3.26763916015625,-14.22265625,4.0,8.0,03-10,-2.1302793820699093
02-25,0.3950920104980469,2.5427703857421946,-2.7084999084472727,-1.13641357421875,3.186859130859375,2.3405227661132812,-6.38055419921875,3.5370025634765625,-2.919128417968736,-8.492324829101577,-7.9864959716796875,-28.610797882080078,5.0,7.0,03-11,-3.852663993835449
02-26,1.1628360748291051,2.1672439575195455,-2.963409423828132,-0.5544662475585938,2.3797760009765696,-0.38933563232421875,-3.3395156860351562,4.477668762207031,-2.094581604003892,-6.383544921875,-7.352203369140625,-21.027328491210938,4.0,8.0,03-12,-2.826405048370359
02-27,1.7779312133789062,1.8957786560058665,-4.31536865234375,-0.29326629638671875,1.4573822021484446,-1.0845184326171875,-2.9570693969726562,7.0740013122558665,-2.9570465087890483,-6.001884460449219,-7.746246337890625,-20.579521179199205,4.0,8.0,03-13,-2.8108189900716103
02-28,3.7758502960205114,1.4161796569824219,-3.031696319580078,-1.3197059631347656,1.923187255859368,-1.9882965087890625,-2.3413925170898438,7.083408355712912,-1.9334564208984375,-1.3072586059570312,-5.2186279296875,-23.75308990478515,4.0,8.0,03-14,-2.224574883778888
02-29,0.0,0.0,0.0,1.3701095581054688,0.0,0.0,0.0,9.820835113525398,0.0,0.0,0.0,-23.363697052001946,2.0,1.0,03-15,-1.01439603169759
03-01,5.9354095458984375,1.3257064819335938,-0.6372909545898438,-1.0218544006347585,3.17303466796875,-1.928070068359375,-3.1249771118164062,9.18114852905272,-5.174804687499986,-1.2309188842773438,-7.5444259643554545,-29.555074691772464,4.0,8.0,03-16,-2.5501764615376774
03-02,6.016218185424805,0.9320793151855469,-1.47943115234375,0.35741424560546875,3.7310943603515625,-2.9569549560546875,-3.4234695434570312,6.217952728271477,-1.3363571166992188,-1.4885406494140625,-7.919242858886719,-27.316055297851555,5.0,7.0,03-17,-2.3887743949890137
03-03,6.052133560180664,0.29862213134764914,-3.0043907165527344,0.6781883239746236,4.63043212890625,-1.5387649536132812,-2.3040847778320312,5.446601867675781,-1.4311447143554688,-1.8320541381835938,-6.842842102050781,-30.49935913085937,5.0,7.0,03-18,-2.528888543446858
03-04,5.387659072875977,0.27600860595703125,-2.2259750366210938,1.1135025024414134,3.980133056640625,-2.0068283081054688,-3.442138671875,3.4147186279296875,-2.8527984619140767,-3.0152511596679545,-7.650154113769531,-32.3100471496582,5.0,7.0,03-19,-3.277597586313883
03-05,4.566043853759762,-0.7103424072265625,-1.8617973327636719,1.6404762268066406,1.9508590698242259,-0.6164398193359375,0.9981536865234375,-0.40450286865234375,-4.018539428710966,-1.2977142333984375,-3.440643310546861,-31.258678436279297,4.0,8.0,03-20,-2.8710937500000013
03-06,4.462785720825192,-0.7058372497558594,0.04552841186522727,2.139911651611321,0.7701950073242188,-1.6360321044921875,1.9495925903320312,0.968902587890625,-3.449882507324247,-2.4236373901367188,0.903411865234375,-24.862865447998047,7.0,5.0,03-21,-1.8198272387186725
03-07,5.203584671020501,-1.8505516052246094,-0.2958831787109375,0.71942138671875,-0.6087799072265696,-1.1076812744140625,2.7425308227539062,0.15050506591796875,-3.1371002197265767,0.43892669677735796,4.3632659912109375,-7.63214111328125,6.0,6.0,03-22,-0.08449188868204871
03-08,5.755813598632809,-2.5654258728027273,2.3670692443847656,-0.27492523193360086,-1.1253204345703196,-0.7044677734375,1.6884078979492188,5.079742431640639,-0.284332275390625,3.9980697631835938,9.082122802734375,-4.263874053955085,6.0,6.0,03-23,1.5627400080362952
03-09,5.176641464233395,-2.963584899902351,3.4413833618164134,-0.5361251831054759,-1.1161041259765696,0.5932388305664062,2.7611846923828125,3.4241180419921875,-0.995147705078125,1.889289855957017,9.255134582519531,-2.638153076171868,7.0,5.0,03-24,1.5243229866027812
03-10,5.912967681884769,-2.1265220642089915,5.116535186767578,0.03667068481444602,-2.1952896118164062,1.2004013061523438,2.6212387084960938,3.414710998535142,-0.13268280029296875,3.9408187866210938,10.196990966796875,-6.872821807861328,8.0,4.0,03-25,1.7594181696573872
03-11,4.525638580322266,-2.357269287109375,3.8328628540039062,-1.5488128662109375,-1.6971855163574219,1.8538818359375,2.1361770629882812,0.6772842407226562,-0.284332275390625,3.4732742309570312,7.13116455078125,0.9150772094726491,8.0,4.0,03-26,1.554813385009765
03-12,2.0787258148193395,-2.266796112060547,3.432270050048828,-0.9164581298828125,-2.8409767150878906,2.9847564697265625,3.96453857421875,1.0535659790039205,-0.1326904296875,4.971351623535156,5.57421875,6.999368667602543,8.0,4.0,03-27,2.075156211853029
03-13,1.9979171752929723,-1.9546051025390625,4.105979919433594,-2.1491050720214844,-0.4519920349121094,4.268547058105469,4.263031005859375,-0.41390228271482954,-0.0853118896484375,7.175537109375,5.958648681640625,4.7603492736816335,7.0,5.0,03-28,2.289591153462729
03-14,0.8620243072509801,-3.3798484802246094,5.0118560791015625,-1.5579757690429688,-1.3513298034667969,2.8503570556640625,1.921630859375,-0.4515228271484233,-1.1468124389648438,6.1450042724609375,4.709259033203125,8.362251281738278,7.0,5.0,03-29,1.8312411308288585
03-15,0.21102333068848012,-3.3029327392578125,5.917713165283203,-2.7493667602539134,-0.7010307312011719,2.266357421875,3.2275772094726562,0.865455627441392,-1.67755126953125,7.328201293945298,5.516571044921875,8.206497192382809,8.0,4.0,03-30,2.0923762321472137
03-16,-0.9922199249267578,-1.5926437377929688,6.910072326660163,-3.2763404846191406,-0.01385116577149148,2.8874435424804688,2.4813232421875,0.38568115234375,1.108879089355483,5.610664367675781,2.566070556640625,4.770084381103512,8.0,4.0,03-31,1.7370969454447438
03-17,-2.8913726806640625,-1.1175689697265625,4.784244537353523,-3.55584716796875,-0.33667755126954546,4.602264404296875,4.9812774658203125,-2.67156982421875,0.5402221679687642,7.499946594238281,3.1907577514648438,3.981563568115231,7.0,5.0,04-01,1.58393669128418
03-18,-3.2550544738769496,0.0271453857421875,5.1256561279296875,-3.8353729248046804,-0.3966331481933665,3.2489471435546875,0.9608230590820312,-1.8531723022460938,0.739250183105483,5.104919433593736,3.1331024169921875,5.996681213378913,8.0,4.0,04-02,1.2496910095214853
03-19,-2.743219375610348,0.7420196533203054,3.546092987060547,-2.882251739501946,0.5718841552734375,4.833984375,2.0149459838867188,-2.1635894775390625,0.9003677368164205,6.4885101318359375,3.9019546508789062,1.3434104919433665,9.0,3.0,04-03,1.3795091311136902
03-20,-2.164047241210934,0.8325157165527344,3.2365493774414062,-0.6231842041015625,1.2959556579589915,3.6567840576171733,0.942169189453125,-3.1795120239257812,1.2605285644531392,1.5267028808593608,0.15377044677734375,-0.28231048583985086,8.0,4.0,04-04,0.5546601613362622
03-21,-4.018306732177734,0.6515350341796875,3.1819229125976562,-0.11457443237303977,1.014629364013679,3.049621582031236,2.5093460083007812,-3.6875076293945312,2.3030776977539062,0.27672576904298296,-2.8255538940429688,0.05841064453125,8.0,4.0,04-05,0.19994386037190873
03-22,-2.5815925598144567,1.8460159301757812,2.2805862426757812,1.4709091186523438,0.5165252685546946,3.9951095581054545,2.0708999633789062,-5.258453369140639,3.4119720458984375,-0.1144866943359375,0.24027252197265625,3.6603126525878906,9.0,3.0,04-06,0.961505889892576
03-23,-1.3199844360351598,1.6424102783203125,1.2973518371582031,0.8385543823242188,1.0054206848144602,5.422637939453139,3.4608154296875,-3.574615478515625,2.6253280639648438,-1.6125640869140625,1.1052398681640625,5.208160400390625,9.0,3.0,04-07,1.341562906901043
03-24,-1.5175285339355504,2.176288604736328,-0.3368492126464844,0.6415138244628906,-0.4888648986816406,4.6068878173828125,5.624961853027344,-2.8973236083984375,2.5779495239257812,-3.2442398071289062,0.8553543090820312,-0.360187530517571,6.0,6.0,04-08,0.6364968617757164
03-25,-2.4558601379394567,6.479145050048821,-1.2427253723144531,-0.7515029907226562,0.38280487060546875,1.988311767578125,4.020484924316406,-3.113685607910142,3.9806442260742188,-3.0438766479492045,5.622268676757827,1.5965232849121094,7.0,5.0,04-09,1.1218776702880886
03-26,-1.8048591613769567,6.402229309082024,-1.6524124145507812,-1.3655281066894531,-0.9269905090332031,2.4564056396484375,2.4999847412109375,-3.113685607910142,4.4261093139648295,-5.381645202636719,4.526649475097656,1.7522773742675781,6.0,6.0,04-10,0.6515445709228507
03-27,-0.6016159057617188,4.877456665039055,-1.7207069396972585,-1.759613037109382,0.023056030273444605,2.0577850341796875,3.2462387084960938,-2.897346496582003,3.7721405029296875,-2.8148651123047017,3.8250656127929545,5.188690185546875,7.0,5.0,04-11,1.0996904373168945
03-28,0.5881557464599609,6.334369659423828,-1.7207069396972585,-2.579841613769524,0.25365447998047586,0.34296417236328125,1.7723846435546875,-0.9971466064452841,3.1086959838867188,3.6641006469726705,3.3541488647460938,6.181644439697266,9.0,3.0,04-12,1.6918686230977429
03-29,1.0730419158935547,5.3434906005859375,-3.1864700317382884,-2.7814559936523438,0.05073165893555398,0.8018035888671875,3.3302154541015625,-1.3546066284179688,0.9924163818359375,3.9408111572265625,3.41180419921875,10.03665542602539,9.0,3.0,04-13,1.804869810740153
03-30,2.105672836303711,6.261974334716797,-4.533882141113281,-3.734577178955078,0.05073165893555398,0.02317047119140625,4.151107788085952,3.6216659545898438,0.831298828125,6.173629760742202,1.7203216552734375,9.579113006591797,10.0,2.0,04-14,2.1875189145406115
03-31,3.237094879150387,6.533443450927734,-3.522289276123047,-4.765602111816406,-0.11529922485351562,0.5051727294921875,2.7984695434570312,5.050498962402344,0.47113800048828125,6.173629760742202,1.7203216552734375,7.1746063232421875,9.0,3.0,04-15,2.1050987243652353
04-01,1.5857429504394496,6.2746429443359375,-3.467662811279297,-3.6456565856933594,-1.9359970092773366,1.0260009765625,5.047943115234375,5.558494567871094,1.0303268432617188,6.727066040039077,8.044181823730469,7.427711486816406,9.0,3.0,04-16,2.806066195170086
04-02,-0.4270038604736328,5.283763885498047,-3.4585494995117188,-4.513156890869141,-5.852302551269531,1.9728164672851705,5.059761047363281,7.1858901977539205,0.6600875854492188,7.897911071777358,6.039176940917969,1.8957672119140696,8.0,4.0,04-17,1.8120134671529176
04-03,-1.6886119842529297,5.283763885498047,-3.408405303955071,-4.866409301757805,-3.1246414184570384,0.5452880859374858,3.0448532104492188,7.214187622070327,-1.0962982177734375,5.855934143066392,8.298141479492188,0.34791946411133523,7.0,5.0,04-18,1.3671434720357258
04-04,-0.5931224822998047,5.832008361816406,-3.2625160217285156,-2.5416221618652344,-3.630268096923828,1.3610382080078125,3.0448532104492188,5.234451293945327,-2.2239837646484375,6.838958740234375,8.548027038574219,0.7957229614257812,7.0,5.0,04-19,1.61696227391561
04-05,-0.8901386260986328,4.4590911865234375,-3.1358604431152344,-2.2167739868164062,-4.5019378662109375,3.06658935546875,3.0822296142578125,6.6490020751953125,-2.4529190063476562,8.263442993164034,3.7811126708984233,-2.514324188232429,6.0,6.0,04-20,1.1324594815572062
04-06,-0.21509742736816406,4.871177673339851,-2.357715606689446,-1.4194488525390625,-5.488895416259766,2.9737701416015625,2.362701416015611,7.602546691894531,-4.3604354858398295,10.601211547851548,2.9641952514648438,2.7110328674316264,7.0,5.0,04-21,1.6870869000752755
04-07,-0.8390159606933594,3.5884971618652415,-2.2894210815429688,-1.4194488525390625,-5.262580871582031,4.310279846191406,3.398963928222642,7.612472534179673,-3.7064666748046875,9.217636108398438,2.473030090332017,0.20332717895507102,7.0,5.0,04-22,1.4406061172485316
04-08,-0.9008693695068395,2.294719696044922,-2.2894210815429688,-1.5158462524414062,-6.126270294189446,4.589645385742202,2.5388641357421875,5.7122726440429545,-4.853263854980469,10.355049133300795,4.428092956542983,-4.30976486206054,6.0,6.0,04-23,0.8269340197245313
04-09,-2.181018829345703,3.2855987548828125,-1.383563995361321,-1.9427108764648438,-5.386360168457031,3.2627029418945312,2.0183181762695312,5.2042999267578125,-4.843780517578125,10.288131713867202,8.384529113769545,-1.2493629455566406,6.0,6.0,04-24,1.288065274556481
04-10,-2.459384918212887,2.1951828002929688,-0.31226348876953125,-0.10476303100585938,-5.279869079589851,6.584373474121094,1.197425842285142,5.006317138671875,-4.577949523925781,7.035743713378892,7.7781219482421875,0.2400665283203054,7.0,5.0,04-25,1.441916783650713
04-11,-2.459384918212887,2.711719512939453,-0.28945159912109375,0.7665023803710938,-3.7605552673339844,6.1023712158203125,2.9698028564453125,6.665557861328125,-3.9304580688476562,5.1364898681640625,5.216316223144531,0.2400665283203054,8.0,4.0,04-26,1.6140813827514646
04-12,-0.7672977447509695,3.033435821533203,0.5789604187011719,0.55535888671875,-1.9398574829101634,4.7519378662109375,3.5024490356445312,2.2795486450195312,-2.1076431274414062,5.3572540283203125,-1.1075439453125,1.2910270690917898,8.0,4.0,04-27,1.2856357892354324
04-13,0.6052799224853551,2.381084442138679,0.5060195922851562,1.4228591918945312,1.7274093627929688,3.2669830322265625,2.05401611328125,4.7136993408203125,-1.2626876831054688,4.186408996582031,1.7528152465820312,0.44632720947264914,11.0,1.0,04-28,1.8166845639546716
04-14,0.8550453186035156,-0.2990608215332031,0.47411346435546164,1.679901123046868,2.6188201904296875,-0.8538894653320312,0.8410415649414205,6.316352844238281,-1.3576278686523438,4.186408996582031,-0.0385284423828125,2.6372299194335938,8.0,4.0,04-29,1.4216505686442058
04-15,1.8676013946533203,-0.4893646240234375,0.32822418212890625,2.6391830444335866,1.3532943725585938,-2.8307723999023438,0.46722412109375,8.296089172363281,-1.3576278686523438,6.30828857421875,-4.0834808349609375,4.999443054199212,8.0,4.0,04-30,1.4581751823425282
04-16,3.222181320190426,0.8835525512695312,0.8616104125976562,2.8686752319335866,1.2840118408203196,-1.2900619506835938,1.626014709472642,6.665168762207031,-2.6013031005859375,5.514976501464844,-5.152496337890625,11.000747680664055,9.0,3.0,05-01,2.073589801788328
04-17,2.5471401214599574,0.6479339599609304,0.9619102478027344,2.299499511718743,2.928264617919929,-4.1301422119140625,2.3455429077148438,4.1951751708984375,-3.076019287109375,6.709716796875,-5.576263427734361,5.775390625,9.0,3.0,05-02,1.3023457527160647
04-18,4.396743774414059,1.481658935546868,1.4496841430664062,3.2404518127441406,1.6258010864257812,-5.132507324218764,1.8689804077148438,4.8833770751953125,-2.658294677734375,4.501831054687528,-11.53775024414064,6.4334716796875,9.0,3.0,05-03,0.8794539769490551
04-19,3.3796825408935547,1.8713455200195241,0.6701393127441335,2.441814422607429,2.489490509033196,-5.132507324218764,1.1307220458984517,3.4410018920898438,-1.3481216430664062,2.4946441650390625,-14.619613647460938,6.227207183837905,9.0,3.0,05-04,0.253817081451416
04-20,4.549758911132816,0.9288864135742188,-1.673065185546875,2.8686790466308665,1.1223602294921875,-5.949249267578139,1.0840225219726705,1.1878509521484375,-1.4620361328125,2.5615615844726562,-14.619613647460938,3.339508056640632,8.0,4.0,05-05,-0.5051113764444972
04-21,6.808853149414059,-0.7385749816894531,-2.548358917236328,2.607036590576179,1.5103340148925781,-6.004928588867202,2.616577148437514,0.169708251953125,-1.7278671264648438,1.7300109863281392,-17.23920440673828,6.128990173339837,7.0,5.0,05-06,-0.5572853088378897
04-22,6.592844009399414,-3.552375793457024,-1.8508567810058594,1.8864326477050781,3.5009994506835866,-2.8678741455078125,-2.9529953002929688,-1.489532470703125,-1.8797683715820312,1.1182861328125284,-15.57305908203125,2.8484039306640625,5.0,7.0,05-07,-1.1849579811096167
04-23,7.834926605224606,-3.874092102050774,-1.8508567810058594,0.7756805419921875,4.175312042236328,-1.34576416015625,-2.9810028076171875,-0.3959503173828125,-4.8798370361328125,-0.1720428466796733,-14.792991638183594,1.5911788940429688,4.0,8.0,05-08,-1.3262866338094061
04-24,6.462348937988281,-3.3122291564941406,-2.730701446533203,0.14688873291015625,7.279117584228516,1.2157974243164062,-1.5325698852539062,1.4141159057617188,-2.715240478515625,-0.6690521240234375,-11.71112060546875,2.4358787536621094,6.0,6.0,05-09,-0.30973052978515625
04-25,6.799871444702148,-4.580924987792976,-1.3220443725585938,-1.11993408203125,7.40843200683593,5.336669921875,-2.1306228637695455,-1.018157958984375,-3.3988113403320312,-0.10512542724610796,-7.7528305053710795,1.2768745422363281,4.0,8.0,05-10,-0.050550301869712655
04-26,4.995283126831055,-5.2741775512695455,-0.18235397338867188,-1.5697212219238281,8.673957824707024,6.2462310791015625,-3.607116699218764,-3.9029312133789062,-2.5348587036132812,0.16249847412109375,-3.7078781127929545,3.7029342651367188,5.0,7.0,05-11,0.25015560785929186
04-27,6.502859115600579,-0.9696464538574148,-0.4148597717285156,-1.7992134094238281,7.3760910034179545,3.406219482421875,-3.607116699218764,-4.5063018798828125,1.4620285034179688,0.955810546875,-2.860359191894517,6.787067413330078,6.0,6.0,05-12,1.0277148882548002
04-28,4.653268814086914,-2.1205368041992188,-2.4116058349609375,-2.1618080139160085,6.535491943359368,3.916656494140611,-6.4012298583984375,-1.4800872802734375,1.9367446899414062,-0.36319732666015625,-2.658111572265625,4.773540496826179,5.0,7.0,05-13,0.35159381230672143
04-29,3.3796787261962997,-1.3049430847167969,-2.8993797302246094,-1.5146446228027273,5.380813598632805,3.731040954589858,-5.9153060913085795,-2.1682891845703125,2.3829574584960938,0.7455215454101705,-1.9261627197265625,1.9644165039062642,6.0,6.0,05-14,0.15464194615682528
04-30,3.0781726837158203,-1.6946296691894531,-1.9374885559082031,-2.561134338378899,5.773414611816399,6.654602050781236,-6.8684844970703125,-2.3191299438476562,2.1361312866210938,-0.7264022827148295,-2.4558486938476562,0.677722930908196,5.0,7.0,05-15,-0.020256201426188742
05-01,1.908096313476559,-2.3471031188964844,-2.4708480834960938,-4.677085876464837,8.239795684814453,6.2926483154296875,-6.821784973144531,-2.1494522094726562,2.5348739624023438,1.0704879760741903,2.35955810546875,3.5654220581054688,7.0,5.0,05-16,0.6253840128580709
05-02,-0.7740306854247976,-2.4830360412597656,-2.507312774658203,-4.621994018554695,6.937305450439453,6.34832763671875,-7.279685974121108,-3.8935012817382812,2.7152328491210938,3.4217681884765625,4.998405456542983,1.43402099609375,6.0,6.0,05-17,0.3579583168029785
05-03,-0.3060150146484233,-3.384723663330078,-1.5727767944335938,-4.02073669433593,4.946640014648445,4.3157501220703125,-8.092674255371108,0.05657958984375,1.9652175903320312,5.247360229492173,3.3322601318359517,0.8054084777832031,7.0,5.0,05-18,0.2743574778238944
05-04,-1.7055778503417933,-3.176288604736328,-0.3054466247558594,-2.9099845886230398,3.9951934814453125,3.2391204833984375,-8.335647583007827,2.1023025512695312,4.1298370361328125,6.537689208984375,3.0048294067382955,0.9232749938964844,7.0,5.0,05-19,0.6249418258667001
05-05,0.018024444580074572,-1.0557403564453196,1.0348472595214844,-2.6713180541992116,3.3162460327148438,3.016365051269517,-2.5604934692382812,-0.80133056640625,1.965240478515625,7.273651123046875,3.7945632934570312,6.276313781738281,8.0,4.0,05-20,1.6338640848795558
05-06,-2.4796371459960938,-0.06343841552734375,-0.373809814453125,-3.4102935791015625,4.253856658935547,-1.2343902587890625,-4.5042266845703125,1.6309432983398438,1.1962356567382812,11.718116760253892,1.71429443359375,4.734245300292969,6.0,6.0,05-21,1.0984913508097318
05-07,-0.4860343933105469,0.6298141479492259,-2.142608642578125,-3.883045196533203,-0.036968231201171875,-2.6915206909179688,-2.8408432006835938,1.6686553955078125,0.0,11.374038696289062,1.829864501953125,4.262783050537109,5.0,7.0,05-22,0.6403446197509771
05-08,-1.993610382080071,-1.9302520751953196,-2.4298133850097656,-1.7395553588867188,-1.6719703674316335,2.2553176879882812,-2.8408432006835938,1.3575439453125,2.0127029418945312,11.62253570556642,1.5409393310546733,1.17864990234375,6.0,6.0,05-23,0.6134703954060878
05-09,-0.5805435180664062,-4.62171936035157,-2.0377578735351562,-1.7304153442382812,-2.378662109375,1.7448806762695455,-1.07464599609375,2.1494522094726562,1.3956069946289062,5.706130981445327,-1.2808914184570312,2.7600059509277273,5.0,7.0,05-24,0.004286766052247278
05-10,-0.5805435180664062,-2.67333984375,-3.008777618408203,-2.207740783691399,-1.2239837646484375,0.4826049804687358,-1.07464599609375,1.451812744140625,-1.9082565307617188,3.851875305175753,-2.0128402709960938,2.7600059509277273,4.0,8.0,05-25,-0.5119857788085973
05-11,-1.7911071777343714,-3.3439292907714844,-0.28720855712890625,-1.1612510681152273,-1.26092529296875,0.4826049804687358,-0.11212158203125,2.0457305908203125,-1.5285186767578125,5.323799133300753,-0.5682220458984375,2.4358787536621094,4.0,8.0,05-26,0.01956081390380593
05-12,-1.8270874023437536,-4.381565093994141,0.765869140625,0.30292510986328125,-1.26092529296875,0.037109375,-2.9436264038085938,2.4322891235351562,-1.9272613525390625,4.109947204589844,-0.5682220458984375,2.5144577026367116,6.0,6.0,05-27,-0.22884082794189542
05-13,-0.4725151062011719,-3.7789459228515625,0.8023338317871094,0.30292510986328125,-1.0438232421875,-1.1137313842773153,-2.2894744873046875,4.176338195800781,-1.9557418823242188,4.109947204589844,-4.478355407714844,3.182353973388672,5.0,7.0,05-28,-0.21322409311930102
05-14,-1.3905677795410227,-2.87725830078125,1.1397018432617188,-0.11474990844727273,-2.6973228454589844,0.7703323364257812,-1.6166763305664062,2.253143310546875,-1.9557418823242188,1.242546081542983,-6.914947509765625,5.078022003173828,5.0,7.0,05-29,-0.5902932484944662
05-15,0.008995056152347303,-1.5813674926757812,1.1397018432617188,1.1658287048339844,-1.6488800048828125,2.2739028930664062,-1.3737030029296875,2.253143310546875,-3.522216796875,-2.3608322143554545,-6.982360839843764,4.960155487060547,6.0,6.0,05-30,-0.4723027547200518
05-16,-1.2510795593261683,-1.5813674926757812,1.1533737182617188,2.7126274108886577,-0.18012237548828125,2.4966583251953267,-2.6165695190429688,1.517791748046875,-2.4778976440429688,-5.056198120117173,-8.426994323730469,0.28484344482421875,5.0,7.0,05-31,-1.1187445322672511
05-17,0.7020378112793004,1.4862022399902415,1.157928466796875,1.6753044128417969,-1.1177330017089844,2.6822662353515625,-2.47637939453125,0.0,-3.161468505859375,-6.107574462890611,-6.3467254638671875,-0.7857666015625,5.0,7.0,06-01,-1.024325688680011
05-18,0.9630546569824325,0.9062347412109375,1.1488075256347656,2.1480560302734375,-1.28399658203125,4.055870056152344,-2.90625,0.8955917358398438,-1.310150146484375,-5.763496398925781,-6.98236083984375,-1.4438438415527344,6.0,6.0,06-02,-0.7977069218953442
05-19,2.1151084899902344,-0.63433837890625,1.0029296875,0.36258697509765625,-1.3486595153808594,3.2484130859375,-1.4017257690429688,0.6316375732421875,-3.3228530883789062,-7.350120544433594,-9.361167907714844,1.1295433044433594,6.0,6.0,06-03,-1.244053840637207
05-20,1.696594238281243,5.192630767822266,0.6108741760253906,-0.41309356689453125,-3.0067672729492188,3.2391204833984375,-0.644805908203125,-0.16027069091796875,-2.6582794189453125,-9.213928222656264,-11.364395141601562,2.1215744018554688,5.0,7.0,06-04,-1.2167288462320982
05-21,1.2690658569335902,3.244251251220696,1.7961616516113281,-3.915180206298828,-1.1685409545898438,2.320281982421875,-2.3175277709960938,-0.49021148681640625,-2.5728378295898438,-8.697792053222656,-12.2119140625,2.995735168457024,5.0,7.0,06-05,-1.6457090377807633
05-22,1.521072387695309,4.707790374755859,3.0361366271972656,-5.0167274475097585,0.5681190490722656,2.496643066406236,-1.1681137084960938,-0.7353286743164062,-3.2564010620117188,-4.8650283813476705,-8.311431884765625,3.035022735595703,6.0,6.0,06-06,-0.6656872431437195
05-23,1.485067367553711,5.604946136474609,2.8765792846679688,-4.511863708496101,-1.3302116394042969,2.2274932861327983,-0.130828857421875,-1.4706802368164062,-3.1614608764648438,-6.117126464843736,-6.568244934082031,3.8600845336914062,5.0,7.0,06-07,-0.6030205090840663
05-24,1.7730998992919922,2.5509796142578125,1.3676414489746023,-2.6942710876464915,-1.0669441223144531,1.522125244140625,-1.6540451049804688,-1.1501388549804688,-1.7468643188476562,-3.670265197753892,-4.940635681152344,3.644001007080078,5.0,7.0,06-08,-0.5054430961608887
05-25,1.9080944061279297,1.1010475158691406,0.3874969482421875,-3.1349067687988352,-1.2008705139160156,2.942138671875,0.495269775390625,2.2059783935546875,-2.7247390747070312,-1.5483932495117188,-4.892478942871094,7.729991912841797,7.0,5.0,06-09,0.2723857561747227
05-26,1.993600845336907,2.546497344970703,0.7795562744140696,-4.562358856201172,-0.2216796875,4.260078430175781,-0.03739166259765625,2.884765625,-2.91461181640625,-0.06689453125,-2.7351531982421875,10.480178833007812,6.0,6.0,06-10,1.0338823000590007
05-27,2.871162414550774,-1.2233963012695384,0.3601531982421946,-4.31907653808593,0.72052001953125,4.4364013671875,0.08409881591796875,3.5729598999023438,-1.3955917358398438,1.6439819335937358,-2.4173431396484375,6.620090484619141,8.0,4.0,06-11,0.9128300348917632
05-28,1.1880455017089773,-0.46671295166015625,-0.09117507934569602,-5.039691925048821,0.23095321655274148,3.2483978271484375,1.1774520874023438,3.77093505859375,-1.4335708618164062,1.3954696655273295,-1.8394927978515625,3.919017791748047,7.0,5.0,06-12,0.5049689610799154
05-29,0.9270286560058452,1.3502540588378906,0.7476348876953125,-5.934722900390618,-1.7181663513183594,3.7403106689453125,1.6073226928710938,3.0356063842773438,0.43671417236328125,1.720443725585909,0.06740570068359375,4.577095031738281,10.0,2.0,06-13,0.8797438939412405
05-30,-0.6615333557128977,3.5976715087890696,-0.6701431274414062,-3.130290985107422,-1.4133377075195312,4.547767639160156,1.5418930053710938,0.1885528564453125,0.24683380126953125,-1.2329635620117188,1.0305023193359375,3.7520408630371094,7.0,5.0,06-14,0.6497494379679362
05-31,0.16652679443359375,4.091564178466797,-2.019542694091797,-3.0293121337890625,0.24477005004882812,4.937583923339844,1.76617431640625,0.02828216552734375,0.23734283447265625,0.42055511474610796,3.0337295532226562,-0.6482582092285156,9.0,3.0,06-15,0.7691179911295585
06-01,0.40505218505859375,3.6792259216308594,-1.4405746459960938,0.4727745056152344,-0.9791793823242188,5.800735473632827,0.7195358276367188,2.1022872924804688,-1.395599365234375,-0.0955810546875,2.0032272338867188,0.7464790344238281,8.0,4.0,06-16,1.0015319188435885
06-02,0.01800918579102273,1.1826133728027344,-3.6652374267578125,1.0556869506835866,0.729736328125,8.018936157226562,-0.513946533203125,1.8383407592773438,-0.7120361328125,-0.4014434814453125,3.4093170166015625,-2.5537452697753906,7.0,5.0,06-17,0.7005192438761393
06-03,0.5805320739746094,0.2990455627441406,-3.5056800842285156,1.863483428955071,-0.004611968994140625,6.840248107910142,0.999908447265625,2.5736923217773438,-0.25632476806640625,-1.0896301269531392,2.1380538940429688,-0.7563018798828125,7.0,5.0,06-18,0.8068679173787405
06-04,0.017982482910163355,3.3530120849609375,-2.8218650817871023,2.8640861511230398,0.5403671264648438,5.587257385253906,1.532562255859375,1.1030120849609375,-2.0506668090820312,-4.291557312011719,1.1460723876953125,-2.6225013732910156,8.0,4.0,06-19,0.36314678192138733
06-05,-0.11701202392577414,4.191261291503906,-3.396270751953118,1.3127288818359375,3.002178192138679,5.234573364257827,-0.6167526245117188,-1.027587890625,-0.6455841064453125,0.03823089599609375,6.038551330566406,-6.708492279052734,6.0,6.0,06-20,0.6088186899820993
06-06,-0.20251846313475141,4.0417327880859375,-3.1045074462890554,0.4727630615234446,2.2862396240234375,3.9166336059570455,-0.0840911865234375,-0.35823822021484375,-2.6203155517578125,0.8984375,4.2183074951171875,-9.45867919921875,6.0,6.0,06-21,0.00048033396403350065
06-07,-0.7200431823730398,4.114223480224609,-3.259521484375,-1.1520729064941406,1.3440399169921875,3.7403106689453267,-0.28034210205078125,-2.102294921875,-0.2848358154296875,1.4337005615234375,3.9004974365234375,-9.016681671142585,5.0,7.0,06-22,-0.19025166829426965
06-08,-1.7010936737060511,2.378814697265625,-3.0771675109863352,-0.43145751953125,1.833606719970696,5.837860107421889,-0.7849655151367188,-0.4242401123046875,-0.9398956298828125,1.6822128295898438,3.3226470947265625,-9.635475158691406,5.0,7.0,06-23,-0.16159613927205374
06-09,-3.2266788482665945,1.196197509765625,-4.303478240966797,0.4635734558105469,-0.29097747802735086,7.861167907714844,-0.943817138671875,-0.92388916015625,-2.8101806640625,1.3572387695312642,6.019279479980469,-6.9245758056640625,5.0,7.0,06-24,-0.21051168441772342
06-10,-3.582185745239247,-0.8745155334472727,-2.885700225830078,-2.5014724731445312,-0.5634994506836009,8.093208312988281,-1.5138778686523438,1.9231643676757812,-2.62030029296875,-1.3476715087890483,6.905326843261719,-3.113605499267578,3.0,9.0,06-25,-0.1734274228413891
06-11,-4.396736145019531,-1.368408203125,-1.5363006591796875,-1.9782371520996094,-0.785186767578125,2.1532516479492188,-2.1586761474609375,2.08343505859375,-2.0791473388671875,0.47791290283204546,3.9101409912109375,-2.1608619689941406,4.0,8.0,06-26,-0.6532344818115222
06-12,-4.635261535644531,-0.9560699462890625,-2.0742416381835938,-4.254825592041016,0.24016571044921875,4.074447631835923,-1.1120376586914062,2.931915283203125,-1.984222412109375,-1.5675201416015625,4.825050354003906,-3.5555992126464844,4.0,8.0,06-27,-0.6723499298095715
06-13,-4.018718719482422,-1.9755477905273438,-2.9358444213867188,-4.011573791503906,-0.6835632324218821,1.8562469482421875,-0.8223648071289062,-0.31111907958984375,-3.0095596313476562,1.3668060302734375,6.356346130371094,-3.2020034790039062,3.0,9.0,06-28,-0.9492413202921556
06-14,-3.4291973114013636,0.37607955932616477,-2.1426048278808594,-4.006942749023445,0.05078506469725852,1.846946716308608,-1.4671707153320312,-4.138618469238281,-0.8829269409179688,6.117141723632827,7.6276092529296875,-1.4536705017089773,5.0,7.0,06-29,-0.12521409988403173
06-15,-3.9107322692871094,-2.2383804321289062,-0.20971298217773438,-5.007545471191413,-0.6835632324218821,1.290061950683608,-1.0840072631835938,-0.6505126953125,1.8797760009765625,9.319068908691406,7.338691711425781,-3.388622283935547,4.0,8.0,06-30,0.2212101618448893
06-16,-3.1051673889160156,-4.599052429199219,0.6792488098144602,-4.130889892578132,-1.0715408325195312,1.6798706054687642,-3.5790939331054688,3.073333740234375,0.47469329833984375,6.986915588378906,6.3948822021484375,-4.861930847167962,6.0,6.0,07-01,-0.17156092325846176
06-17,-2.3986244201660227,-5.2968292236328125,0.38748550415039773,-4.3925323486328125,-0.7620697021484375,4.148689270019531,-1.373687744140625,2.4039840698242188,0.90191650390625,6.5759124755859375,7.4061279296875,-1.7876205444335938,6.0,6.0,07-02,0.48439598083496094
06-18,-1.8810997009277344,-5.369319915771484,1.0029258728027415,-2.1205215454101562,0.13394546508788352,2.7936477661132812,-1.1774368286132812,0.235687255859375,1.8323211669921875,7.464813232421889,4.6131591796875,-2.2296180725097585,7.0,5.0,07-03,0.44154198964437025
06-19,-0.900049209594723,-5.546047210693359,1.0029258728027415,-2.6804733276367188,-0.12930679321289062,0.6960983276367188,-0.6728134155273438,0.235687255859375,1.8323211669921875,7.025146484375,4.2760772705078125,-1.6108245849609375,6.0,6.0,07-04,0.29406181971232187
06-20,0.1980113983154297,-5.546047210693359,1.6639442443847585,-1.8359451293945312,3.1822891235351562,-1.3272094726562358,-0.49526214599609375,0.216827392578125,2.5348587036132812,2.838737487792983,-3.74639892578125,-1.7286911010742188,6.0,6.0,07-05,-0.33707380294799627
06-21,-0.19802284240722656,-5.224338531494141,0.4057426452636719,3.860076904296882,3.4548110961914062,-0.7981872558593608,-2.158660888671875,-0.12255096435546875,4.9842681884765625,5.5723114013671875,-4.6324462890625,-2.5144577026367188,5.0,7.0,07-06,0.21904548009236832
06-22,-1.4625873565673828,-3.674713134765625,0.8661727905273438,3.3368415832519602,4.835807800292969,-1.0951995849609375,-2.2521209716796875,-0.7918930053710938,2.4778976440429688,3.7467269897460938,-2.8892593383789062,-1.8661994934082102,5.0,7.0,07-07,0.10262282689412434
06-23,-2.097112655639652,-3.1672210693359375,0.9619026184082031,4.585296630859382,4.974349975585945,-0.612571716308608,-3.4575881958007812,-1.6403732299804688,2.3829727172851562,5.35247802734375,-3.2359695434570312,-2.0135269165039062,5.0,7.0,07-08,0.16938638687133759
06-24,-3.0331783294677734,-0.3579559326171875,1.8235054016113281,3.258819580078125,5.999717712402344,2.5151824951171875,-1.5138473510742188,1.6026611328125,2.7627182006835938,6.107566833496094,-1.9165420532226562,-0.8250541687011719,7.0,5.0,07-09,1.3686327934265137
06-25,-3.0871753692626953,-2.709583282470696,0.8843803405761719,2.6345977783203125,4.438621520996108,-0.037109375,-2.9529876708984375,3.9312210083007812,1.1772308349609375,7.187614440917969,0.10593414306640625,-3.231468200683601,7.0,5.0,07-10,0.695106347401938
06-26,-2.6056404113769496,-0.7340126037597656,1.4679031372070312,3.456188201904297,4.789619445800774,1.058067321777358,-3.336151123046875,2.8470840454101562,0.996856689453125,6.1649017333984375,-3.7945404052734375,-1.2965164184570312,7.0,5.0,07-11,0.75114663441976
06-27,-2.335636138916012,0.3625030517578125,0.7248344421386719,1.6615219116211009,5.200691223144531,0.6682586669922017,-1.6447219848632812,3.7238388061523438,1.5380020141601562,2.9056243896484375,-1.3964691162109375,-2.170684814453132,8.0,4.0,07-12,0.7698135375976577
06-28,-1.953109741210934,0.0679931640625,-1.5499725341796804,3.0844039916992188,4.8912200927734375,-0.27843475341795454,-0.8877716064453125,1.0841522216796875,1.5285186767578125,1.1087341308593892,-2.40771484375,-5.21553039550782,6.0,6.0,07-13,-0.043959299723304625
06-29,-2.007114410400394,2.4014892578125,-1.9192237854003977,0.8123931884765625,3.2146224975585938,-1.763427734375,-1.5979690551757812,1.6026535034179688,0.5411376953125,0.2198333740234375,-2.3402786254882812,-4.174388885498054,6.0,6.0,07-14,-0.41752274831136216
06-30,-1.8406009674072266,3.8242263793945312,-2.4843711853027273,1.3494186401367188,3.8058013916015625,-2.979248046875,-3.1211929321289062,0.5522232055664062,0.0474700927734375,2.1601028442382812,-2.1669235229492188,-5.6084136962890625,6.0,6.0,07-15,-0.5384589831034337
07-01,-1.0665512084960938,3.4957275390625,-1.8142547607421875,0.9684677124023438,4.341598510742202,-0.7981719970703267,-0.5046157836914062,-0.729888916015625,-1.7089004516601562,1.6630859375,-2.109130859375,-2.534099578857422,4.0,8.0,07-16,-0.06639448801676433
07-02,1.0797882080078125,3.831043243408203,-1.8871841430664062,1.9111518859863352,2.7004547119140625,-2.4755630493164062,-2.107818603515625,1.1744308471679688,-0.36966705322265625,3.4026412963867045,1.1460723876953125,-3.005561828613274,7.0,5.0,07-17,0.4499823252360026
07-03,1.7998199462890625,3.1468467712402344,-2.9054298400878906,-0.6772727966308594,3.0336151123046804,0.44237518310548296,-1.5658340454101562,1.9206619262695312,-0.312591552734375,2.2588348388671875,0.080169677734375,-2.89752197265625,7.0,5.0,07-18,0.3603061040242519
07-05,3.0492057800293004,1.16839599609375,-0.7091217041015554,2.240264892578125,2.5955810546875,1.3890609741210938,-2.3616943359375,0.6171035766601562,1.4909210205078125,0.517822265625,-2.9881210327148438,-2.1698455810546804,8.0,4.0,07-20,0.40329774220784653
07-06,3.202533721923828,1.0458946228027344,0.8792076110839915,2.8644866943359375,2.8911590576171733,-0.051055908203125,-4.140739440917969,-0.525848388671875,5.558906555175781,-0.562225341796875,-4.509796142578125,-2.8232688903808594,6.0,6.0,07-21,0.3191045125325515
07-07,5.34741401672364,0.22716522216796875,0.19522476196289062,2.474346160888672,3.4322662353515483,0.40421295166015625,-8.070335388183594,0.6243972778320312,5.739280700683594,-2.2635498046875,-4.277900695800781,-0.029567718505859375,8.0,4.0,07-22,0.3169128100077305
07-08,4.942691802978505,-1.65435791015625,0.93829345703125,3.1871261596679688,4.2045822143554545,0.27436065673828125,-6.548194885253906,-0.25235748291015625,4.6190032958984375,-3.4026260375976562,-2.7222900390625,3.321399688720703,7.0,5.0,07-23,0.5756359100341776
07-09,4.023433685302731,-1.3598480224609375,2.2648963928222585,3.6377639770507812,3.4476318359375,0.10770416259764204,-8.4661865234375,-0.5917129516601562,4.000770568847656,-3.4409255981445312,-1.594940185546875,6.138538360595696,7.0,5.0,07-24,0.6805938084920221
07-10,4.077438354492191,-1.3462600708007812,3.0639762878417898,3.6865158081054688,3.0314407348632812,1.0352249145507812,-7.755989074707031,-1.1773605346679688,3.2873992919921875,-3.7556076049804545,-2.6820449829101562,5.09739685058593,7.0,5.0,07-25,0.5468441645304365
07-11,3.4788990020751953,-0.9923286437988281,3.5251502990722585,1.7435340881347656,0.32677459716796875,2.2510452270507812,-7.447608947753906,-1.6591033935546875,2.7089767456054688,1.0941696166992045,-2.7684326171875,5.539394378662102,8.0,4.0,07-26,0.650039196014402
07-12,4.565881729125977,-1.3870925903320312,3.4154701232910156,2.2118568420410156,-0.20902252197267046,0.3576812744140625,-7.232261657714844,-5.877311706542969,4.249748229980469,4.233078002929673,-2.8262252807617188,4.212749481201172,7.0,5.0,07-27,0.47621266047159594
07-13,4.962804794311523,-1.3317985534667969,3.4839744567871094,1.2691726684570241,0.24510955810546875,0.5899887084960795,-8.31842041015625,-3.2021942138671875,2.79638671875,2.4935226440429688,-0.755584716796875,4.400859832763672,8.0,4.0,07-28,0.5528184572855613
07-14,4.40887451171875,-2.758918762207024,3.360687255859375,1.1266212463378835,1.7712326049804688,-0.6922149658203125,-11.116157531738281,-4.581306457519531,2.7393112182617188,3.6086654663085938,-2.89093017578125,1.6370964050292969,7.0,5.0,07-29,-0.2822532653808594
07-15,3.1392135620117188,-2.5547103881835866,1.3150405883788991,1.9221611022949148,1.017425537109375,-0.04644775390626421,-5.9925079345703125,-4.0806427001953125,2.710784912109375,4.0681304931640625,-4.031074523925781,0.18315887451171875,7.0,5.0,07-30,-0.1957890192667661
07-16,0.7442054748535121,-0.7804679870605398,1.1643791198730398,3.5729904174804688,0.06937408447265625,-2.6572799682617188,-4.3633270263671875,-3.2777481079101562,3.8806915283202983,4.345710754394517,-2.9759597778320312,0.6732215881347585,7.0,5.0,07-31,0.0329825083414681
07-17,0.5908775329589844,-0.6579666137695241,0.8721427917480398,1.9865264892578125,-0.800048828125,-1.7839202880859375,-2.5842819213867188,-3.164398193359375,3.3480453491210938,5.341232299804673,0.8406219482421875,1.3266448974609375,7.0,5.0,08-01,0.4429562886555978
07-18,-0.6314468383789134,-0.6488876342773438,0.21917343139647727,0.6024055480957031,-0.698333740234375,-2.2391891479492188,-0.17790985107421875,-1.4641265869140625,3.2719573974609233,5.130622863769517,0.40581512451171875,0.7920265197753906,6.0,6.0,08-02,0.38017559051513317
07-19,0.2706146240234304,-2.0464935302734375,-1.1004409790039134,1.0116500854492259,-1.4706497192382812,-2.3413925170898438,0.5711669921875,-3.1549911499023438,0.142669677734375,3.0439224243164062,-1.1497955322265625,-1.1088333129882812,5.0,7.0,08-03,-0.6110477447509771
07-20,0.7802925109863281,-0.7441787719726491,-2.100433349609368,0.5610122680664134,-1.8498840332031108,-6.234405517578125,-0.6928863525390625,-2.0969924926757812,-1.2745513916015625,3.0822219848632812,-1.314056396484375,-0.8415298461913991,3.0,9.0,08-04,-1.0604492823282843
07-21,1.8311920166015767,-0.3267097473144531,-3.4611434936523438,1.4944992065429759,1.1931762695312642,-7.535186767578125,-0.8333206176757812,0.8312530517578125,-0.5611801147460938,2.594032287597642,-5.932586669921875,-4.00962829589843,5.0,7.0,08-05,-1.2263002395629858
07-22,2.728759765625,-0.09074020385742188,-3.9223175048828125,-0.49664306640625,1.6371536254882955,-4.403999328613281,0.608612060546875,1.3129959106445312,-0.9416351318359375,2.938629150390611,-4.589546203613281,-1.712757110595696,5.0,7.0,08-06,-0.5776240030924473
07-23,1.8988761901855469,0.30402374267578125,-3.7579421997070312,4.391529083251953,2.5620803833007812,-6.801170349121094,-0.2153472900390625,3.4194564819335938,-4.194572448730469,-0.4307556152343892,-8.299819946289062,1.8810615539550781,6.0,6.0,08-07,-0.7702150344848645
07-24,1.501953125,-0.3267021179199219,-6.429149627685547,4.708824157714851,4.231620788574219,-8.88241577148436,0.8708114624023438,5.18585205078125,-2.720306396484375,-1.6464004516601705,-9.082473754882812,1.6929512023925781,6.0,6.0,08-08,-0.9079529444376622
07-25,1.6778678894042969,-0.580810546875,-4.698574066162109,6.000999450683594,4.092887878417969,-7.600212097167969,2.7153701782226562,10.77789306640625,-4.945991516113281,-3.7809600830078125,-7.6524658203125,2.1681671142578125,6.0,6.0,08-09,-0.15215237935384116
07-26,1.7680702209472656,-2.023792266845703,-8.205368041992188,4.819183349609375,4.8466949462890625,-6.271575927734361,4.204139709472656,9.644371032714844,-3.4241409301757812,-5.829399108886719,-6.512321472167969,2.306770324707024,6.0,6.0,08-10,-0.3897806803385411
07-27,0.19394683837891336,-0.28133010864258523,-6.031883239746094,3.168354034423821,5.3230438232421875,-6.81047821044919,0.5337066650390625,10.012741088867188,-5.354980468749986,-6.106979370117173,-6.154823303222656,0.24750900268554688,6.0,6.0,08-11,-0.9384311040242471
07-28,1.244861602783196,0.0635223388671804,-7.506748199462891,3.835113525390625,6.4145050048828125,-5.212371826171861,-0.5430831909179688,8.992591857910156,-4.822334289550781,-6.8249053955078125,-3.4397430419921875,3.1581993103027344,6.0,6.0,08-12,-0.3866993586222331
07-29,1.289947509765625,-1.5564193725585938,-6.853778839111328,4.52949142456054,6.53472900390625,-5.518974304199219,-0.4119720458984375,7.292320251464844,-4.556015014648423,-7.265205383300781,-4.396293640136719,0.91082763671875,5.0,7.0,08-13,-0.8334452311197911
07-30,0.5818443298339844,-0.1588134765625,-6.6802825927734375,4.796184539794922,6.77984619140625,-6.448089599609361,1.301513671875,10.126136779785156,-5.725921630859361,-6.8249053955078125,-7.865043640136719,2.4849777221679688,6.0,6.0,08-14,-0.6360460917154924
07-31,0.07216644287108664,-2.4321861267089915,-3.8721084594726562,5.191677093505859,5.89654541015625,-2.8709793090820455,2.5655670166015625,10.938499450683594,-6.2871017456054545,-7.121612548828111,-7.0823974609375,2.2176742553710866,6.0,6.0,08-15,-0.23202133178710996
08-01,-1.1095352172851634,-3.2444343566894602,-3.4109230041503906,4.552486419677727,2.0024948120117188,-1.5701980590820455,3.2678070068359375,11.807533264160156,-6.1539306640625,-2.3930206298828125,-5.845634460449219,2.6928863525390554,5.0,7.0,08-16,0.04962762196858369
08-02,-0.4871177673339915,-3.784404754638679,-1.333312988281257,6.299900054931641,1.5585174560546875,-5.073020935058608,3.0337142944335938,10.069435119628906,-5.041099548339844,-10.041099548339858,-7.1886749267578125,1.0395317077636648,5.0,7.0,08-17,-0.9123026529947964
08-03,-0.8840179443359446,-3.453174591064453,-1.5524978637695312,1.4117279052734375,1.0266876220703125,-7.321495056152344,3.2678070068359375,7.452880859375,-3.728515625,-6.671714782714858,-3.8455581665039062,1.5840530395507741,5.0,7.0,08-18,-1.0594847997029646
08-04,-2.5303077697753906,-3.557537078857422,0.8538818359375,1.8761749267578054,1.11456298828125,-5.314613342285156,3.0618057250976562,5.648719787597656,-5.202781677246094,-8.097953796386719,-3.9228439331054688,-1.9008598327636719,5.0,7.0,08-19,-1.497646013895671
08-05,-2.56640625,-4.124755859375,-0.8766937255859375,2.414192199707024,0.6058502197265625,-2.973182678222642,4.044960021972656,0.05667877197265625,-4.4608917236328125,-7.648078918457017,-2.9759521484375,-4.35614013671875,4.0,8.0,08-20,-1.9050350189208967
08-06,-1.9845504760742188,-2.681774139404297,2.4657249450683594,2.5061569213867116,-0.2451019287109375,0.3623504638671875,-0.5711746215820312,-0.41562652587890625,-5.982719421386719,-8.739295959472642,-0.45412445068359375,-5.227363586425774,3.0,9.0,08-21,-1.7472915649414051
08-07,-0.4104270935058665,-2.990325927734375,-0.44290924072265625,0.38167572021485086,-0.7399520874023438,1.133544921875,3.0992584228515625,1.0107192993164062,-5.3074188232421875,-9.246627807617188,-0.8309478759765625,-3.168102264404297,4.0,8.0,08-22,-1.459292729695638
08-08,-1.073455810546868,-3.820720672607422,-0.4703102111816406,0.4000701904296875,-3.1170806884765625,-0.46456146240232954,0.7490615844726562,1.0390548706054688,-7.0955810546875,-6.968460083007827,-3.0339279174804688,-4.8016510009765625,3.0,9.0,08-23,-2.388130187988281
08-09,-1.1907310485839773,-3.866107940673828,-2.0593338012695312,-0.22992324829100852,-3.2373046875,-0.9476928710937358,0.43073272705078125,0.7462539672851562,-5.8115386962890625,-4.7764739990234375,-2.0773773193359375,-6.296604156494141,2.0,10.0,08-24,-2.4430084228515603
08-10,-0.18491363525389204,-4.070278167724602,0.9040870666503906,-0.4966163635253906,-3.2003326416015625,-1.0313262939452983,-1.3202285766601562,1.6908340454101562,-3.814117431640625,-5.216773986816406,-0.6763458251953125,-6.999523162841797,2.0,10.0,08-25,-2.034627914428708
08-11,0.9336624145507884,-3.8751602172851562,-1.4702949523925852,-0.17934417724609375,-2.0164108276367188,-1.8861236572265625,-7.528129577636719,0.4250640869140625,-3.2529373168945312,-4.001129150390625,-2.328582763671875,-5.0392608642578125,2.0,10.0,08-26,-2.518220583597819
08-12,0.0992279052734446,-3.5847625732421875,-1.9314804077148509,-1.0530548095703125,-0.9897003173828125,1.161384582519517,-10.833389282226548,-0.4439697265625,-2.73931884765625,-4.881752014160156,-5.961570739746094,-4.663047790527351,2.0,10.0,08-27,-2.985119501749675
08-13,-0.7171401977539062,-3.0447921752929688,-2.9086380004882884,-0.17934417724609375,-0.5226211547851562,2.8338088989258097,-8.136756896972656,0.17002105712890625,-3.2053909301757812,-3.8671112060546875,-6.058204650878906,-4.118534088134766,2.0,10.0,08-28,-2.4795586268107077
08-14,-0.3202400207519531,-3.00848388671875,-3.6666107177734375,-0.5426101684570312,-0.05084228515625,4.3482818603515625,-8.370849609375,-0.28339385986328125,-3.3100128173828125,-4.230857849121094,-3.2464981079101562,-4.663055419921875,1.0,11.0,08-29,-2.2787644068400064
08-15,0.9652137756347656,-3.389640808105476,-2.940601348876953,-0.4598426818847656,1.3273239135742188,2.341400146484375,-8.44573974609375,-0.34951019287109375,-3.4431686401367188,2.4217300415039205,-2.32861328125,-3.2473068237304688,4.0,8.0,08-30,-1.4623963038126622
08-16,0.5051612854003906,-2.1281585693359304,-1.3835296630859375,-1.3519363403320384,1.8360366821289062,2.9546127319335795,-3.9513015747070312,0.8312301635742188,-1.7406005859375,2.7471923828125,-3.2755050659179688,-1.5741500854492188,5.0,7.0,08-31,-0.5442457199096692
08-17,0.6359481811523366,-3.4486351013183594,-0.8219032287597656,-1.4439010620117259,3.1309356689453125,2.9546127319335795,-2.5280838012695312,-0.14170074462890625,0.27581787109375,3.838409423828125,-5.101646423339844,-0.3267097473144531,5.0,7.0,09-01,-0.24807135264079014
08-18,-0.1488494873046875,-2.9404029846191406,2.264812469482422,-0.698966979980483,3.1309356689453125,2.7501983642577983,-1.96630859375,-3.0605087280273438,-0.39948272705078125,3.838409423828125,-5.101646423339844,-0.9999313354492188,4.0,8.0,09-02,-0.27764511108398676
08-19,-1.4433269500732422,-0.7169418334960938,2.2922134399414062,-0.698966979980483,2.034881591796875,2.6479949951171733,-0.983154296875,-3.0888442993164062,-0.01904296875,3.838409423828125,-3.217498779296875,-0.396015167236321,4.0,8.0,09-03,0.020809014638263196
08-20,-1.6417694091796875,-0.6715545654296875,2.849285125732422,-1.6922340393066477,1.123809814453125,0.39951324462889204,0.9175949096679688,-2.5315322875976562,-0.01904296875,3.9628448486328125,-2.4155426025390625,-0.3960113525390625,5.0,7.0,09-04,-0.009553273518881985
08-21,-2.6475868225097727,-0.812236785888679,2.849285125732422,-0.21612930297852273,3.0477142333984375,0.511024475097642,2.6685562133789062,-2.5315322875976562,1.2364730834960938,2.622741699218764,-2.985626220703125,0.30690765380859375,7.0,5.0,09-05,0.33746592203775866
08-22,-2.6656265258789134,-0.812236785888679,2.3150367736816406,0.18853759765625,2.8349761962890625,1.3658218383789062,7.912025451660156,-2.4748611450195312,1.3411331176757812,0.34459686279298296,0.0579681396484375,-0.6237220764160156,8.0,4.0,09-06,0.8153041203816732
08-23,-2.6656265258789134,-1.016429901123054,-0.2830963134765625,0.7035675048828125,1.8082656860351562,-0.18581390380859375,7.912025451660156,-2.172576904296875,0.7228851318359375,1.426239013671875,3.6909561157226562,-0.6237220764160156,6.0,6.0,09-07,0.776389439900715
08-24,-2.7377891540527415,0.7804679870605469,-1.3515777587890554,-0.17014312744140625,1.5816650390625,-3.093963623046875,7.6685791015625,3.87286376953125,3.0722198486328125,0.41159820556640625,3.207855224609375,-1.188037872314446,7.0,5.0,09-08,1.0044781366984055
08-25,-1.7770938873291087,0.5672073364257741,1.100433349609375,-0.28971099853515625,1.9978790283203125,-2.5643844604492188,7.986938476562486,3.8445205688476562,3.1768417358398438,-0.7274703979492188,3.236846923828125,-1.2276420593261648,7.0,5.0,09-09,1.2770304679870588
08-26,-0.15334701538085938,1.6562576293945455,0.3744239807128906,1.4898872375488281,2.13201904296875,-7.423667907714844,6.245361328125,3.9106369018554688,4.2326202392578125,-3.015197753906264,4.048469543457031,-2.4057731628417898,8.0,4.0,09-10,0.9243075052897142
08-27,0.6675338745117188,0.394775390625,-0.40183258056640625,1.7060203552246094,3.4037933349609375,-6.7825775146484375,1.0673828125,3.0038528442382812,4.9459991455078125,-4.001129150390625,8.058265686035156,-3.0591964721679688,8.0,4.0,09-11,0.7502406438191732
08-28,0.5367469787597727,1.2297134399414134,-1.0502166748046875,1.6462593078613281,1.8683700561523438,-5.927787780761719,-0.3558349609375,4.0523757934570455,3.2148971557617188,-3.4937973022460938,7.314292907714844,-4.306636810302734,7.0,5.0,09-12,0.3940318425496443
08-29,1.1005439758300781,0.8213119506835938,-2.844707489013672,2.0141258239746236,4.6524810791015625,-7.312179565429673,-1.2921524047851562,1.4263763427734375,4.5465087890625,-2.4504547119140625,6.3287353515625,-3.4453086853027344,7.0,5.0,09-13,0.29544003804524976
08-30,2.173999786376946,2.105487823486328,-2.7807998657226562,3.260303497314453,4.671012878417969,-5.295989990234375,-0.23407745361328125,2.7487945556640625,4.565528869628906,-1.8857116699218892,6.608940124511719,-7.26683425903321,7.0,5.0,09-14,0.7225545247395809
08-31,1.7816009521484375,2.45941162109375,-2.6666412353515625,2.152080535888679,4.03277587890625,-4.3204193115234375,-1.0861282348632812,1.804168701171875,5.8115386962890625,-1.2348022460937642,6.666923522949219,-6.227302551269531,7.0,5.0,09-15,0.764433860778808
09-01,2.91821098327636,1.0255165100097656,-1.6757736206054688,1.6830291748046875,4.421257019042969,-5.937095642089844,0.38391876220703125,-0.09445953369140625,5.183769226074219,-0.7083435058594034,5.362525939941406,-5.9797935485839915,7.0,5.0,09-16,0.5485634803771937
09-02,4.483299255371094,0.9483604431152344,-0.2739601135253906,2.6947021484375,3.7043914794921875,-5.3889007568359375,-0.4307098388671875,-0.4345245361328125,4.9745025634765625,-1.014633178710966,5.0823211669921875,-5.059062957763672,6.0,6.0,09-17,0.7738154729207333
09-03,6.075450897216797,0.5672073364257812,0.3607292175292969,3.8167190551757812,3.4084320068359375,-2.3413772583007812,2.3314590454101562,-6.026557922363281,5.621284484863281,0.1340026855468608,11.121200561523438,-2.2473716735839915,9.0,3.0,09-18,1.9017648696899396
09-04,5.755231857299805,1.302318572998054,1.5707550048828196,3.2556991577148438,3.34832763671875,0.5388870239257812,2.8557968139648438,-3.665069580078125,6.990936279296875,-0.13401794433596592,5.4591522216796875,-2.2572708129882812,9.0,3.0,09-19,2.0850621859232574
09-05,4.325435638427734,1.039154052734382,1.4611701965332102,3.3752708435058594,4.7912445068359375,0.009307861328125,2.1348342895507812,-3.6461563110351562,6.829261779785156,1.4932327270507812,5.526771545410156,0.029701232910149145,11.0,1.0,09-20,2.280769030253093
09-06,4.027751922607422,0.18152618408204546,0.36529541015625,0.5334358215332031,4.6571044921875,3.5120697021484233,1.8726654052734375,-4.515190124511719,5.022071838378906,4.470153808593764,4.71514892578125,0.35640716552733664,11.0,1.0,09-21,2.0998700459798183
09-07,3.7075119018554616,-0.44467926025389914,-1.6209793090820312,0.3173027038574219,3.7645416259765625,3.3169708251952983,-1.3108596801757812,-3.7028427124023438,5.307403564453125,5.456085205078125,1.2754135131835938,-0.1188049316406321,7.0,5.0,09-22,1.3289219538370751
09-08,3.445911407470703,-0.29495620727539773,-2.6575050354003906,0.53802490234375,3.2743148803710938,2.7501907348632812,-1.067413330078125,-1.8042068481445455,7.038505554199219,5.599647521972656,1.5556259155273438,-1.9998664855957102,7.0,5.0,09-23,1.3648560841878232
09-09,4.325420379638672,0.4492301940917969,-0.8630142211914062,0.5288162231445312,2.4141082763671875,0.399505615234375,-1.6011276245117188,0.8217926025390625,5.944679260253906,4.680732727050781,0.9662246704101562,-3.3760108947753906,9.0,3.0,09-24,1.224196434020996
09-10,2.4310874938964915,-0.8349456787109375,-1.2237205505371094,0.7127609252929688,2.4788589477539062,-1.0870513916015625,-4.700386047363281,0.51007080078125,5.668846130371094,4.9200286865234375,0.02898406982421875,-1.603851318359368,7.0,5.0,09-25,0.6083901723225923
09-11,2.823486328125,-0.8757743835449219,-4.273902893066406,0.3586730957031179,2.28460693359375,-0.8547821044921875,-3.8483352661132812,-0.349517822265625,6.296607971191406,7.437492370605469,-2.386566162109375,-2.643383026123047,5.0,7.0,09-26,0.3307170867919916
09-12,2.309295654296882,-1.1888656616210938,-5.657466888427734,-0.25751495361327414,1.5677642822265625,0.7618942260742188,-3.1741714477539062,-3.0510635375976562,7.4380035400390625,8.327705383300795,-2.81170654296875,-2.762187957763672,5.0,7.0,09-27,0.1251405080159529
09-13,1.3350601196289134,-0.08167266845703125,-4.598102569580078,-2.1061019897460866,2.2846298217773438,0.2136993408203125,-2.968170166015625,-1.076812744140625,5.488151550292969,8.318115234375,-2.5315017700195312,-2.4948768615722585,5.0,7.0,09-28,0.1485347747802752
09-14,0.8344039916992259,-0.4310951232910156,-4.173469543457031,-3.228118896484368,2.5805892944335938,-1.4401321411132812,-3.4082412719726562,0.103912353515625,5.269371032714844,7.169479370117173,-8.570381164550781,-1.7028541564941406,5.0,7.0,09-29,-0.583044687906901
09-15,0.12178421020507812,0.09075927734375,-7.356079101562507,-2.6670989990234304,2.9089508056640625,-0.02788543701171875,-7.3221435546875,2.84326171875,3.89971923828125,7.4375,-10.193626403808594,-1.1385383605957031,6.0,6.0,09-30,-0.9502830505371094
09-16,-0.7171440124511719,1.2796134948730469,-7.246494293212898,-1.4715042114257812,2.2799835205078125,-3.1125640869140625,-9.185417175292969,2.8243484497070312,4.061393737792969,9.055183410644545,-10.299911499023438,-4.623451232910156,5.0,7.0,10-01,-1.4296636581420892
09-17,0.4239616394042969,2.1372413635253835,-6.1506195068359375,-2.0003204345703125,0.69830322265625,-5.7326812744140625,-6.4232330322265625,3.6933822631835938,3.5858383178710938,9.60079956054689,-6.763542175292969,-5.197666168212891,6.0,6.0,10-02,-1.0107113520304356
09-18,0.7442016601562571,2.763446807861328,-6.383495330810554,-0.7771415710449219,0.16648101806640625,-7.55377197265625,-3.2397079467773438,4.722991943359375,3.5097274780273438,9.610366821289062,-9.410972595214844,-4.722454071044922,6.0,6.0,10-03,-0.8808606465657552
09-19,1.0058021545410156,2.3777427673339844,-7.6483154296875,0.7219505310058594,0.7538299560546875,-6.986991882324233,-3.483154296875,6.2910308837890625,3.8521804809570455,9.409347534179673,-11.411056518554688,-2.8413925170898438,7.0,5.0,10-04,-0.6632521947224946
09-20,-0.10374069213867188,3.829792022705078,-8.543266296386719,-1.1358222961425781,1.6140365600585938,-4.54339599609375,-2.7434768676757812,5.3936767578125,2.2066802978515625,10.692001342773438,-10.8216552734375,-3.910625457763672,5.0,7.0,10-05,-0.672149658203125
09-21,-0.23454666137694602,2.767993927001953,-4.461143493652337,-1.3197669982910156,1.6186676025390625,-4.348297119140625,0.5056304931640625,1.5302581787109375,2.3208084106445312,10.452705383300781,-9.981040954589844,-3.960124969482422,6.0,6.0,10-06,-0.4257380167643217
09-22,-0.6855773925781179,3.162750244140625,0.02281570434571023,-0.9794692993164062,1.3596572875976562,-4.803550720214844,5.0843048095703125,4.505744934082031,1.6930465698242188,6.1165618896484375,-8.976181030273438,-1.9701652526855398,7.0,5.0,10-07,0.3774948120117205
09-23,1.0689582824707031,4.015834808349609,1.4063796997070384,-0.8231048583984375,2.64996337890625,-5.34246826171875,9.176063537597656,7.2072906494140625,0.0380401611328125,5.9729690551757955,-8.898880004882798,-0.3861122131347656,8.0,4.0,10-08,1.3404111862182646
09-24,2.101825714111328,2.908641815185547,0.05477523803711648,-1.5174903869628906,0.34221649169921875,-7.925407409667969,9.840850830078125,7.670127868652344,0.24729156494139204,6.75787353515625,-8.502731323242188,0.05939865112303977,9.0,3.0,10-09,1.0031143824259428
09-25,2.6024818420410156,3.2988929748535156,0.8492851257324219,-1.1956024169921946,0.0370025634765625,-5.388923645019531,10.280921936035156,7.443428039550781,-0.0951080322265625,4.010704040527344,-7.768402099609361,-0.7326240539550781,7.0,5.0,10-10,1.111838022867839
09-26,2.0657310485839844,3.317039489746101,-0.8127899169921875,0.2069396972656179,-0.26361846923828125,-6.801170349121094,13.427032470703125,6.782218933105469,-0.3519287109375,6.738739013671889,-6.280433654785156,-0.7227210998535156,6.0,6.0,10-11,1.4420865376790377
09-27,4.311882019042969,3.725444793701179,0.36529541015625,-1.7014312744140625,0.36534881591796875,-6.791893005371094,16.488845825195312,8.246360778808594,-0.51361083984375,-0.5073165893554688,-6.1741485595703125,0.2277069091796946,7.0,5.0,10-12,1.50354035695394
09-28,4.271297454833984,3.530303955078125,2.6712074279785156,-1.1726150512695312,1.03594970703125,-9.207595825195312,16.73229217529297,1.9742202758789062,0.10462188720704546,-1.0529327392578125,-5.439826965332031,0.11880874633789062,8.0,4.0,10-13,1.1304775873819999
09-29,4.032245635986328,2.309673309326172,3.2739410400390696,-2.1566848754882812,2.5805892944335938,-11.186622619628906,14.8876953125,1.180755615234375,0.18073272705079546,-2.8907699584960938,-5.1306304931640625,1.9998626708984375,8.0,4.0,10-14,0.7567323048909523
09-30,2.7603492736816406,2.6930923461914062,4.538761138916016,-2.0049285888671875,4.4906463623046875,-14.178398132324219,11.685432434082031,-0.3872833251953125,-0.23779296875,-7.5332183837890625,-4.802116394042969,2.6730880737304688,6.0,6.0,10-15,-0.025197347005208332
10-01,4.753078460693359,1.2410430908203125,5.725948333740234,-2.487770080566399,4.120643615722656,-12.087867736816406,11.572441101074219,0.17948150634765625,-0.5041198730468892,-6.9972076416015625,-3.2754898071289062,2.7324867248535227,7.0,5.0,10-16,0.4143889745076497
10-02,4.8838844299316335,1.4452247619628906,5.465156555175774,-2.1693038940429688,3.6059341430664062,-8.09539794921875,8.323333740234375,-0.418548583984375,-0.5326461791992472,-7.112045288085909,-0.5314254760742188,2.7819862365722727,6.0,6.0,10-17,0.6371793746948237
10-03,4.0945777893066335,1.5633964538574219,7.185432434082024,1.3050689697265696,4.938972473144531,-7.640144348144531,4.9619140625,-1.3837356567382812,0.8363647460937358,-7.562088012695327,-2.2950286865234375,1.1484375,8.0,4.0,10-18,0.5960973103841116
10-04,4.862598419189446,2.031505584716804,3.6124000549316335,1.8395462036132812,3.6486663818359375,-6.265045166015625,6.237861633300781,-1.1298446655273438,1.2267303466796875,-9.451431274414077,-2.3723297119140767,1.9834403991699148,8.0,4.0,10-19,0.5186748504638636
10-05,4.713516235351555,1.8872451782226562,4.287780761718743,2.5339317321777344,4.462608337402344,-3.3790054321289062,6.575614929199219,-3.8608016967773438,0.2647705078125284,-10.236335754394531,-1.2515182495117188,1.3234367370605398,8.0,4.0,10-20,0.6101036071777349
10-06,4.47557449340821,0.5064697265625,4.339691162109375,2.5753211975097656,4.045967102050781,-3.425537109375,2.0013046264648438,-1.8078460693359375,0.607170104980483,-9.068557739257812,-2.6195755004882812,0.5587501525878835,8.0,4.0,10-21,0.18239434560140091
10-07,4.444049835205078,0.7791938781738281,6.001766204833984,2.3496437072753906,5.15704345703125,-0.6167144775390625,1.1868057250976562,-1.146636962890625,0.3123168945312642,-10.59323883056642,-4.8802642822265625,-0.0640716552734304,7.0,5.0,10-22,0.2441577911376959
10-08,1.5338058471679688,0.37078857421875,3.9424285888671875,1.5758934020996094,6.036003112792969,1.5449600219726562,-2.8976058959960938,-1.9495468139648438,-0.545196533203125,-11.437126159667983,-0.7608337402343892,-2.17449951171875,6.0,6.0,10-23,-0.39674409230550367
10-09,1.5743904113769531,0.3254241943359446,3.699939727783203,0.5681190490722727,6.392494201660156,0.273956298828125,-3.14105224609375,-2.0914688110351562,0.4838409423828267,-15.210945129394531,1.2276229858398295,-2.065601348876946,8.0,4.0,10-24,-0.663606643676756
10-10,1.1323814392089844,-0.27449798583984375,5.200603485107422,0.3827972412109375,1.741455078125,2.2529830932617188,-1.951904296875,-3.0661239624023438,0.34136199951171875,-14.501853942871094,3.217933654785142,-2.7091178894042898,7.0,5.0,10-25,-0.6861651738484706
10-11,0.45925140380859375,-0.9516792297363281,5.077735900878906,0.4797401428222656,-0.16860198974609375,7.89276123046875,-0.05678558349609375,-2.1408462524414062,-0.2681732177734375,-14.6348876953125,2.8894195556640483,-0.8991165161132812,5.0,7.0,10-26,-0.19343185424804807
10-12,-0.575286865234375,-0.5885581970214844,3.0791015625,0.9625816345214773,-1.1259078979492188,9.130958557128906,-0.40390777587890625,-3.2759170532226562,-0.3162841796875,-15.1708984375,3.913612365722642,-0.3191184997558594,4.0,8.0,10-27,-0.39080206553141456
10-13,-1.1859016418457031,-1.3634376525878906,3.2941551208496165,0.2072601318359375,0.25830841064453125,7.920677185058594,-1.615570068359375,-3.179412841796875,-0.28775787353514204,-15.544235229492202,3.942710876464858,-3.3248329162597656,5.0,7.0,10-28,-0.9065030415852847
10-14,-2.1097373962402344,-1.4770622253417969,1.5738792419433665,0.2072601318359375,1.1888809204101562,4.429649353027344,-2.88958740234375,-2.2142257690429688,-1.0099792480468608,-14.604476928710952,4.4375457763671875,-2.664997100830078,5.0,7.0,10-29,-1.2610708872477208
10-15,-4.007175445556641,-1.945171356201179,2.7496986389160156,0.2072601318359375,1.134246826171875,3.100189208984375,-2.2047348022460938,-1.5518569946289062,-0.2763214111327983,-15.141487121582045,2.0258941650390483,-5.5700035095214915,5.0,7.0,10-30,-1.7899551391601587
10-16,-3.85809326171875,-2.531452178955078,5.229454040527344,-0.6079673767089915,1.2916717529296875,1.7316513061523438,-2.5424880981445312,-1.9303359985351562,1.2005386352539205,-19.38952636718747,3.5220260620117188,-4.9099998474121165,5.0,7.0,10-31,-1.89954344431559
10-17,-4.553810119628913,-2.9041213989257812,6.300045013427734,-0.5296554565429759,-0.49073028564453125,1.7781829833984375,-0.0187530517578125,-2.8198165893554688,1.9818496704101562,-14.02911376953125,2.765228271484375,-3.6800003051757812,4.0,8.0,11-01,-1.350057919820151
10-18,-3.844524383544929,-2.5496253967285085,1.5601615905761719,0.8013839721679688,-1.601806640625,0.34445953369140625,0.6661376953125,-2.5643463134765625,3.0585174560546733,-12.667457580566392,5.025917053222656,-2.2199974060058523,6.0,6.0,11-02,-1.1659317016601556
10-19,-5.732921600341804,-1.549793243408196,-0.9104652404785156,1.57513427734375,-1.8471908569335938,-0.5027313232421875,0.9757156372070312,-3.6903533935546875,6.221824645996108,-11.82357025146483,1.9016952514648438,-1.9499969482421733,4.0,8.0,11-03,-1.4443877538045211
10-20,-5.619976043701172,-1.0816802978515696,3.980419158935547,2.017280578613274,-2.740692138671875,2.1319580078125,1.1258163452148438,-3.756622314453125,5.192787170410156,-10.461906433105469,1.6009063720703125,-1.1299972534179759,6.0,6.0,11-04,-0.7284755706787127
10-21,-4.490562438964844,-4.617496490478516,2.479755401611328,2.1968955993652273,-2.4721832275390625,-2.5229873657226562,4.3813018798828125,-2.7819671630859375,5.0689468383789205,-8.975555419921875,3.3861923217773438,-0.09999847412110086,5.0,7.0,11-05,-0.7039715449015299
10-22,-2.7783660888671875,-3.9403152465820312,2.2692947387695312,1.4231529235839773,-0.7823715209960938,-1.66644287109375,0.6285858154296875,-2.5359420776367188,5.697807312011719,-13.3291015625,3.997459411621108,-0.8899993896484375,5.0,7.0,11-06,-0.992186546325683
10-23,-1.7438278198242188,-4.008495330810547,4.094806671142571,3.0627708435058665,0.597198486328125,2.5136795043945312,0.9757080078125,-1.4572067260742188,7.174652099609375,-4.5741119384765625,2.0084304809570455,-1.4699974060058594,7.0,5.0,11-07,0.5978005727132173
10-24,-0.7047386169433594,-4.167579650878906,4.8497161865234375,5.1951904296875,-2.217529296875,3.7239608764648438,2.889617919921875,-1.7221527099609375,9.985420227050753,1.1411285400390625,-0.5336380004882955,1.1100006103515625,7.0,5.0,11-08,1.6291163762410446
10-25,0.5285835266113281,-4.022132873535156,6.245140075683594,3.4911041259765625,-3.148101806640625,7.140647888183594,2.889617919921875,0.7191619873046875,9.470909118652344,1.9466171264648438,-1.028472900390625,0.6699981689453125,9.0,3.0,11-09,2.075256029764811
10-26,1.5766830444335938,-2.858661651611328,6.629451751708984,2.7219505310058665,-2.6758804321289062,9.812583923339858,1.7637939453125,1.1544418334960938,7.060302734375,2.4836273193359375,0.35898590087892046,-0.34999847412108664,9.0,3.0,11-10,2.3064400355021193
10-27,2.5434494018554688,-1.7133865356445312,2.4660301208496094,1.6165885925292969,-5.018424987792969,10.352561950683594,2.50494384765625,1.5991668701171875,5.583442687988281,6.817970275878892,3.5802459716797017,5.729999542236321,10.0,2.0,11-11,3.0052156448364253
10-28,3.1217117309570312,-0.48174285888671875,1.3954391479492188,-0.3316078186035156,-5.305458068847656,6.516891479492202,1.6793365478515625,2.4886474609375,4.5734710693359375,2.694580078125,3.5414276123047017,9.680000305175781,9.0,3.0,11-12,2.464391390482587
10-29,1.9922828674316406,-0.8362388610839915,4.026165008544922,-0.907329559326179,-6.310066223144531,5.232139587402358,-2.0640106201171875,2.848236083984375,5.002227783203125,3.3274765014648295,1.9502105712890625,7.939998626708984,8.0,4.0,11-13,1.850090980529784
10-30,3.8806800842285156,-0.9952888488769602,4.8542633056640625,-0.7967720031738281,-6.124870300292969,4.971466064453125,-2.3735885620117188,2.0912094116210938,4.811676025390625,-4.085029602050781,3.5608291625976562,7.669998168945305,7.0,5.0,11-14,1.4553810755411771
10-31,3.7406272888183594,-0.8907661437988352,6.670616149902344,-0.5572853088378906,-4.138816833496094,2.3367767333984375,-2.5799789428710938,0.936798095703125,4.373390197753906,-6.539894104003906,3.2018585205078125,6.759998321533203,7.0,5.0,11-15,1.1094436645507806
11-01,3.1126708984375,-1.826995849609382,8.185020446777344,-1.6211776733398438,-4.407325744628906,3.9473953247070312,-4.1092376708984375,1.43829345703125,0.17151641845701704,-8.457748413085938,1.4165725708007812,5.340000152587891,7.0,5.0,11-16,0.26574865976969225
11-02,2.9500389099121094,-2.4132804870605398,2.89154052734375,-0.8474349975585938,-6.4813690185546875,2.3554000854492188,-3.5838394165039062,3.4348983764648438,-1.5149536132812358,-4.1042022705078125,-1.0478744506835938,7.519996643066406,5.0,7.0,11-17,-0.07008997599283677
11-03,3.401805877685554,1.0952911376953125,0.301952362060554,-1.5889549255371165,-6.3841400146484375,4.506011962890611,-3.433746337890625,2.9712295532226562,-2.991798400878892,-7.939910888671875,-1.3001480102539062,10.329998016357422,6.0,6.0,11-18,-0.08603413899739525
11-04,2.1142654418945312,0.8544235229492188,-0.4529571533203125,-0.29937744140625,-5.592491149902344,5.6510772705078125,-3.274261474609375,3.236175537109375,-5.335708618164034,-4.564498901367173,-0.2037506103515625,9.30999755859375,5.0,7.0,11-19,0.12024116516113637
11-05,0.3207664489746094,0.7089767456054688,-0.2196044921875,-0.06448745727540484,-5.189689636230469,1.4616470336914205,-1.2384109497070312,1.69378662109375,-5.2690353393554545,-1.1027679443359375,-2.6681976318359375,9.75,5.0,7.0,11-20,-0.15141805013020715
11-06,-0.7273330688476562,0.32266998291015625,-1.8987007141113281,-1.552112579345696,-4.050849914550781,-0.5958328247070455,-0.11258697509765625,-1.0314483642578125,-5.068954467773423,-1.5534591674804688,-0.989654541015625,10.7699966430664,2.0,10.0,11-21,-0.5406888326009115
11-07,-1.6534500122070312,1.2043685913085938,-1.5235404968261719,-0.6401901245117116,-2.1573867797851562,-1.1358108520507812,-0.2064056396484375,-0.26497650146484375,-4.430549621582031,-3.2987060546875,-2.6002960205078125,5.039997100830078,2.0,10.0,11-22,-0.9722455342610671
11-08,-2.475677490234368,1.5906715393066406,-2.699359893798828,0.7507171630859375,-1.8703536987304688,-0.1582489013672017,-2.5518417358398438,2.1858291625976562,-2.75360107421875,-2.387725830078139,-2.5614776611328125,5.039997100830078,4.0,8.0,11-23,-0.657589276631675
11-09,-2.6789779663085938,0.23178482055664062,-1.0156936645507812,1.3264389038086009,-2.097198486328125,0.8751449584960795,-2.57061767578125,2.1195831298828125,-2.9727401733398438,-3.0206222534179688,-1.7076492309570312,5.039997100830078,5.0,7.0,11-24,-0.5392125447591152
11-10,-1.3553009033203125,-0.6271896362304688,-2.3150367736816406,1.21588134765625,-0.9907302856445312,3.016418457031236,-3.7621002197265625,2.4981002807617188,-2.7821884155273438,1.0644073486328125,-0.48513031005859375,3.1599998474121165,5.0,7.0,11-25,-0.1135724385579433
11-11,-0.9351577758789062,-2.4587326049804688,-4.131389617919922,1.5567054748535227,-0.6018295288085938,0.7541198730468608,-0.703643798828125,3.6525115966796875,-2.6678619384765625,4.554901123046861,-0.8053131103515625,3.4399986267089844,5.0,7.0,11-26,0.1378590265909813
11-12,-0.14004898071289062,-1.5225028991699219,-4.021587371826172,1.948192596435554,0.9675750732421875,1.8619842529296875,3.2367477416992188,2.4507675170898438,-2.7345657348632812,-0.5274200439453125,0.2231597900390625,4.859996795654297,7.0,5.0,11-27,0.5501915613810228
11-13,0.0225830078125,-1.695201873779304,-5.563434600830071,0.6309814453125,-0.12497711181640625,0.8285751342773438,2.7113494873046875,4.087799072265625,-2.6678619384765625,3.8548965454101562,0.8829193115234375,2.6800003051757812,8.0,4.0,11-28,0.47063573201497394
11-14,-0.8945045471191477,-1.1952705383300852,-5.901996612548828,0.7921638488769531,-0.21759796142578125,-1.3220367431640483,0.328369140625,3.1226348876953267,-2.5249481201171733,3.720642089843736,-0.42690277099609375,0.0,4.0,8.0,11-29,-0.37662061055501184
11-15,-0.3704528808593821,-1.5952186584472727,-3.097423553466797,0.08749771118163352,-1.009246826171875,0.36305999755859375,-1.182098388671875,-1.0408935546875,-1.4482955932617188,2.0904693603515625,-1.5233001708984375,0.0,3.0,9.0,11-30,-0.7271585464477557
11-16,-1.490825653076179,-0.8317070007324219,-1.12548828125,-0.14739227294921164,0.31478118896484375,-2.122650146484375,-2.5987701416015625,-2.6305770874023438,-0.8861083984375,-1.3712615966796733,0.6306686401367188,0.0,2.0,10.0,12-01,-1.021610895792642
11-17,-1.5766563415527344,-0.5544548034667969,3.07452392578125,-1.0408859252929759,-0.96759033203125,-8.965385437011719,0.42218780517578125,9.632850646972642,-1.0861892700195312,-1.860328674316392,1.0575714111328125,0.0,4.0,8.0,12-02,-0.15536308288574277
11-18,-0.20331192016601562,-0.21815109252929688,2.6993637084960938,-0.44675445556641336,-1.6296234130859375,-9.71018218994142,-1.031982421875,8.866378784179673,-0.8956451416015625,-0.23014068603515625,-0.3492889404296875,0.0,2.0,10.0,12-03,-0.26244481404622694
11-19,0.07678604125975852,-0.6044540405273438,3.536609649658203,-0.45595550537110086,-1.33795166015625,-7.475837707519531,-1.679351806640625,6.481819152832017,0.8384780883789062,-2.3014373779296733,0.37839508056642046,0.0,5.0,6.0,12-04,-0.21190834045410156
11-20,0.2800865173339844,-0.3953895568847656,2.983020782470703,-0.07367706298828125,-0.6666412353515625,-7.112754821777344,-1.6605758666992188,8.591957092285156,1.400634765625,0.910972595214858,-3.18243408203125,0.0,5.0,6.0,12-05,0.08959992726643999
11-21,-0.4924354553222656,0.6180877685546875,2.9967422485351562,-0.44214630126953836,-1.0092315673828125,-9.2540283203125,-1.6042861938476562,7.6362380981445455,-0.581207275390625,2.0233306884765625,-1.232200622558608,0.0,4.0,7.0,12-06,-0.11176141103108783
11-22,-0.596343994140625,0.5635528564453125,3.262104034423828,-0.12435531616211648,-1.39813232421875,-7.224479675292969,-1.482330322265625,8.696060180664062,-0.6574325561523438,3.2315902709960938,-0.9120178222656392,0.0,4.0,7.0,12-07,0.27985127766926904
11-23,-0.5014610290527344,2.5814437866210938,6.075859069824212,-0.12435531616211648,-0.9536895751953125,-6.107269287109375,-1.9514083862304688,6.5953521728515625,-2.6678695678710938,3.2315902709960938,-1.4262542724609517,0.0,4.0,7.0,12-08,0.3959948221842424
11-24,-0.5782546997070312,1.3225440979003906,5.5634307861328125,0.953369140625,-1.7638626098632812,-8.201995849609375,-8.396751403808594,7.144195556640611,-2.6678695678710938,1.4671630859375,-2.8428421020507812,0.0,5.0,6.0,12-09,-0.6667394638061536
11-25,-2.014881134033203,1.4906959533691406,5.5634307861328125,0.787567138671875,-4.2360382080078125,-7.959922790527344,-6.023124694824219,7.144195556640611,-0.9147033691406392,-0.39316558837889204,0.426910400390625,0.0,5.0,6.0,12-10,-0.5107529958089204
11-26,-0.6957283020019531,1.4906959533691406,3.403942108154297,0.32239532470703125,-5.120269775390625,-4.580467224121094,-3.4149703979492188,9.519309997558594,-0.09529113769532671,1.0260543823242188,2.5226593017578125,0.0,6.0,5.0,12-11,0.36486085255940637
11-27,-0.6957283020019531,1.3543510437011719,2.3058929443359375,1.2205047607421875,-3.2962417602539062,0.06513214111328125,-3.4149703979492188,10.844047546386719,0.5430908203124716,-0.2301483154296733,2.4159317016601562,0.0,7.0,4.0,12-12,0.9259885152180978
11-28,-0.3614234924316406,1.3679847717285156,3.733356475830078,1.0961723327636719,-4.046211242675781,0.06513214111328125,-4.737815856933594,12.2823486328125,1.305366516113267,-1.6301879882812642,3.6578598022460938,0.0,7.0,4.0,12-13,1.0610485076904272
11-29,0.0813140869140625,0.6953697204589844,1.2901954650878906,1.4277572631835938,-4.046211242675781,-0.4189605712890625,-4.925453186035156,12.670280456542969,-0.209625244140625,-1.4767608642577983,3.6578598022460938,0.0,6.0,5.0,12-14,0.7288138071695975
11-30,-0.19878005981445312,0.7953300476074219,-2.3973960876464844,1.4369583129882812,-4.046211242675781,-0.35378265380859375,-8.0120849609375,5.194946289062528,-2.2677078247070312,0.5945358276367188,3.7646026611327983,0.0,5.0,6.0,12-15,-0.45746580759684125
12-01,0.9487113952636719,0.00908660888671875,-4.282375335693359,1.611968994140625,-3.0740127563476562,-0.809967041015625,-6.745513916015625,-0.5109786987304688,-2.829864501953125,-4.008316040039034,5.743911743164048,0.0,4.0,7.0,12-16,-1.1622791290283192
12-02,2.127826690673828,-1.6997604370117188,-4.2960968017578125,0.5849189758300852,-2.7684555053710938,-4.617668151855469,-3.3399276733398438,0.44474029541014204,-1.0576400756835938,-5.0631256103515625,4.5602035522460795,0.0,4.0,7.0,12-17,-1.2604153951009132
12-03,2.9139060974121094,-1.6452255249023438,-4.090213775634766,0.8059883117675852,-2.6573333740234375,-5.8931121826171875,-4.869140625,-0.236572265625,-1.343467712402358,-7.700172424316392,8.858444213867188,0.0,3.0,8.0,12-18,-1.3214082717895501
12-04,2.8190231323242188,-1.93609619140625,-3.509174346923828,1.7455558776855469,-3.4629135131835938,-1.731658935546875,-4.400062561035156,-0.510986328125,-2.38201904296875,-7.5371856689453125,6.558914184570327,0.0,3.0,8.0,12-19,-1.1955502827962228
12-05,2.7286643981933594,-1.7588310241699219,-2.0268096923828125,2.3949356079101562,-1.5648040771484375,0.363067626953125,-0.36585235595703125,-0.43527984619140625,-0.9432830810546733,-7.786468505859389,9.702545166015625,0.0,4.0,7.0,12-20,0.025657018025716145
12-06,2.376300811767578,-1.2316436767578125,-4.264076232910156,1.8837089538574219,0.9073715209960938,2.74639892578125,-2.7113113403320312,-0.463653564453125,2.4487152099609375,-8.774185180664077,6.432792663574219,0.0,6.0,5.0,12-21,-0.05413182576497514
12-07,2.5660285949707102,-0.5681190490722656,-2.315044403076172,2.3488807678222656,1.7869949340820312,3.9660110473632812,-4.4657135009765625,-0.3501281738281392,3.6397323608398438,-10.193405151367188,5.899139404296875,0.0,6.0,5.0,12-22,0.19286473592122336
12-08,4.2646942138671875,-0.24996185302734375,-1.1209182739257812,2.1738662719726562,3.328643798828125,6.358619689941406,-6.435920715332031,-2.2520751953125,3.0013504028320455,-8.371444702148438,6.539512634277344,0.0,6.0,5.0,12-23,0.6030305226643892
12-09,5.457347869873054,-0.2635955810546875,-2.548381805419922,3.0581512451171946,4.805488586425781,5.502128601074219,-8.040206909179688,-3.6903762817382812,2.22003173828125,-11.478363037109375,7.9075775146484375,0.0,6.0,5.0,12-24,0.24415016174316526
12-10,5.014610290527351,0.40901947021484375,-1.313079833984375,3.0581512451171946,4.263832092285156,7.6992645263671875,-7.852569580078125,-3.1036911010742188,2.22003173828125,-11.478363037109375,7.58740234375,0.0,7.0,4.0,12-25,0.5420506795247407
12-11,5.2947044372558665,0.4317588806152344,-1.313079833984375,2.2291259765625,5.259162902832031,8.89093017578125,-4.765937805175781,-3.1036911010742188,4.897422790527344,-14.201705932617188,8.450912475585938,0.0,7.0,4.0,12-26,1.0058002471923835
12-12,3.334045410156257,0.6817207336425781,-1.2444534301757812,0.9349479675292969,4.583259582519531,9.347114562988281,-6.614189147949219,-2.554870605468736,6.507682800292983,-20.204605102539077,6.8888092041015625,0.0,7.0,4.0,12-27,0.13828849792480646
12-13,4.291786193847656,0.340869903564446,-0.10523223876953125,1.4001083374023366,4.277702331542969,10.306015014648438,-2.9740447998046875,-5.658599853515639,9.023101806640625,-13.271560668945298,8.072517395019531,0.0,7.0,4.0,12-28,1.3085552851359037
12-14,4.6035003662109375,-0.6953697204589844,2.6718978881835938,1.1790390014648366,3.9443511962890625,8.108871459960938,-3.2273635864257955,-1.5802154541015625,8.308479309082045,-10.634513854980469,5.7244873046875,0.0,7.0,4.0,12-29,1.5335969924926751
12-15,3.672863006591797,-0.06361007690429688,0.9150352478027415,0.2671165466308594,3.833221435546875,7.894752502441406,-6.3890228271484375,-2.147979736328125,9.347030639648438,-6.923439025878906,5.5692596435546875,0.0,7.0,4.0,12-30,1.3312689463297531
12-16,2.6925315856933594,0.30904388427734375,-0.5673294067382741,0.3039665222167969,4.3610076904296875,8.248542785644531,-4.418846130371094,-2.2236862182617188,8.051223754882798,-7.115234375,5.074424743652344,0.0,7.0,4.0,12-31,1.2263037363688145
12-17,3.0448951721191406,-0.21814346313476562,0.39802932739258523,0.3039665222167969,4.4027099609375,2.969879150390625,-2.0733871459960938,-1.7316360473632812,8.051223754882798,-7.115234375,4.201202392578125,0.0,7.0,4.0,01-01,1.0194587707519525
12-18,2.8551673889160085,-0.12269973754882812,0.39802932739258523,-2.4456024169921804,2.4768218994140625,0.2327423095703125,-0.3189849853515625,-1.7316360473632812,8.136970520019517,-6.2234649658203125,1.7464675903320312,0.0,6.0,5.0,01-02,0.41698424021402936
12-19,2.0690765380859375,0.131805419921875,1.1346321105957031,-0.7645416259765625,1.1620254516601562,-2.1598663330078125,0.7880630493164062,-2.081756591796875,6.1741943359375,-5.533012390136719,2.4353408813476562,0.0,7.0,4.0,01-03,0.2796634038289388
12-20,1.8612632751464844,-0.022716522216796875,0.2470550537109375,-0.31778335571289773,-0.3148193359375,-2.1971206665039062,0.33771514892578125,-1.9492950439452983,5.488166809082031,0.8342742919921875,1.0672760009765625,0.0,6.0,5.0,01-04,0.41950130462646545
12-21,1.1791000366210938,0.31812286376953125,1.4960861206054759,0.050662994384765625,0.1018524169921875,-2.7836456298828125,0.5066070556640767,0.936775207519517,4.363861083984389,3.2124176025390625,0.3686981201171875,0.0,10.0,1.0,01-05,0.8125448226928729
12-22,1.179107666015618,-0.02728271484375,1.49151611328125,0.4191246032714844,-1.2036895751953125,-2.6253662109375,-0.12197113037107954,0.4636688232421733,3.6397323608398438,7.43170166015625,0.737396240234375,0.0,7.0,4.0,01-06,0.9486614863077794
12-23,-0.33431243896484375,0.39993667602540484,1.5189704895019531,0.6494140625,-1.4166412353515625,-9.058509826660156,-3.3399276733398295,1.5045394897460938,1.4482727050781392,6.8179779052734375,1.5621109008789062,0.0,7.0,4.0,01-07,-0.02068074544270478
12-24,-0.4969291687011719,1.0044174194336009,1.1804084777832031,1.3955154418945312,-1.9629440307617188,-9.160903930664062,-5.722904205322251,1.021942138671875,1.4673233032226562,10.605735778808594,4.4922943115234375,0.0,7.0,4.0,01-08,0.31866296132405775
12-26,-0.203277587890625,1.2271041870117188,1.564727783203125,1.1928749084472585,-0.5740585327148438,-9.440200805664062,-2.9740257263183594,2.5264892578125,3.1442642211914062,6.261787414550781,3.580230712890625,0.0,7.0,4.0,01-10,0.5254929860432936
12-27,-0.6234321594238281,1.8815574645996094,1.4457664489746094,1.3816986083984446,-1.1018447875976562,-9.915023803710938,-4.719036102294922,0.45416259765625,3.1919097900390625,9.972862243652344,4.075065612792969,0.0,7.0,4.0,01-11,0.503640492757162
12-28,-0.3975486755371094,2.2587661743164062,4.15428161621093,2.7726097106933594,-0.26389312744140625,-6.935890197753906,-4.662757873535156,1.6559524536132812,3.3920135498046733,11.190704345703125,4.802757263183594,0.0,7.0,4.0,01-12,1.4972496032714826
12-29,-0.510498046875,2.5178184509277344,2.342498779296882,1.7685775756836009,-0.16202545166015625,-6.395904541015625,-6.961315155029297,3.444366455078139,3.906524658203111,11.487968444824219,5.685691833496094,0.0,7.0,4.0,01-13,1.4269752502441417
12-30,-1.5314903259277344,3.1350364685058665,2.1320343017578196,2.4456138610839915,-0.2500152587890625,-7.624786376953125,-7.214599609375,3.6147003173828267,2.582122802734361,11.42083740234375,3.76458740234375,0.0,7.0,4.0,01-14,1.0395034154256202
12-31,0.27503204345703125,3.2895584106445384,0.78692626953125,2.2291336059570312,-2.0277557373046875,-6.526237487792969,-6.049579620361335,1.3058395385742472,2.582122802734361,9.263252258300795,1.7076492309570312,0.0,8.0,3.0,01-15,0.5696617762247745
