,2009,2010,2011,2012,2013,2014,2015,2016,2017,2018,2019,2020,ups,downs,avg
01-02,-8.145017983640262,1.4153289886205498,-2.023852863440126,3.272724151611328,1.1345770977704883,0.9229127084431034,-1.0706228412178491,-5.276728502613524,1.6723471669760075,0.14385899262033455,-0.6831707340655799,-0.6577945343566082,6.0,6.0,-0.7746198627743448
01-03,-7.474542556040382,1.4153289886205498,-2.604799493616754,2.742223478678012,0.9918815743411074,0.6764516553626002,1.5376505592782934,-5.276728502613524,1.1108800853554357,-1.328877794811921,4.456797009967841,0.8031229980426626,8.0,4.0,-0.24588433311967325
01-04,-7.474542556040382,3.4878203686483413,-0.34881034117911125,3.112219258605535,-0.24437312294856867,1.667536825731729,1.5376505592782934,-4.691674045063899,-1.3545851889421878,-2.5938875289983625,2.564850038946816,1.2620537600938917,6.0,6.0,-0.2563118309889922
01-05,-4.515814872676568,2.272360781222959,-0.8534668393269014,5.962180777948725,0.6253218899182542,1.667536825731729,1.202476241113977,-6.974968363748952,1.1066290907093586,-3.860260409559225,2.2430300675075805,1.2620537600938917,8.0,4.0,0.011423245744568988
01-06,-8.689351792428925,4.110233639059478,-0.9783760715502471,5.71746307275516,0.6253218899182542,0.07992428089082106,3.2337928852900335,-5.3165969734791085,1.1376627114909943,-3.6855905857669216,2.2430300675075805,-1.318572033194961,7.0,5.0,-0.23675490912565347
01-07,-8.939396595787148,1.9958848644259533,0.5677028813934653,6.195772636578678,2.620088274859398,0.6333106266097258,1.8583473988031858,-1.8498753411384523,0.3516433537078284,-0.26180014272978835,6.631895218055299,0.31909381631333156,9.0,3.0,0.8435555825909563
01-08,-9.21898078753982,2.1859671230264213,0.25365271427756525,3.9083867612620997,1.7515589398407285,0.2789467259457237,-0.8112994401697821,-1.0372126342190442,1.179488744491186,-0.23640558386125343,4.135445886115131,-2.0017509609013073,7.0,5.0,0.03231645735563734
01-09,-7.04399988459739,2.2968489440938584,-1.499509847038893,5.161939307701931,0.9595925859622779,-1.5868781591097898,0.4648500479183392,-0.9944400540616849,2.6767692180595013,-1.2330899610024129,2.7311916778109935,-1.9816105956176702,6.0,6.0,-0.004028059990078344
01-10,-5.2397498629594015,-4.365485444444504,-0.5234331067423322,2.4793415555396248,1.143573912397678,-1.8273125144406548,0.7805985128385149,-2.7523921123745585,3.840780682530933,0.545841696928305,-0.5879455719533887,-1.5297975743170493,5.0,7.0,-0.6696649855830694
01-11,-8.373634102480107,-2.9372533211167946,1.5364287802272925,2.146894379524188,0.91346316515008,-0.3205764228396425,2.2044547088681044,-1.3847072084836134,5.078591005258887,1.151843550076372,0.186185630303088,-2.425489433869431,7.0,5.0,-0.18531660578179812
01-12,-8.594753443686175,0.4092992673633048,0.681980955176823,1.5880096153239063,1.659580797738537,-0.4655118626083421,0.6847801129502719,-4.401275501445757,4.165016826482891,0.6473888150794791,0.08819594766645304,-2.3443679980924585,8.0,4.0,-0.4901380390042556
01-13,-7.3359135154582145,-2.5012505743991267,2.6536147844149442,2.1248060442689187,2.0488936211837525,-3.3920639847385234,0.36432350292810495,-0.5076703514877825,4.709143302338227,1.9337506343930468,0.2543554423063431,-2.710439335730225,7.0,5.0,-0.19653753583171116
01-14,-2.9133640647338783,-5.511683223837864,1.9459859748353256,1.5432758685710062,2.2051229363575944,-4.203284483663375,-0.44697932236959614,-0.8297377346388302,5.055402174301923,2.9698026137705464,1.4879235898814915,-5.668504914773323,6.0,6.0,-0.3638367155249151
01-15,-1.2221950668905446,-4.2681918789573645,1.8870131582084657,0.8893401995306073,-0.09999956403459823,-4.53324815243433,-2.011360757910503,0.9698291985797994,5.773193266087292,3.9762919095381313,2.6036615503371707,-5.409986922443818,6.0,6.0,-0.12047108836580771
01-16,-1.2710839885191867,-7.931448779242379,0.8698710003179958,1.14529156863647,1.3682069397311356,-2.4399570388453626,-3.8964549362360046,1.2931083385497522,5.930205470923682,2.4504476981299277,1.8568169784400241,-3.232867892043138,7.0,5.0,-0.32148872001309026
01-17,3.202154432112218,-8.845967096893789,0.04806069195478076,1.5983014258022419,-1.2479498347844036,-3.4279469890335625,-2.8952818661056643,0.5320858760507091,5.939427257763916,3.2530617015284125,-2.198950491658373,-4.107930156730836,6.0,6.0,-0.6792445874995291
01-18,-0.5586526156394435,-9.45808286110097,1.2933036944447192,-0.3572222463532977,-1.7827854782634336,-3.7117921206510474,-1.0854622636860098,3.7005931148245645,3.31966765714278,0.26951881224345253,-0.3617298832735488,-2.0012974050785735,4.0,8.0,-0.8944951329492339
01-19,-5.375190379573525,-7.913311261669463,3.7437520529333095,3.4118406926005775,-1.8113161394207014,-2.8862305105881556,-2.36898719652894,4.174074711401519,3.042957073274372,0.24425242763241486,0.666353695669875,-2.2581421212852484,6.0,6.0,-0.6108289129628304
01-20,-5.628158712156632,-5.321992850338172,4.450969873882482,2.135155655265567,-3.5540794435428102,-4.189514895853075,-1.9800688415357839,-0.5159025395698986,1.5513102590170542,1.642385683907119,1.0337670163568755,-5.048400564615957,5.0,7.0,-1.2853774465986028
01-21,-9.351348876953125,0.185780462848212,3.523194299753754,2.784502269757453,-1.5722871031965526,-7.423534372866944,-0.4980189128290584,3.3540136903953055,0.31821768356526803,0.7141676140707116,1.3425340020925474,-3.7497965955822194,7.0,5.0,-0.864381319912054
01-22,-7.732381684767758,-1.1991202422748353,2.160897163021102,1.6369723504974316,-2.7565868459444602,-5.596929508856236,-1.7146666113875058,2.050254374648752,0.33804330989800413,-1.012021592222492,1.7974812946650158,-2.96254380068258,5.0,7.0,-1.2492168161171302
01-23,-7.5130182946473525,-3.15825498310542,2.6752347620889867,3.168164164628983,-3.6424143403730125,-5.456493681490646,-0.15827681476447025,4.20565658114889,0.6934857942400569,-4.706194396394522,4.63507988548425,-1.121257023094114,5.0,7.0,-0.8648573621898642
01-24,-6.525903958749829,-5.8028794654111095,2.958649925070174,2.618835085108284,-4.084431303185284,-2.4715070830847012,-0.1626776790244411,4.796234570804704,-1.8815101253642565,-4.369957350773722,3.6569248908748486,-0.7608497065500109,4.0,8.0,-1.0024226833571122
01-25,-3.1598476673673304,-4.69660896691865,2.9155472338325774,2.0269513993256343,-4.2507083098241205,-3.3686949439010045,1.1069096874667286,1.8951244580374016,-1.0698926827005608,-5.3272601221171225,2.4505169759783367,1.5217055234591965,6.0,6.0,-0.8296881178940761
01-26,0.6901852380768215,-3.9701818713788195,2.236829662535874,3.034601856538735,-1.2072566665508442,-2.3865438833891464,1.3168124742682263,-3.268265761635252,-1.7482517749013038,-6.431266226167681,2.262018435810136,1.125765132685575,6.0,6.0,-0.6954627820089733
01-27,0.33111884609194026,-0.5916133790125613,2.9714415057244437,2.78354222766991,-1.4713334502690887,-0.3560913658271825,0.3791555341598544,-1.9892353340838915,-1.9180801180947977,-4.766496602402527,1.0968064307246828,-0.2854567102021077,5.0,7.0,-0.3180202012934437
01-28,-9.414283271526852,1.2384965329988233,3.769215617244865,2.335988838981217,-0.8064480686997069,0.815527678862084,2.847879356625181,-0.8211079812457547,-1.9280722623334956,-8.404348491918459,1.1062403732189636,-2.5974021056346444,6.0,6.0,-0.9881928152856484
01-29,-5.406853385339536,1.7907944683250525,2.5552076992227954,2.7816990030968562,-1.227119756139705,1.058547567024205,1.0998135542066774,-4.138391241782171,-1.897534782778658,-6.407401238994074,0.22918053950717843,-1.2054130852721596,6.0,6.0,-0.8972892215769614
01-30,-0.5888683541460327,0.38493647236204354,3.702008670067989,1.4973032950953653,-2.7702446785181416,0.5867766850361772,2.3398458983998256,-4.652945227059277,-1.4819950767868124,-3.834001569119682,2.3789587808509918,-0.612945403938279,6.0,6.0,-0.2542642089796527
01-31,-0.3479685920540756,0.38493647236204354,4.639057028215192,1.6469037877078294,0.8913848664535123,1.8303154592089674,1.9674022737481158,-4.652945227059277,0.793567544626018,-3.640019105453459,2.2708285866180735,2.059500048946344,9.0,3.0,0.6535802619432737
02-01,-0.3479685920540756,1.1788130331542868,2.802571801795099,-0.37561199723177374,-1.042338395428285,4.785744860323658,1.9674022737481158,-7.079645942067023,0.994390212922214,-1.1176092289963029,1.9649668723470546,0.8336092410697863,7.0,5.0,0.3803603449652296
02-02,-1.5438882388703206,0.6958283290185324,3.621954729494998,0.15565864559505424,0.12220413212527216,4.785744860323658,3.990903789415495,-1.372850460872627,0.9064021368919335,0.6103843589540935,1.5107954978581133,0.8336092410697863,10.0,2.0,1.1930622517503324
02-03,-2.181720341070395,3.5981751064103062,3.4949251192533755,-1.423169607017466,0.12220413212527216,5.5333017394433,4.168606748268136,-1.591537940671461,0.5517217326046938,3.731083518979529,1.5107954978581133,-0.7305306824723368,8.0,4.0,1.3986545853092556
02-04,-6.079116019941614,6.600876460775684,3.213076180582184,-1.0451354086009441,0.043163711218545626,6.17257214402554,3.561589543307711,-0.7368388928865282,1.5566520503001846,3.731083518979529,0.9323139847880145,-1.9808549506388022,8.0,4.0,1.330781860159125
02-05,-10.472278318699862,5.613980170857218,2.9425036078350018,-1.0451354086009441,0.7317628789204846,5.021702824957259,2.4847655940925804,2.2421023720188993,1.5566520503001846,3.6233746415451824,1.9246617746988142,-4.634206565358266,9.0,3.0,0.8324904685472126
02-06,-14.755056488068211,6.681768284023811,2.9425036078350018,0.5689324549012378,-1.9305835882180038,4.351544689344233,2.2773470867398053,5.6315773411800985,1.8178230668607713,1.8939432750330962,2.4188400640243217,-4.049534892256822,9.0,3.0,0.6540920751166117
02-07,-15.165732313887478,7.132507263954937,3.7562892397813448,0.9227161074386498,-4.912179289560684,2.416339319712176,3.9874695013152293,5.322632575330284,2.305363433655235,1.100523618430064,4.455986408637291,-2.5853447574242496,9.0,3.0,0.7280475922819004
02-08,-17.43941957264893,7.682457221875873,3.7829998400315534,0.3914326471385582,-5.604144691522641,1.6732625487349706,3.6857718368497876,6.253263514890789,2.8155354620183553,4.601279682101994,4.44687201422762,-1.1462540035651079,9.0,3.0,0.9285880416777351
02-09,-20.171412678106815,4.688254972965257,0.6547205499754274,-0.2505399998836631,-5.9615329056014525,2.5536462644867552,4.149760011307392,5.924321013870179,2.6067506748537914,2.810932297868395,4.574445726979311,-1.2818354318642529,8.0,4.0,0.024792541404193697
02-10,-20.30244363395083,2.7664780176288164,-1.1207320128325442,1.0566461747895737,-7.1263869480111435,3.1284576784973925,3.488519518106431,3.7208878533721754,2.207953211722136,1.4184391547222424,4.9123728027214915,-1.6651212400643358,8.0,4.0,-0.626244118608216
02-11,-15.024634042156867,3.011270495705497,-2.1143779747365072,0.7843150291587317,-5.312876655207177,1.7823045481664146,3.611100602895205,6.699418521806409,1.945336102999277,1.622645644324293,6.030151717051876,-5.79509022270593,8.0,4.0,-0.23003635272489822
02-12,-15.44715039843786,2.801928996012209,-2.241472840678695,1.2147452866145165,-4.719872411700198,2.6262041481477745,1.1202102135019727,4.076088538293971,1.744640294491645,2.962707095746174,4.193375264663303,-11.611788448290527,8.0,4.0,-1.1066986884696428
02-13,-13.227015643479675,1.0950085698619856,-2.9552076855301217,0.6436089775013171,-4.8462528561354405,3.054941752242718,-0.4667569533934012,2.1530074749407175,2.4199013252150054,2.5270154441848613,3.211628054050636,-10.422589722493965,7.0,5.0,-1.4010592719196133
02-14,-7.5046953102960225,-0.5895787545981946,-1.2123956935763767,2.603836598633127,-3.2229290211372636,2.190240190225624,-0.07638135357443393,3.494484398513758,0.858952932778083,-0.87590161964684,4.3772810135198705,-10.138422916187018,5.0,7.0,-0.8412924612788072
02-15,-9.351146577980609,0.19499958530509706,0.0339429511531249,3.217473209889775,-3.512546857942785,3.3863244340982623,-0.004244303672151722,4.6251026346281705,0.9079374230254575,-3.335111987350025,2.728000007617832,-9.386750240092697,7.0,5.0,-0.8746683101100458
02-16,-10.688994395551285,1.5389594144470262,-1.094140765723741,-0.16438523383989725,-0.7797438164286125,3.665654403439573,-0.19967763231933072,3.0146027861951517,1.4715889814968903,-3.3084321770996703,3.066769072092304,-15.194522685205234,5.0,7.0,-1.5560268373747357
02-17,-14.44740352968693,1.2619762301698196,-1.6361717725932658,-0.9534276674871731,-0.7797438164286125,5.6768833133862975,0.7782881230450398,4.599318886160518,0.8906943177371945,-2.6325142477786407,2.893630283510669,-14.246055832999144,6.0,6.0,-1.5495438094136855
02-18,-14.395976595167548,1.3187131148191669,-2.420176345548732,-0.7890424336472603,-0.6676130639956861,5.313103293625069,-0.7248282833185327,4.671296993974075,0.2807637844485183,-3.861039413159418,3.573961247737531,-13.313080046992013,5.0,7.0,-1.751159812268736
02-19,-8.117723876741605,0.7308533436755521,1.0794279679327592,0.744660494426903,-0.08850975677993585,6.55877152839115,-0.06798829973620332,3.7249617531769315,-0.6055897276959018,-4.671203198076106,2.361707290771598,-14.493722906294312,6.0,6.0,-1.070362948912431
02-20,-5.659760958387144,1.3822671605772312,2.9864055816495285,0.572971653293919,3.4576469473348874,5.40743392261238,-0.55239358884468,2.627605519217425,-0.9210292611133662,-2.3412551788167937,0.9119658114947927,-10.559467971983812,7.0,5.0,-0.22396753024713614
02-21,-0.5174639295514738,1.3352410660074707,1.7048686253057475,-0.38201098409608647,3.9645590536554214,4.846145381532048,-0.48865861016770573,3.56929384060665,-1.7786591956898905,-0.477972584701906,0.37992382337900393,-10.142649750366294,6.0,6.0,0.1677180613260821
02-22,-9.129214969311644,1.927636598285803,0.5255931239904641,-1.5374398112439949,2.310808190877598,5.5226968950878925,-0.441711003780783,5.629814385142163,-2.0142873624581843,-0.730311243089219,-0.8050650068564482,-6.771024102060324,5.0,7.0,-0.4593753587847231
02-23,-5.642419589079826,3.3044822963529277,2.5666990119320188,-1.8221908789348835,3.8021365910051177,5.805933422915997,-1.9485296584365237,8.22288843392824,3.959564995255821,-2.1213723809940115,-1.6010824009093292,-12.29419866497118,6.0,6.0,0.18599259817203087
02-24,-10.101693363512977,1.3189286938338305,2.3850153670990712,-1.2368802644295134,3.816341715774074,5.772980771196103,-1.9286284884470741,5.743278207432807,3.294958543600515,-2.182231098492886,-2.2578327017642907,-13.622474234153891,6.0,6.0,-0.7498530709886859
02-25,2.171915308349263,4.1444259937660535,0.7041484668860027,-2.63942496863568,5.125960007172785,4.757862523264307,-3.513857804866982,5.152519266682984,4.099976418365324,-1.8457514950208285,-2.45371021508659,-12.544906202546343,7.0,5.0,0.2632631081941912
02-26,4.466725372744388,3.390894539311843,-0.3747804545403183,0.0,3.701557663449473,2.2176040432586026,-4.733992365590786,4.028153271763094,0.46633960508153505,0.10199978327721042,-0.15273869207916602,-6.971948173086254,7.0,5.0,0.5116512161324686
02-27,5.621392859456967,2.072212996883049,-2.2325047695852005,-0.18325515197974745,3.2197755837221598,1.7849014515617994,-4.529715134024988,5.6218225152774375,-0.3526306428301465,0.9874648247633544,-0.9176757796345345,-6.826848544758117,6.0,6.0,0.3554116840710027
02-28,8.720750365212929,1.4378256189736605,-1.0057111467633766,0.17187242347083453,4.847371681210784,-0.30931524242409003,-5.55999852548512,6.199596400521328,0.24347487266943285,3.127420748653497,-0.5748669533120535,-7.713721391541135,7.0,5.0,0.7987249042655575
02-29,0.0,0.0,0.0,3.244616305596468,0.0,0.0,0.0,8.075424420935082,0.0,0.0,0.0,-8.600594238324138,2.0,1.0,0.226620540683951
03-01,12.521838141973612,2.774318099120322,0.11384161918270054,1.0888093934069425,4.741383911315279,0.07606569147938137,-3.4828037032158177,4.926480941336468,-1.5334685020310928,3.416203297895955,-1.2844698478904608,-17.14126337170182,8.0,4.0,0.5180779725726223
03-02,8.969694195371686,2.9306860788566493,-1.3940081128236066,1.259607495016828,4.190225943714348,-1.10307006109935,-4.295552248179102,5.183276245178568,1.5955436827198677,4.16376988648026,-0.0269458176623393,-11.805918705761858,7.0,5.0,0.805609048484329
03-03,9.532481847471628,2.629951700172357,-4.934519862431822,2.1989726215659733,4.668494402803935,-1.2745378272184078,-1.9384524598331017,5.918767022294792,1.9031173966839863,1.9819182555214336,-1.5317289391879243,-26.65615349283168,7.0,5.0,-0.625140777915736
03-04,8.978513496638755,4.537179983664519,-3.566420920814072,2.157194207852265,4.041052081064448,-2.1586015424644938,-3.5553999939974794,3.864555597968924,2.7297231279255865,1.3300635800687082,-1.2087629244843172,-30.67053436879598,7.0,5.0,-1.126786472947762
03-05,18.60532101728019,3.9605471167198725,-2.3386343294041176,2.1049189746693178,3.458543353451287,-0.7981342284703742,-2.530045973713606,3.039112508414076,2.3354620094522907,1.888104205327818,0.1802586333873444,-40.77071325214982,8.0,4.0,-0.9054383304196435
03-06,15.918837767877825,3.5660124953039656,-0.41302543119732477,4.287524308296357,3.8475178226821645,-2.551750171188348,-1.0146323973382305,5.511881805477349,3.148627603396744,-1.6339855627759945,0.3155982590671422,-39.125067876711846,7.0,5.0,-0.6785384480925162
03-07,15.690201243532394,1.8381196570520089,-0.06859999911022381,3.59842142280046,3.9287947677100594,-2.51588623179692,-1.1539774880367943,5.078052067779555,4.537274727075881,-1.0276663896585483,0.884319941916914,-33.584758787876254,7.0,5.0,-0.23297542238428873
03-08,15.954412300758136,2.125367413567115,-0.30488288155414744,1.27469402594252,2.602651097023762,-2.633736059232498,-2.705927031319142,6.777479378073657,-2.249232770497553,-1.2724919846161282,1.0738155970793082,-27.233551160393475,6.0,6.0,-0.5492835062640369
03-09,15.01008130767518,3.8943233369394896,0.045400485634496474,1.4552822981350855,2.2906147460224724,-2.85508750218706,-1.4101090377916496,6.882736535549062,1.2661867576251498,-3.2470422788315667,-0.4331378435800499,-22.190168302220485,7.0,5.0,0.05909004191417674
03-10,11.648652360245988,3.557913974624428,2.0729518082909775,1.115363350929945,-0.3569127519314875,-2.6547806807084084,-0.5476330580196553,6.309170526975579,2.0719459588579134,-2.202722425144544,1.1896274371018722,-40.66207359577048,7.0,5.0,-1.5382080912123224
03-11,10.057393522354241,3.2706699979629295,0.8835509629388415,-0.13984214145682206,-1.3311741872060492,-2.225551288001741,0.1374840613023264,4.397300038869336,1.505994911102368,-4.626719646784578,-4.320930269809824,-18.184031217565778,6.0,6.0,-0.881321271357896
03-12,6.887204018340731,1.9410005152727017,0.49841690925514365,0.5979766992673582,-3.921129303109025,-2.2502264253403825,-3.254513178041584,4.6431160270913105,1.8543322409438998,-6.375589617751876,-3.820291481929737,-4.888580662889444,6.0,6.0,-0.6740236882409084
03-13,10.520609966765159,1.4366535794313267,0.9472304515047794,1.152925334130829,-5.5804322299246225,-2.3633212086826285,-2.449877184105316,4.031520570354929,1.069467772001438,-3.698739728724006,-2.740864898462729,-9.893832047035723,6.0,6.0,-0.6307216352288801
03-14,10.683303490499597,0.3091738600842705,1.7889155409670652,2.1516582458305233,-6.11011851061737,-2.190010025074707,-3.425332593371941,3.8641571385015157,2.013096074007038,-2.79688781252156,0.36337347313348406,3.838526368766891,8.0,4.0,0.8741546041837339
03-15,14.90571065417083,2.391405839795164,2.8865454027091966,1.2027847692876859,-5.416301200588107,-2.9147644267716775,-3.967464373348157,4.241315653501903,0.885967699686335,-2.1177687781543124,0.04542428318138538,8.177366079097338,8.0,4.0,1.6933518002139654
03-16,10.489132310807857,1.7031671383796472,5.596644110585547,1.2555417353161924,-5.267094278579944,-3.392606962477693,-3.1933956327534796,3.5814408025706306,2.0327067833232277,-2.6985939989642946,-0.7903298534848677,3.0352962718290444,7.0,5.0,1.0293257022126558
03-17,7.865467304567132,0.22710298099665027,9.142079240244964,0.33762365366701963,-5.756264458080245,-2.699024800150725,-1.2339030450761723,2.234137592412659,1.210171901221099,-1.1705812847160961,0.6892268743712041,3.8407768769669532,8.0,4.0,1.2239010697020367
03-18,5.176151133957464,1.9833537130372676,8.829355982235034,1.2854042486693156,-5.345679805584325,-2.3260621543633184,-1.8178621200516418,2.680965110895191,0.18908665461822913,-2.95535142668358,1.7010771255589303,12.775120215440964,8.0,4.0,1.8479632231441274
03-19,11.071706641574249,1.69568916704573,7.682688130028473,1.398751487054942,-5.001484251578937,0.7526422559666529,-0.2793317821967123,2.68990357031796,-0.3230982866525041,-1.451615384168391,2.906671037771314,4.168233641877039,8.0,4.0,2.1092296855866515
03-20,12.059797286587637,0.8629820870372161,6.984562115139657,3.8390663270721737,-5.475347394535301,1.277496240417106,-1.560700708186712,2.3320463933437665,-0.4663093407224516,-5.163491804532168,2.993695932158214,0.21279029946686873,8.0,4.0,1.491382286103834
03-21,6.25792030482009,-0.1223269559451907,6.876972681873402,1.6095327243054343,-3.4433333509620114,1.084862338660473,-0.3946082362959609,3.7308825019287646,0.5709920666786417,-3.4216705687278184,1.693142267763911,9.250218357876191,8.0,4.0,1.974382010997994
03-22,12.009510888670258,1.5338295384457024,8.70556711768048,2.8428106312997024,-2.4487642933302123,2.053121720445132,-0.8776556638106687,2.0946662379679992,0.4963220957598639,-0.4693534062364489,6.886017859627945,10.194479146180724,9.0,3.0,3.585045989391707
03-23,16.965891248428985,1.3000525119428756,8.375713360277594,2.121654235809051,-0.8815537659615416,2.107710648141004,-1.2747074073646896,2.0551026736567066,0.3619021461123377,1.1824149722614115,6.5631036413745045,9.859505501786595,10.0,2.0,4.061399147205402
03-24,17.348091768155694,3.210056535394825,8.017843650359287,0.28218712605062657,0.00746415779799368,2.3007624996730285,-0.5664098945441007,2.792652419412467,1.152380080450149,-1.028973174679941,6.904349949048901,5.286845604141415,10.0,2.0,3.808937560105028
03-25,13.831771669330287,4.091911981780826,7.229541495642977,-1.586462438472165,-1.6397204373838836,0.10359569039397451,1.0849209643555073,2.3911494123773447,1.123809814453125,-0.23283078758281348,6.871956844809965,5.906243791537025,9.0,3.0,3.2646573334368476
03-26,9.55607529321252,2.045955990890403,7.291781082520924,0.9139030481368122,-1.9703281841157945,1.0857123833198052,2.135940267439394,2.3911494123773447,1.377407613261942,-2.3219681229541203,5.279721009584961,1.4600881053136234,10.0,2.0,2.437119824915651
03-27,14.018691838677878,2.505552095589454,6.963674885664322,-1.5808995902064142,-0.5804781815985782,3.1478376949552196,1.4018476542235405,1.0939328069756986,2.102784811656464,-2.098351463324963,3.6751811280234845,6.685691714488932,9.0,3.0,3.1112887829270868
03-28,13.855141146920824,3.1944621804748823,6.251310376969261,-2.921058256464978,0.5346808266170776,2.4937425632020607,0.7252462540290833,2.1729413085827036,0.7751202266072229,0.35338835401551844,2.7676242497347143,5.675703564382243,11.0,1.0,2.9898585662558843
03-29,13.995801608330508,4.251598945792752,4.581847473829922,-1.2164179339351404,0.3713055000760333,1.139555265837748,1.6860781757346768,0.9939117185873788,0.27343100339705784,-2.1229865672946397,1.7667526130011795,7.9592934404123845,10.0,2.0,2.806680936980822
03-30,18.01201260605992,4.122508873642651,-2.31441778957341,-1.3327714449212689,0.3713055000760333,-1.8424930913336812,2.1830041424121607,0.9208437161730065,0.7825704514104227,0.933379076189769,0.5918192307618246,11.577647640211032,9.0,3.0,2.833784075925705
03-31,18.236205068585505,5.668542047283558,-3.186303834798259,-3.321344784472834,2.507083012092266,-3.0028746511081508,1.7640154694707908,2.398674089680627,0.9240012729565353,0.933379076189769,0.2619589863404388,10.76003607837069,9.0,3.0,2.828614319215911
04-01,10.55970934652673,4.330315125485481,-3.0670878227102945,-0.8778255272618283,1.533942266341743,-4.28510921492979,1.5353570349702437,0.9804803586342963,0.9240012729565353,1.6175924795414025,1.1937692661188946,13.902361675394962,9.0,3.0,2.3622921884223644
04-02,5.378036596544834,3.7260881710362903,-4.573535682490187,-2.0476379643513116,-1.711807637102725,-4.6305605389404505,1.6236205271429247,1.7858713609181847,-0.01904080803901272,1.5818162397904698,1.9146589967899939,8.75904125900181,7.0,5.0,0.9822125433584018
04-03,-0.2700331914725021,3.7260881710362903,-4.324791969280488,1.2590311676902313,1.3600905162006622,-4.688907014866752,1.342017421754156,2.0260236237391607,-0.6320663413932728,1.422560960584282,3.226351052021967,9.098104369733827,8.0,4.0,1.1287057304789634
04-04,0.38253414536139824,4.029836587852225,-4.144626308309402,4.4946088402916455,-1.1329305658222009,-4.895770321594364,1.342017421754156,2.7394851101136397,0.5882937187329833,2.0251157396943467,2.8716228733626847,2.0908748116256173,9.0,3.0,0.8659218377552275
04-05,3.9904578794883143,3.2388741679481803,-5.427288672281647,2.213872527826719,0.5060409364287011,-2.4081093588912856,1.1157657240559538,3.7321811618351783,-0.24823576621479,1.3428785578900986,2.905407429960516,2.553435583238023,9.0,3.0,1.1262733476069968
04-06,2.252153758323209,3.7037016910955436,-3.5108485010623323,4.285570395439254,0.7175203867342357,-0.7514493579890494,1.0546751613835272,3.8352647822051638,-0.25713966006324407,3.3571896543821547,3.378378334839559,7.158933104655915,9.0,3.0,2.101995812495328
04-07,0.9029854180343786,4.203957619533696,-3.145802366734202,4.285570395439254,6.541057481320031,3.203649440769913,1.221011449721713,4.704057119693546,-1.0000029064359983,3.162825120449919,2.5470635312339835,0.010979293521404473,10.0,2.0,2.2197792997123034
04-08,1.764437370607094,3.631717458044572,-2.3620323842161146,6.683168316831684,7.16152246056303,2.0555578631017797,0.40519628125070767,3.6529662056668384,-0.7523818243117559,0.027361163319841564,4.555313746595385,-6.067488022128278,9.0,3.0,1.7296115529437321
04-09,-2.019054792827661,2.567736719316978,-1.9325779080452503,6.950341447225854,7.593179326748864,0.3412090888484098,-0.856891560824528,3.7821998804090597,0.5452682298377949,-0.6797077662356807,2.5247348502275653,-7.882756187606701,7.0,5.0,0.9111401105895585
04-10,-2.3820308381221698,2.269823411277865,-0.4231029426753727,8.830814384410735,7.002761861837779,3.2297484662896196,-1.3692606833430372,-1.287863360632658,0.14159101606766109,-1.3592977537360729,2.3125328661686164,-4.007994473834786,6.0,6.0,1.079810162809015
04-11,-2.3820308381221698,1.9359439293260676,-0.3169939282466231,7.31372459262025,5.083456569441438,4.319916248449149,-1.4090117170518868,1.3340419680723303,1.8053925924167873,-3.318523444862529,1.8175606633020758,-4.007994473834786,7.0,5.0,1.0146235134591757
04-12,-3.8665138680704594,3.3394098014869344,-0.3532075671377174,7.046171130757292,6.021517440202817,3.9429472097987075,-1.64246120722501,-0.30195734626345067,5.197619700498404,-2.002228139694316,0.8916331626967083,-3.4909454035551195,6.0,6.0,1.2318320761245658
04-13,0.7259085415823145,1.9654968405762954,1.8090928546909288,8.111737637297246,9.339214846976926,3.058967207997659,-2.8122335981169324,-0.5988553825629059,5.485160213482165,-1.9651490550208348,0.14574603037969452,-1.0135890263735843,8.0,4.0,2.0209580925757478
04-14,-0.22712307878910665,-0.797568241095951,1.1858981073150827,6.978973572866688,10.530257188124443,2.2903918886938457,-3.219379856851365,-1.3452555989014303,4.6071721692844365,-3.605857887176768,-0.8136436002236846,3.3437490463256836,6.0,6.0,1.5773011424643226
04-15,-2.7752009751650175,0.27173171765912596,1.0149540210781591,7.9072415874361095,9.30793549721147,1.535489853586712,-2.94890828393433,-2.0886809938672597,4.6071721692844365,-3.779015608310685,1.1374215819198037,3.289971119376204,8.0,4.0,1.4566759738562276
04-16,-4.510430024123707,1.0869486938480382,2.3611101714747207,8.290745629958638,8.481839789361898,0.7098420296308438,-2.0614852900038754,-2.4426959805399586,5.301465969397552,-3.519491876818314,-1.101529253525867,7.2799290023865995,7.0,5.0,1.6563540717538807
04-17,-2.651863127759576,-0.4004559305340788,2.9211812383996976,6.556444000322761,10.017674020869304,-3.016223398386629,-1.9984707557273,-2.6425498320849843,4.051344771127881,-6.8001556142884265,0.09361754072473405,2.6804336341724024,6.0,6.0,0.7342480455696488
04-18,2.1078883220545594,1.4598553435053996,3.4646655146686336,8.006352411737549,3.1336109830496075,-1.5081077587973133,-2.480080367397743,-4.855512854413679,4.312078622493512,-5.86420162723313,-3.801852726456311,4.985397284339682,7.0,5.0,0.7466744289625639
04-19,1.9523283206507438,0.24158844920340064,1.0517347207651908,5.774794570780919,2.486226367923671,-1.5081077587973133,-2.7622292763245793,-4.773467538619696,4.083311565596066,-3.7177186067661636,-1.532862756001289,-0.29725491316030633,6.0,6.0,0.08319526210422039
04-20,1.8855107279044034,1.2205318912550098,-2.6492969400991457,5.50424609711532,1.1363594567240451,-2.024498499190684,-1.3938942691984681,-5.999999721300656,2.591569854165377,-2.9893138676353943,-1.532862756001289,-3.52272553877397,5.0,7.0,-0.6478644637529544
04-21,6.150538946992608,-2.9501922112652936,-4.701847581256556,5.765463349582448,3.3203076627425228,-0.6967930430301308,-0.8976599935202867,-1.5379002253056877,2.98534303840788,-2.9987685142369163,-0.4110960249718016,-1.3589776347946074,4.0,8.0,0.22236814744534827
04-22,3.6923718807224253,-4.120347901288978,-3.363204929809401,5.7742490561826765,5.732857760388913,-0.2399311971859456,-2.175282979329856,-4.236123269773532,1.0897388692929575,-3.734754385611658,0.3315475633381479,-2.0392014503369786,5.0,7.0,-0.2740067486176024
04-23,5.399519977701504,-5.632125913164013,-3.363204929809401,4.409951843913587,4.586183254483854,-0.42461852246961473,-1.7248375493883334,-3.692791483068912,1.7107992209116791,-2.3308230187720973,-1.1436940584606328,-1.936929653376342,4.0,8.0,-0.3452142359582268
04-24,1.0232989714353677,-4.816955596856807,-3.535020519639207,4.583724467667747,5.377891546479554,2.1284144457134366,-0.5674372841788453,-3.702336134900172,2.306435852634542,0.4142759111185945,-1.9045957737313264,-4.4369309421253575,6.0,6.0,-0.2607695880318728
04-25,4.136733100924432,-9.220079105333012,-3.363204929809401,2.1969804904258528,5.304883176432576,2.8982638655623765,0.5404174428056674,-3.960854041388484,-2.2041864640060815,-1.1248565286927106,-1.3243309776244345,-8.108104392795584,5.0,7.0,-1.1856948636249003
04-26,-0.6860261609900127,-10.863772073545974,-2.946979050591713,0.6796311158302648,6.581156860922638,3.6580477364991455,1.8051653961525262,-5.686895450029172,-2.4385766527790698,-0.6071871816483151,-3.3239791502465628,-6.241699149570749,4.0,8.0,-1.6725928133330827
04-27,1.5429392275749745,-2.787304886952153,-1.9830025267278193,0.26429938912994844,5.233979082849795,2.4505795743366883,3.580002985806241,-3.917956750954398,-3.189617515137646,-0.8594097549913335,-2.710054427521386,-4.370511520277492,5.0,7.0,-0.5621714269053816
04-28,0.6890198225824116,-5.253647219233287,-4.611625318806353,0.66075567444307,4.482844320795027,2.6192625492717334,2.8900749004970425,-4.9804492322806215,-1.8451533536618794,1.0929526062452848,-3.747345375493908,-1.1833661982883066,6.0,6.0,-0.7655564019941488
04-29,-0.9842076417757626,-5.3222922924390925,-5.2005783045584,0.46344980384597195,4.612989285089174,3.21448450147507,1.0334568432666482,-2.7648494426820243,-1.4928146806955094,0.21675935878862862,-4.338919136913185,-9.414584341640154,5.0,7.0,-1.6647588373532196
04-30,-5.1563616110862815,-4.036078328752012,-4.600510598873116,-0.04752868257715849,3.961886990550825,2.078592373012974,1.703636398346214,-3.5561345745103083,-1.861157655908624,-5.426662283860713,-5.617977528089887,-7.822891897436084,3.0,9.0,-2.531765616598681
05-01,-5.08474838660798,-5.381430252061031,-4.926984967175558,-3.8013945544384,7.403865053957009,1.9943010875225395,0.37710331310698775,-3.48869669227519,-2.184462544709256,-3.836065748679434,-3.50484380394123,-4.463440445845018,3.0,9.0,-2.24139982842888
05-02,-11.005014747006069,-6.738544597570543,-6.397644347935555,-4.903114231030893,5.1064136453185345,0.7020781949293249,0.16415045572603243,-4.25492131712953,-1.3798831426632436,-2.6011844481495885,-4.305877782473002,-3.074553695352219,3.0,9.0,-3.2240080011113963
05-03,-9.643952292627686,-9.509913642141196,-3.926873865588186,-5.356262356994779,2.677831155312764,0.3408619135465693,1.6477291180840188,-1.2389018976707493,-1.6665051904883939,-1.4106271347561896,-5.083075476070392,-1.0003496546938038,3.0,9.0,-2.8475032770073354
05-04,-10.189571467583617,-3.5541415252626543,-3.397393368692811,-3.8525780530175058,3.0101659596868395,-0.6473793737993347,2.8787217336197357,-1.4764920756180433,-4.180883477782861,-2.801933841428895,-3.8860089148185137,0.10353927725090405,3.0,9.0,-2.3328295939538966
05-05,-3.8339350193002373,-2.8036020787572347,-1.3021957890333868,-5.06142656106035,2.436521035400292,-0.2712933955983986,4.048842134531077,-2.0584664479463597,-4.816073227140492,-2.6183566033552235,-2.9844162249630926,3.8976612852784744,3.0,9.0,-1.2805617409954106
05-06,-2.8437090508348297,-0.6059654846953352,-1.4705854643764324,-8.143655210946008,4.457316793179618,0.2907529509031088,3.452324993158138,-1.804679180336699,-2.7967357360235363,-1.7239683547837128,-4.044022911529123,4.741469760851794,4.0,8.0,-0.8742880746194183
05-07,3.8901108961838946,0.8856427741123123,-2.469686689516023,-9.57360004204142,2.4449232125182307,-1.5585891020013027,1.7559905395904702,-0.986937736424089,-2.884525033810691,-1.20057377119491,-6.237239051368982,5.8651915602791584,5.0,7.0,-0.839107703639446
05-08,1.7142830314217188,-4.2417583928673235,-2.6425261059898166,-7.002211328708007,2.390841193776058,0.45138682249509415,-0.05242230368063893,-1.7039029365369145,-1.592801363040292,-1.5709811911415053,-4.605501507400373,4.1775128618368855,4.0,8.0,-1.2231734349862597
05-09,4.307690295544299,-8.98309753287121,-3.668365264723951,-6.729800686491798,2.304033521103762,0.27894865185651285,0.6988996181870002,-1.1580862136674281,-1.343732691016972,-4.093744519432687,-4.056041445728008,5.8026875911896925,5.0,7.0,-1.3867173896708989
05-10,4.307690295544299,-7.018659766419298,-5.908140896405398,-4.890873170553762,2.1707382435415035,-1.1360782644247487,0.6988996181870002,-2.161047679378764,-1.077789652080995,-3.3102926260203875,-3.466071525149524,5.8026875911896925,4.0,8.0,-1.3324114859975318
05-11,1.1128727625582804,-7.963597632196951,-4.724773122512395,-4.355157992797214,2.75467867586449,-1.1360782644247487,0.8288591946503652,0.3155196367343576,-0.48625082400884845,2.219841105656827,-2.553462903160354,4.911135081287676,6.0,6.0,-0.7563678568623763
05-12,2.1062120074153685,-8.711022279989713,-2.7252916563796954,-2.301586929152171,2.75467867586449,-1.5584402666025636,2.050698938948587,0.7662498461900947,-0.1683189649022442,-0.2531419906027192,-2.553462903160354,8.889585178445572,5.0,7.0,-0.1419866953271125
05-13,6.95246787269962,-7.95344022050013,-1.3053926093507213,-2.301586929152171,2.3269118209116613,0.5682414157418576,0.5822191765664935,1.4955712252087687,-0.9725087822933122,-0.2531419906027192,-4.1471637500766905,15.760002136230469,6.0,6.0,0.8960149471152604
05-14,3.195620821715909,-5.221460872405077,-1.4771566340087003,1.0364627958641808,0.012755386231830262,0.7874003619226032,0.1483793047029154,0.14770682530059934,-0.9725087822933122,-0.45853777629573167,-3.535960611223911,16.003905713354364,7.0,5.0,0.8055505444054725
05-15,3.674961332763407,-6.886521329127834,-1.4771566340087003,0.969180070791139,0.5466221320425935,2.8064894467852826,-1.1172198504899706,0.14770682530059934,-1.0008415098422112,0.3578363066942771,-4.120547127849846,15.075721089607258,7.0,5.0,0.7480192293888329
05-16,-0.6162986745037606,-6.886521329127834,-1.7451254868994708,3.187439127266941,0.9866346222396016,2.4419472607482833,-0.7811788822993585,-0.42711859508059263,-0.1585283492413175,-2.434678406752286,-5.355474759680836,10.258915639021621,4.0,8.0,-0.12749898619241748
05-17,0.022677073029259826,-1.5824342704592018,0.4328073685697806,3.334640710809457,-1.1075685339111276,2.1023753876989697,-0.4829802959655237,1.4640850462530162,0.9391434715191372,-2.937990089685063,-4.282511965685236,10.512471726120792,7.0,5.0,0.701226302357855
05-18,0.876994330881343,-2.434833098211754,-0.42841589164229477,4.596131898545591,0.025466927668680514,2.46766503177472,-0.8912548785759974,1.1979949032980621,0.9119981338254326,-3.4703703366614325,-0.5224832590028395,9.658699588551482,7.0,5.0,0.9989661125375827
05-19,2.997395831175637,-2.9101369814216804,-2.501150432820412,2.659887701820633,-0.47981575824595474,2.762763408241744,-0.419161995801397,2.167071582272645,-0.34787772137904677,-3.5492442702254356,-0.46624394811641673,9.819097664882797,5.0,7.0,0.8110487566985928
05-20,0.284902619049176,4.89726837516536,-1.4868613229190566,3.7703030102769786,-2.2459455338415624,3.281767078316358,-0.29791573966319823,1.639196348799967,-0.05640988929057104,-4.072533377845695,-2.952695931998133,10.723585509003472,6.0,6.0,1.123721762087758
05-21,1.2780262653034637,3.1515597473024295,0.11525872713103677,-0.5860972477976637,-2.4494025181821444,2.255603323529443,0.33045338817892517,1.4354537910451768,2.510081899269071,-2.9604907164233767,-1.131936569419846,14.854946205185762,8.0,4.0,1.5669546912601897
05-22,-0.06727039242286603,4.943618741978568,-0.5686497662485213,-1.5239905332140722,-2.598336517712954,3.683898010571587,0.34784252908834296,1.63585646302107,3.6225322100439645,-0.40026948305507976,2.891411470782137,13.878939790154762,7.0,5.0,2.1537985435822447
05-23,-0.9417085157217866,3.7992500624749024,-2.0369755689594227,-1.828472802352405,-4.580301930518035,2.4526635853184193,1.4218027715809411,1.1516651665804312,1.5319339726459744,-0.20487715558307928,4.922117360393792,10.458452966743478,7.0,5.0,1.3454624927169343
05-24,-0.0444454616970644,0.4207835125069971,-2.175983191745013,-2.3475095245660222,-4.560301411684637,2.8156604905222244,0.8960978334014121,0.33296393008364317,1.328653670884187,1.3759263937042117,4.09434671704127,10.007201648421564,8.0,4.0,1.011949550572731
05-25,0.04440598880354307,-2.8089900034383724,-1.925772082168436,-1.345646576401843,-4.893656956513114,2.4760024269850205,0.8354125098708483,-0.5103489550801596,0.8715761013545801,0.509957449957287,4.3079629760791365,12.242209145980496,7.0,5.0,0.8169260021190823
05-26,-1.6482265232476196,0.434573399520232,-3.137953370801236,-3.23151065162718,-4.006080113330826,3.32308485921228,0.6049999324358643,2.9292474893136897,0.5656009448140586,2.7807171953837795,4.849983034910921,11.816579669816765,8.0,4.0,1.2734179888667274
05-27,3.7565884606247053,-5.136482794889614,-3.9668516572816226,-2.4566159076666265,-1.5556440037400385,3.4079301215755837,0.047982818037758994,2.118069886218541,1.2702782907467858,1.9885493211622196,5.68470554344894,8.140369631914233,8.0,4.0,1.1082399758459056
05-28,2.563535574391402,-3.488935313738991,-5.032563828989532,-1.3695969953372242,-1.9835337225954799,2.6967944458008635,0.8883894752524277,2.9472706020820016,1.3343169351777162,2.9860783147264747,6.014509389044153,5.86940707276493,8.0,4.0,1.1188059957148953
05-29,1.7237542083908997,-1.0176079303311065,-4.0347111492153465,-3.079638503181022,-3.423312979574518,2.2373569878201183,1.2894624073667427,2.4902653195692412,3.138357990234403,2.7807171953837795,8.275565507248968,6.758989989638326,8.0,4.0,1.4282665869458737
05-30,-1.7458583768560083,1.2318363598486122,-5.45713506667806,1.8146897378381983,-3.550845126674234,1.9406640927603591,1.229086615275833,1.428046126968228,3.323039815686462,2.028396115987432,8.3340457971061,5.199924909518126,9.0,3.0,1.3146575833984209
05-31,-1.2981301269173522,3.4578541308732302,-5.796756706387325,-1.5013234464888456,-1.7621753666026494,1.5904689568999943,2.119751526742932,0.009287896744079533,4.669713273033513,2.3039736810269016,10.547907140113017,-3.8268433923433856,7.0,5.0,0.8761439638911757
06-01,-2.0163966892857887,2.3880112167699497,-1.4736867090414674,2.894715407348714,-2.775755234260071,0.6140092291763215,1.8092181010517148,-0.840494499896332,2.0986514241171523,1.2487907816236643,7.8724670934666925,-1.7120983372904421,7.0,5.0,0.8422859819816756
06-02,-3.7517088291333773,1.2961245050142285,-2.6199796549482124,4.0624147485751125,0.0837282663973997,0.9497245806186256,1.130555576302174,-1.4818928540224658,0.9686115076723656,0.8422097975603232,7.809429986162546,-4.186046339701744,8.0,4.0,0.4252642742080814
06-03,-3.552353819683767,3.877369695756399,-1.1432643450241666,3.920995881881427,-0.8515878196715279,0.6403324915771279,0.8663769426016851,-0.9848015337787328,2.816142950357343,1.4717187310223763,7.524670993415864,-6.605572764256433,7.0,5.0,0.6650022836831329
06-04,-4.070301233151129,7.138563171993541,-0.15481392345855705,6.116768565311911,1.6334655318608227,-0.6666367784974102,1.9585121012910407,-1.406865467416325,2.6590002628344243,2.799389851138463,2.8017064405751286,-5.959759546400605,7.0,5.0,1.070752414673442
06-05,-4.162810284896296,9.047190223826517,0.011891732443095203,5.525864652588024,4.202594062238938,0.2161218376741685,2.0185101264241885,-1.0845210097592328,2.5188943500478107,2.380952380952381,2.0317420865489213,-8.658333139937001,9.0,3.0,1.170674751512626
06-06,-2.428305264343777,8.524792763238322,0.7669634523644911,4.115655240178973,1.881036473326316,-0.6581837821081757,2.2456459743777493,0.05546086007069946,2.457027578019172,0.19206468214480685,2.3084953430747306,-8.133878664911997,9.0,3.0,0.9438978879526093
06-07,-3.143927182099758,9.21092539308663,-0.29263724582341333,3.2629187614105457,-0.4864759738649809,-0.7466006679121128,3.191575065576164,0.5995218011957926,2.6448820522313947,1.9497841579402229,1.4438922232949556,-8.599888445127615,7.0,5.0,0.7528308283256523
06-08,-3.4329781204571295,7.004934383322,3.7387510352034843,2.225575810991897,-0.06486742213360769,-0.930026266260987,2.770673414702266,-2.6744396214532418,2.4936773840082846,0.9415996476284948,1.0980496561033704,-9.332819312813116,7.0,5.0,0.31984421573680955
06-09,-9.265483976211195,5.538603932572181,2.826528137588609,3.8476063710192374,-2.7918459423547604,-0.2639650324091686,2.9999138731280155,-2.430203882676158,0.6776291994326344,1.1508456263047941,0.6945073659189618,-7.4756440020093855,7.0,5.0,-0.37429236080801953
06-10,-9.009881545879708,2.7342531812876825,4.1372205855921464,0.4491301432303015,-3.606454396304278,-0.6997152070930496,1.9866416907032378,-1.3264078819764007,0.4878938507755781,0.35474854818403695,1.4474026962978408,-5.159608784023625,7.0,5.0,-0.6837314266005198
06-11,-5.771467237104636,0.4915510020348567,4.4449528388800505,2.1403237399746713,-3.5587683947062363,-1.2658263998772121,0.8264800068086905,0.1113024022863113,0.38889419043374523,1.4133920410259082,0.04277420967076977,2.277188611473345,9.0,3.0,0.1283997509083554
06-12,-5.026762359902873,1.5821794215653318,3.643265970016403,-2.782985930984135,-2.1105290391277545,0.43527137689395323,1.1401213925452467,3.1738884558111256,0.4878938507755781,1.5031888705926655,-0.6192493691329671,0.24538673610104833,8.0,4.0,0.1393057812628019
06-13,-2.3504731041212747,-1.5211520760391075,3.8090949801807312,0.904310296478104,-4.208056558698615,0.0978123671189712,2.1530905223739087,-4.8281893530551265,-0.6767731475052768,2.390625281605625,-1.1944991754468872,-1.2956416670692075,5.0,7.0,-0.559987636181513
06-14,-0.31934167235666233,-1.7791881148699447,1.6789318075479946,1.6621580642690343,-3.2416119671507966,0.709148989869201,1.9619480214926681,-8.50136709098748,-0.9141118252855629,1.094093349063924,-0.8828912691408333,-0.418410352458454,5.0,7.0,-0.7458868383339093
06-15,-0.9410141158683877,-4.277313511707584,5.075738085280693,-0.6378005520915179,-4.771812490168833,-0.2171993471365582,2.1862569141184776,-6.026258288697024,-0.2250832814323397,-0.25687055608275006,0.519344309236342,-1.0377888828352504,3.0,9.0,-0.8841501431153946
06-16,1.8011876528357655,-9.081968713979252,5.642807733607628,-1.256276942588808,-4.7507225988370845,0.5047776348406056,-0.8871078563983167,-4.361402394255777,-0.08103355319388766,0.10465284912264505,0.828370946180543,-0.7889163705633959,5.0,7.0,-1.0271359677691112
06-17,1.503416456655569,-9.518298012284486,4.924836683539662,-1.2367137964221013,-6.625228266934692,3.6354982686374964,-1.69978811671271,-5.551763645238298,-0.036014149308769436,0.6810454146704336,1.525146768280362,1.1220015457329195,6.0,6.0,-0.9396550707820511
06-18,2.1867946829204787,-10.345975551206744,4.161991372981193,1.2627251532259596,-5.476963587373732,2.5232233347986233,-2.6935114234752975,-5.785930753026259,-1.3315084944418139,-1.224329125582272,3.3296780238510597,1.546294010371271,6.0,6.0,-0.9872926964131277
06-19,2.4601407597173544,-10.594268709397813,4.161991372981193,-0.05653746423001126,-3.8601425716096065,2.700373155782183,-2.2489555470725264,-5.785930753026259,-1.3315084944418139,-0.38561060786625734,2.503577223359506,2.2062949196259294,5.0,7.0,-0.85254805968151
06-20,5.102509340794283,-10.594268709397813,5.903734504131798,-1.2798510089236956,-0.6707807805994346,2.0540042485857346,-3.007319483552776,-4.099852693718309,-0.7457254471185332,-2.3957918554356055,2.4557489934936094,2.2534409246314344,5.0,7.0,-0.4186793305924425
06-21,4.842391482402932,-9.434886803465483,4.485569064378718,2.3455369459331985,0.12074586286516616,2.1497680168739306,-1.4334748231290237,-3.3869125805814813,-0.06328514097998092,-2.2549049527037237,1.71055695292478,2.5199815172803457,7.0,5.0,0.13342379514994818
06-22,1.1625187680383757,-8.205384259111723,4.0988087086676135,0.6578898074763289,1.6098800146201062,1.8914130322996003,-1.9497838283433016,-5.026786123733258,0.09938616737284062,-3.352939381318934,1.0077016249596533,4.950950344721745,8.0,4.0,-0.2546954270292461
06-23,3.5100002793188505,-7.496692532824769,5.9453030731754675,3.3848164715198594,1.945319696068661,2.755047794075458,-2.771505198693365,-8.012042247447559,0.0,-3.049020206227022,1.8307022771704915,5.633413693791453,7.0,5.0,0.30627859166062715
06-24,-3.2436384513794847,-0.06342304696511104,5.783156794486566,3.943498072762409,3.7659136347723403,2.567427765693883,-2.529118480666971,0.23307551803862397,-0.12649023243803756,-2.23713948679648,0.8986076354872403,6.0320983453037975,7.0,5.0,1.251997339024898
06-25,-4.83022590268855,0.19026309254066182,5.99935458177252,4.016290495430782,3.52411019190146,1.1266933252759843,-4.10256361825692,4.156549216818261,-0.699678892970391,-2.0485442818947206,0.09451848508985738,3.475161580929194,8.0,4.0,0.9084940228290116
06-26,-4.1846007000726635,0.28539766298833963,6.865163835870228,0.5127274785807677,4.810578699303495,2.521415315412419,-4.341294189524564,4.212361825983764,0.16216243709529843,-1.8379558273319392,0.353634339723745,4.06687497079949,9.0,3.0,1.1188721540690318
06-27,-4.878051005294055,2.116732467473249,5.601393300328405,-1.3119287010892242,4.492434509389915,1.814071860068495,-1.6622501398553706,7.176445894769336,0.44152593110681604,-0.2957991885178334,-0.4159047849477293,2.3762550486426877,7.0,5.0,1.2879104326728907
06-28,-4.155782414236802,2.677194805636401,2.0050931936450618,-2.597147916251828,6.171488104568669,-1.1211560437637051,-2.077418306076626,5.6748926152527925,-0.09011306931700523,-1.898796357304217,-1.1264148523635191,1.0848871048568476,5.0,7.0,0.3788939053871725
06-29,-4.57797340608365,4.3587313146817985,0.7902048931888993,-5.194295832503656,4.87054035614469,-1.3308233352421366,-0.0696273542143241,5.712970799281248,1.958149931796594,0.019273872835090362,-2.790047213529156,2.8961121520986635,7.0,5.0,0.5536013482045049
06-30,-0.7574060898923742,7.530999304677589,-0.9563000193852623,-3.786677040868779,6.068465741927847,-1.0190814448048298,1.5532460118032032,4.859778601900748,1.680970417540186,1.031325007059488,-2.2672390115672023,3.035289612535116,7.0,5.0,1.4144475909104777
07-01,0.7931164295194829,5.378173568734596,-2.134991840798215,-4.013504012670282,5.889807606525418,-0.4182869821675471,0.9437978102126331,4.521790922114803,1.0997816235821427,1.1170994545688055,-1.358506771576478,4.806661911839384,8.0,4.0,1.3854116433237287
07-02,8.568323381744975,6.122128260629191,-1.7346798101856349,-1.3160447634474175,5.0385396428652305,-1.3378089281286976,0.9146859840304478,6.230017008106519,1.592527483298312,1.2597341912727777,-0.3228249565657289,5.665112347483885,8.0,4.0,2.556642486758655
07-03,6.681123900874798,6.137624730023801,-3.436971193233912,-2.6926466992614815,3.3905968252178793,-2.1235290920586447,1.6071164548321661,5.504921180830548,1.9414914735431013,0.36143668716898536,-1.043702480152083,4.964543640208292,8.0,4.0,1.7743337856661212
07-05,12.68520386022274,3.0419432261150425,-3.1338054424391104,-1.247716087821732,2.8305510800267353,-1.2585702323623078,-2.9332845539693695,6.084173229830431,2.009735904735452,3.6908687975702446,-1.1577038564917506,4.667711940915707,7.0,5.0,2.10659232219434
07-06,13.196127389641063,2.558326811827687,-3.664280984691165,-1.3245006440939753,2.3141686017390897,-0.32739910667391037,-2.9516952882689664,4.991692350817269,3.1249960123652736,3.51288056206089,0.1972415365146567,1.7876296470313864,8.0,4.0,1.9512655740224414
07-07,17.502481065453622,2.4288361844812165,-4.499165462913004,0.7870233953448318,4.231252670288086,0.5583384165622547,-3.79792435040541,6.361901370226238,2.288731081905245,2.6510555794423305,0.5299168774205516,0.8867366542785776,10.0,2.0,2.4940986235070453
07-08,17.073171838684072,0.8487701016287109,-3.1001727137838087,7.672379785756829,3.725815404703994,0.9341302746070359,-4.518990325312846,3.3718068941492394,2.3063337608973242,2.321647932017426,0.9616244253850859,3.349675307495894,10.0,2.0,2.9121827238524136
07-09,17.024629339208744,0.27777823564608367,-1.0296566140533023,9.205090793146761,2.0033788479532753,1.0899020891345381,-4.209458049692636,3.1082415767406295,-3.991756078994544,1.0285731724330358,0.8636122558284056,5.9097407378993525,9.0,3.0,2.6066730254375288
07-10,17.359608617322213,1.5740805932466093,-0.3222863695419795,7.774266916795994,1.9418158121438207,1.3884257538121942,-6.3003103142867385,1.8233684448962235,-4.333929201200175,-0.3735268422272405,2.984192543446856,4.154727235824871,8.0,4.0,2.3058694325193874
07-11,14.147783852563114,3.363638213186542,-1.4953835902313397,7.074429327460729,-0.6047854196385508,1.0841133592147243,-7.808310414797963,0.9660946593459443,-5.294621750992024,2.1687911226511516,1.7781528376406035,2.05945831435607,8.0,4.0,1.4532800425632502
07-12,16.962076079325918,5.7206247735287565,-1.4680919001249826,6.354074181224149,-0.4137979939569057,1.1031297096483936,-10.31903986490563,-1.979548440608693,-4.416016899062491,4.97804035704003,0.8975423982126673,1.3083141330693726,7.0,5.0,1.5606088777825489
07-13,17.104264542571297,4.208204172451153,-3.8572630887427524,3.8608257590055413,0.05729331349729634,0.9665740110467468,-12.861984289875908,-2.538402988241386,-5.292741476233168,4.84077688014172,0.33022810727122653,1.0672940767300958,8.0,4.0,0.6570890849684886
07-14,16.436281157844768,6.220939271574739,-4.058819939108456,4.986511039980424,1.0961949733569596,0.42130973552697937,-14.864734164889407,-2.394194554816998,-5.667450165581076,6.323202882414317,0.36397520517801724,-1.3517171535818597,7.0,5.0,0.6259581906582007
07-15,12.274026368378374,6.1592069862382335,-5.494115492876838,5.6361507108138245,0.0763764984541626,1.4903918328659855,-9.408908866695237,-2.9974553821716237,-5.817329353135977,7.491415724908271,0.19501725637817202,-6.483699389212817,7.0,5.0,0.26008974116204403
07-16,5.030841473817202,9.267864022105279,-4.364704805261948,7.507698834447953,3.927531118055426,-0.39025697425789824,-2.9934604486831686,-3.025739301228255,-6.415447442959765,6.4601603957469225,0.4897423199865849,-4.392716523190856,6.0,6.0,0.9251260557147893
07-17,4.471857453854306,9.718180081205835,-4.920160712671147,6.180737672210461,2.6016779646130637,-1.5995716820511015,-2.9750422455675487,-3.621539223787958,-6.535886433046828,3.9456846053845993,1.975452666616428,-1.3313952925925439,6.0,6.0,0.6591662378472974
07-18,2.756361364176275,9.691947396865439,-5.356297268042386,4.814541099163925,0.2742473415050849,-2.504529941502624,-2.1000265134988,-4.383539306100318,-7.315911589778815,3.5333485746559603,0.3322253954137323,0.9238332022725797,7.0,5.0,0.055516646260837826
07-19,7.278072221242601,10.536921788109515,-6.364715424043848,-3.60910754580036,0.7978052604208474,-2.1131964383866753,-2.147071418291973,-3.544472293277795,-8.077250322966329,3.043838389779935,-0.10222569827581703,-1.0998174445194089,4.0,8.0,-0.45010157716744237
07-20,8.272725885564618,9.11136544809121,-9.33675616672038,-5.358135338091042,0.44253721208118696,-5.237950876022647,-2.2790194531262946,-6.114375724384115,-0.48018278940464504,4.310583443206206,0.374821061158499,-1.6163472727413184,5.0,7.0,-0.6592278808657269
07-21,11.246039112933166,7.4550040582235315,-8.881902252536285,-2.4893600797534963,1.8616360786185788,-5.22203772479679,-0.315190812305216,-4.083192209403292,-0.15064839797440588,4.848263494095719,-1.1065953138750364,-2.5889425216975703,4.0,8.0,0.047756119294075305
07-22,11.027350656677653,6.884872238313533,-7.623430661044959,-2.889261081369577,1.6198601089712112,-4.730338811752372,-1.4548483283684503,-3.1822099458987965,0.7720550813412994,4.491397773894532,-2.434964372324094,-3.6088685004251415,5.0,7.0,-0.09403215349876344
07-23,8.124670530659063,4.556991891507614,-7.151504968246246,-1.4194167537316613,1.70485793887304,-6.104631670889309,0.9006465122950847,-2.1661980898798676,-0.6878773605603665,5.894541204163991,-7.209805394743817,0.7433295753476137,6.0,6.0,-0.2345330487670717
07-24,7.967079650557424,3.7810389517848924,-13.993309351027087,1.21929385685186,2.6886360965933727,-5.596060594785143,3.133498876670214,-2.3919288187007384,-0.36186767516201024,3.8705553434358393,-6.415565779258621,0.9851388746540818,7.0,5.0,-0.4261242140321597
07-25,7.529327948004148,2.918153810331426,-13.700572900150659,3.613700592365845,1.4650199664797294,-5.017846929541755,3.9403293860037145,-2.0683673526790076,-1.8736933918006866,0.6184069760253421,-4.678361466190344,1.2806737043490144,7.0,5.0,-0.497769138066936
07-26,5.965097014286139,1.9410582951534738,-18.697738122355204,2.5920234340721025,2.470665974310977,-4.917290366187156,2.680353311817875,-2.182234596133923,-3.239843737606384,-1.2906212010154463,-4.501153467642931,1.0857852278932285,6.0,6.0,-1.5078248527839373
07-27,6.032027301828685,1.3902732377513674,-9.946970229274593,0.6210084039383634,-0.0496628176009648,-5.752072989779117,1.4722852254188055,-1.64797695319109,-2.6893670363076216,-0.1739152781750442,-4.935317796120352,3.060413117191084,5.0,7.0,-1.0516063178600397
07-28,4.610638788331943,0.7210845491879219,-15.726807934737637,0.10800355136604776,0.40783764113059673,-4.220356056699715,-0.29077718489727694,-0.7546097020768647,-2.573276542553621,-0.44851063045264716,-1.5259312096125268,6.186276278614091,5.0,7.0,-1.1255357043666407
07-29,5.929284437515815,-2.639815902320087,-15.24774125637521,0.3412093682687481,0.32160570512043773,-2.9169660764272605,-3.9842887528070414,-0.01910081440452,-1.8187067848173362,-0.48530242994225553,-2.6879375920432556,8.669034477997064,4.0,8.0,-1.2115604683529086
07-30,2.0169259076273316,-3.6092439355703423,-14.837126101176654,-0.15340026115635008,0.17974048141508958,-2.4557680180734787,-4.316060671398461,0.01910810201014127,-3.8685464305833537,-2.121718591775335,-5.6952428777519675,10.571122523639026,4.0,8.0,-2.0225174893995295
07-31,0.9544368646636461,-6.070096211155232,-12.001064509781635,0.6173963219030955,1.425406822148945,1.8068382732225818,-4.181484692074012,0.06683186581238039,-4.48723964303857,-4.317497880843646,-3.8022841904692,11.025701771572042,6.0,6.0,-1.5802546006699671
08-01,-2.323070311336446,-6.387441091885622,-11.77725053932277,0.38717347468904234,-0.2401917850443752,1.7919881271344589,-3.6912467676096656,-0.6539093366139109,-2.486352488747819,-2.695371945662716,-4.944653318710443,11.248864245518828,3.0,9.0,-1.8142884781326194
08-02,-1.6457927438864317,-7.253815963027292,-6.6562232984892455,1.6357497126340417,0.006155390242343822,0.6880844648512398,-4.202092585565201,0.7371210509429114,-3.1766043962624857,-2.1395879114690834,-3.5837387992155474,9.620402777585154,5.0,7.0,-1.3308618584716327
08-03,-4.104063372337645,-5.277393465792566,-9.893620669329243,0.21018309082716427,0.29561848985253375,0.4713063315531651,-3.027703811593153,-0.6560543127498185,-0.8964722617375256,-3.66252285681945,-0.6713825581327739,9.749542592225557,4.0,8.0,-1.4552135670028132
08-04,-7.683593734246474,-4.635369779555069,-3.160686795433549,-0.42949942373425637,-1.9651036299232947,0.815745844871219,-2.1868393751975175,-0.4923275936480777,-1.2242185257500438,-3.073905403205272,-1.2224012993216167,9.359230932383623,2.0,10.0,-1.3249140652300275
08-05,-7.856467965008513,-4.4609665427509295,-3.4262869815380634,0.12722590738245143,-2.0808393517626746,2.728565265749076,-1.9317171741049435,-0.8108929404198693,-1.3495291639752978,-2.2428156948310107,-0.21676107399162034,5.9229915196668435,3.0,9.0,-1.2997911829653794
08-06,-5.109488165157029,-3.420078887372212,3.120857912715272,0.3174589334431689,-2.9398639641129933,2.8050654137701954,-2.643901545826982,-0.8591630953822387,-2.3957918554356055,-1.7524456354613023,0.5733733864005387,6.068776959948648,5.0,7.0,-0.5196000452058785
08-07,-5.184354186678431,-3.7472069041879434,-3.607432401682563,-2.1619575868301393,-1.3335818713646754,3.3124237780202113,-1.3853640672637195,-0.6842119464543974,-2.9976464573914616,-0.20960149503588765,-2.320940605407324,4.155428464715529,2.0,10.0,-1.3470371066300668
08-08,-3.106868496969304,-6.372923522730922,-5.908826737971824,-3.3869911122204623,-1.709509905266234,1.8914154134254764,-4.009756693025915,0.23870905374457707,-0.9864265477596822,1.6474629104147827,-5.374891365551374,2.4443708199580043,4.0,8.0,-2.0528530153294064
08-09,-3.650044348097338,-6.6819495645704015,-12.140984654448442,-0.2881582044397629,-1.621520847940236,2.401023672730979,-6.74877108081404,0.7983997197986679,1.1191870659066718,1.2567806589741306,-4.182479684238153,2.114343745912767,5.0,7.0,-2.302014460102096
08-10,-0.9899191990464306,-6.660504629097696,-2.6989010197049637,0.2071169298630099,-1.4015434095812458,2.876930516186496,-9.669788719687753,1.6441187146377143,2.2194301682155144,2.8390591618164938,-1.6711889381357141,2.10606903701661,6.0,6.0,-0.9332601156264971
08-11,-1.8467220162904128,-4.422993315338529,-4.200868407429411,0.8194539730766414,-0.7430549402177485,2.6252800273084205,-13.169305489434397,1.5508990838846295,2.798411631134838,4.086796297853498,-2.2252539614817306,0.1569230579227808,6.0,6.0,-1.2142028382509515
08-12,-2.284026234773722,-2.625113755749299,-4.4095120265111305,-1.0551440943381976,0.5547393520714342,3.2487984711466833,-14.255898179553645,2.2558525609996725,1.0325192735531983,3.361569577168058,-5.641075731729739,-0.9764631713613983,5.0,7.0,-1.7328128299231738
08-13,-4.0193520281887105,-1.796128615148928,-6.579501178316431,-0.907006733788096,-1.5536221176746128,2.155387030088858,-11.192264596912693,1.8140805679556824,1.108862728792627,4.104141025857673,-5.523932322563716,0.9503955136742033,5.0,7.0,-1.7865783938520121
08-14,-1.5630817386529265,-2.103166655539978,-7.794035977510245,0.8228139688093083,-2.922160732042752,1.7881495179883813,-12.459719295640534,2.145199920868706,1.1183991982809747,3.8513442680439045,-2.616141386079314,0.8086649570546927,6.0,6.0,-1.5769778295349821
08-15,1.4328255186344965,-1.8218041135424907,-5.916514549848825,-0.4959141505686137,-1.9324665329857198,1.4470868939837593,-11.98711476371455,1.219859021775266,1.1617849896737766,2.584876578037148,-0.5411391120708726,0.8586901254706396,6.0,6.0,-1.165819174596332
08-16,4.022463238351126,0.8792792120825262,0.38415806561645194,-0.30079467123192505,-1.8168990311119233,0.7162352277134811,-9.528311232481839,3.6710009333245504,0.11554279402737166,3.3673670185507842,-1.5500343578167182,1.548143664548682,8.0,4.0,0.1256792384643807
08-17,5.309255414582387,-3.451426986826245,1.5428873605937201,-0.4922075654303515,-0.674116004614863,0.7162352277134811,-8.479868353055782,3.439599630307187,1.0885244966701548,2.9016705954699193,-2.3754966488883174,2.6203770927496937,7.0,5.0,0.1787861882725821
08-18,4.422383926821689,-2.1570684026252627,8.068929326640903,0.5013174979062802,-0.674116004614863,0.8128885071550688,-9.738691038027596,1.9928226908632967,1.6665020404827682,1.7284616173003995,-2.3754966488883174,1.4202650023265335,8.0,4.0,0.47234987627840824
08-19,1.2019258577496053,3.770550449144801,10.066587613424865,0.5013174979062802,-0.39694929732784107,0.5974913649530229,-12.205803735221336,1.0861295110651672,1.3678819018792803,1.7284616173003995,-1.3437473807292455,4.3225811373802925,9.0,3.0,0.8913688781271075
08-20,1.4463170311201055,4.049298691227626,9.988241627189852,-0.6175737962324906,-1.7668487217284816,0.5409623262071614,-6.778578049857248,0.6327901268656954,1.3678819018792803,0.8404123209822546,0.4422762521169649,6.143836550975999,9.0,3.0,1.3574180217288934
08-21,-1.1496364331102424,4.621480863608034,9.988241627189852,2.317756317186713,-1.2085705841502137,-0.7615599965873332,-3.934566826905978,0.6327901268656954,1.850076985066879,-0.4885117704495069,-0.2444957369557898,6.15176995831812,6.0,6.0,1.4812312108396857
08-22,-0.4079384747973085,4.621480863608034,8.116748549876087,-2.662480291729644,-0.7612881820133307,-0.5011567231261108,1.3578495238337471,0.726556188026919,0.04780134249337288,-0.6552614112672293,1.2733126001520543,3.8895073784019103,7.0,5.0,1.2537609469548752
08-23,-0.4079384747973085,5.673238735628189,3.3029771853414,-0.20226278155094832,-2.076257078814611,-1.326584269854967,1.3578495238337471,0.5605366862754497,-0.18367634138382938,0.7504537454843607,4.465563017795057,3.8895073784019103,7.0,5.0,1.3169506105298707
08-24,-0.0739251803292056,8.245218627714257,1.7896142256945926,-0.34936553694995776,-0.8367948978388854,-1.2817997607992262,1.830177866849601,1.1429133298109604,0.4702474838007291,-0.01808704587426594,3.900644373263213,1.3926207929984789,7.0,5.0,1.3509553565283579
08-25,1.093092513741667,4.598710377541084,5.23930168411173,-0.5608169800292377,0.18683629449680114,-1.1129579029953576,2.4220282563149875,-0.018735727946650713,0.46064850441166355,-0.4792032428652097,5.4437959840330645,2.275508442736108,8.0,4.0,1.6290173502958876
08-26,2.978872954257516,5.470331205162834,3.559533025329957,3.20354225361243,-0.64050503765208,-1.2455907060265408,3.423239626061537,0.9182079322683062,0.04798025319341322,0.776788166591112,7.436518138823088,0.8595759433753523,10.0,2.0,2.2323744795830764
08-27,2.249380939350649,2.894356069702414,-0.6399089639636858,3.3233181514180727,2.4003989714571716,-1.876302319728213,0.9469261677042712,-0.8151364094667966,-0.1346018524882391,0.3407809842459521,7.8104869172355205,3.6301225110119177,8.0,4.0,1.6774850972065865
08-28,0.9210068476722433,5.238777419862372,-0.8685215896380694,5.959065093118608,4.856155324045832,-1.4718935240136748,-0.010408050353052024,-2.184231107033098,-0.5405977486104471,1.980545689926246,7.026518376093705,2.5690072485945703,7.0,5.0,1.9562853316387694
08-29,1.8774310587710799,5.52588996763752,-3.269493077341938,5.31630578760049,5.0054712438827265,-1.6793409975973776,0.842869481222599,-6.682528081481872,1.9263464458296786,0.8259993836310958,6.407206743689753,3.941275695185532,9.0,3.0,1.6697861375857739
08-30,2.7899633370052457,7.474909618567967,-4.595186657742056,6.288329438016675,4.9933046749229195,-1.3484123466405455,1.3969355159843868,-4.398595318316716,2.699414019035345,1.2228823816078402,5.8548601051842475,4.246855756810273,9.0,3.0,2.2187717103696314
08-31,3.3158773760554707,8.109991077740379,-2.5438396497240596,4.966744551032493,4.385106152154128,-1.8717129911294934,1.4784949205208306,-4.665869336140116,0.7043573966930999,1.329999000272133,6.160774967028218,5.27143747338941,9.0,3.0,2.2201134114910412
09-01,6.613707522792492,4.457517296075686,1.2763173956620066,6.564739305947165,3.4751572253980005,-2.7594200559550086,2.9842874667591444,-5.264206431955432,0.4473645836903922,1.9191301877227551,6.581506504993119,4.769223864271453,10.0,2.0,2.588777072116814
09-02,9.22403561069026,3.783329873495623,3.1973688225997123,8.778886406951564,3.2196476538625856,-2.7439765376356324,0.7955027680427739,-6.317044687200508,1.5419714018973105,2.71801662485306,7.497065801771852,3.03263151750372,10.0,2.0,2.89395293806936
09-03,9.65102494273177,2.303495685818455,3.684214541786596,8.978457167406795,4.836555921292356,-1.5010943759735875,1.1465197658457196,-6.893129142203122,2.8549970132297187,2.041544934393476,4.273578605315471,4.843453732012161,10.0,2.0,3.018301565971317
09-04,8.348639256897728,4.67680944097932,5.450789615745368,8.7173011232529,3.882437194756166,-0.8868816676874361,1.8512697400653009,-6.301861929508913,2.6904990858363567,2.7524565617757135,4.854536716876428,4.982945606269043,10.0,2.0,3.4182450621048317
09-05,7.513775331207956,5.468647921996158,6.917602344389552,7.390379336494049,4.314397437403593,-1.055346015700608,-1.3989711111013028,-7.394475331611448,3.1460678973232117,2.357198064867031,5.099224610000467,6.238372474580991,9.0,3.0,3.2164060799874705
09-06,6.562077378124035,5.2324831544458155,5.815754247899953,3.6165113792447654,5.1010057107025935,-1.0355231228903683,-2.0537819820126884,-6.470123463648456,3.821302870212954,2.651023877318531,3.0561848082995646,6.390717320100954,9.0,3.0,2.7239693481498044
09-07,7.1416630800625835,6.028082386536631,3.2378671510952035,3.4970987281023507,3.676776270013919,-0.37408667707052284,-3.4445745255677793,-5.40193670284939,4.411355142047956,3.0769237910708855,2.4449452913706082,3.8005875064642507,9.0,3.0,2.3412251201063916
09-08,7.203885635769566,4.280376593411517,-1.767739197959132,1.2367766757613456,3.779990413640425,-0.5473105979555434,-3.1567733268847307,-2.771817287392043,4.797354413956483,2.572800204564574,3.463418858745239,-0.7578247991660918,7.0,5.0,1.5277614655409675
09-09,6.087824205650523,3.842958105014252,0.5983171551924026,2.17960781548533,2.790473552869759,-0.8914333450402974,-4.8897572508599145,1.5615835334938688,2.6743829592936406,3.304004392298839,2.305886257538953,-3.7410996974700685,9.0,3.0,1.318562306955607
09-10,3.4885649199142903,1.8174322346144605,0.5711152620568346,1.5307385648614693,-0.17746209042424607,-2.1081339319671017,-7.449407122939622,-0.2928001702503341,2.835119183829059,3.354032511165998,0.9125490874347963,-6.271127609941904,7.0,5.0,-0.14911493013719168
09-11,2.9635902161056715,0.6104362239578647,-4.308137429668877,0.8047211982349389,-0.5811445165156531,-0.43881764848615445,-7.53835734406821,0.3684285976989182,2.6296437607358634,0.08874443282367439,-1.2475237945140172,-7.42055341611106,6.0,6.0,-1.1724141433172537
09-12,1.9305663071591812,-0.26592365223456377,-6.248188129650929,-0.6433085904741539,1.0750754853150375,0.4288424449703175,-4.6920181300332455,0.4938457668383826,2.262734644411251,-0.43930236663761696,-1.3286433856565294,-10.04902556601605,5.0,7.0,-1.4562787643340769
09-13,1.042379708783221,1.7553466969805718,-3.1060186694774514,-3.472952364682933,1.3362469365877014,0.4138758352711175,-6.86642039478891,0.9594632204769544,3.1794346232758888,-2.319048439847914,-2.331556236863055,-9.466170705766807,6.0,6.0,-1.572951649170968
09-14,-0.45099447467749104,1.9785689276706548,-1.98604860923769,-3.6998236651172425,-0.3401345728071955,-1.1650894124365352,-6.588190588052406,1.7276688099469868,1.3982725592242318,-1.6124638002885887,1.114351972354727,-8.282749866001843,4.0,8.0,-1.4922193932851993
09-15,-1.106197318662447,2.064536708820619,-8.279717718804633,-3.4031427380512596,0.8700852093297176,-0.6349255656343615,-11.560757775531862,2.2496879771364338,1.5649549453123097,-2.3552844356342013,1.114351972354727,-6.719238088314588,5.0,7.0,-2.1829705689732957
09-16,-1.9577760952009176,0.9190646843916301,-9.986013132375437,-2.83779965964016,0.042359364923436,-0.5314336322641282,-10.610823816636039,3.2441832772540544,1.1019491022797403,-3.67006154546378,2.4192188976654387,-7.238420445889354,5.0,7.0,-2.4254627500796264
09-17,-1.8381716400157875,1.1659786780928272,-8.699302406577797,-3.1870461327259583,1.0175966557439577,-2.5871689518009355,-7.720374563326147,2.404169036503305,1.8833214984846125,-3.537066533033993,1.0969563988898066,-5.8731963150424935,5.0,7.0,-2.156192022900717
09-18,-2.4738059853197267,0.32921516974774545,-7.422256889891752,-1.6443044970179133,-0.5994844521526593,-6.271907521057759,-6.2720947050663405,0.9602153154828859,1.711761961775245,-3.2072862351402334,-2.190465900941895,-3.0226038308209286,3.0,9.0,-2.508584797533611
09-19,-2.5425177212055763,0.19230684585123395,-9.991504659912144,-2.2768914532742586,-0.8101332864019961,-6.088821206851537,-6.5685874631885595,2.2058811588943934,2.3963996955940314,-4.391619642039398,-5.4890294364850964,1.638269962321741,4.0,8.0,-2.6438539338914304
09-20,-5.533941261352256,0.5883057837264348,-12.871281739386417,-1.5093063433825642,0.21603493259129566,-4.451532451925475,-3.683567952952916,2.107502178773263,2.8395395712428457,-6.61270540791648,-4.239138465937612,1.395957435771624,5.0,7.0,-2.646177810062355
09-21,-6.096694645408406,0.06920739734456084,-4.061133183732278,-0.8404045299799677,1.9323099090836584,-4.451532451925475,-0.8525720428563631,-0.4017599416502867,2.912884562831853,-6.667892739964379,-3.4437502717400723,2.5878112264807522,4.0,8.0,-1.6094605592930336
09-22,-4.483833811794759,2.5945921201963684,3.655859791110165,-0.171509259236251,1.843958930222272,-4.081306397269993,3.139860139860125,-1.5357329498657608,3.117762278102095,-3.6420481580166504,-3.2722513524699766,4.0501894443156585,6.0,6.0,0.10129506459610778
09-23,-1.7577123543341622,4.427508150623983,5.41506641798782,0.17945572594159254,4.376826211047007,-3.6649732578299563,3.7044957472660998,-1.6637081921129275,2.7614452299396697,-3.900058447943648,-1.4834468245540766,5.002009798702814,7.0,5.0,1.1164090170611844
09-24,-1.1232098459928834,2.4612144391491833,0.43980165671936966,0.9581184156528209,2.6442751143886625,-7.574292058725958,6.574061190480057,-0.5512872105723368,3.423865486138842,-4.3232789700698335,-0.4494030564128817,7.747793783161859,7.0,5.0,0.852304911993075
09-25,0.3801579576056655,2.648479534986561,1.7229638567909336,2.285085298600189,-1.124010723233435,-4.157655745035157,6.3301891371527645,0.04893145176943221,3.6370013785173816,-1.78864669804851,-3.836230749020487,6.73957055751972,8.0,4.0,1.0738196048004216
09-26,-1.537928816442513,2.3742511066459344,1.4153522972440022,0.9592953237699191,-2.5664686598945616,-4.706378001580866,10.39125827171681,-8.972576263214997,3.666545876950261,-12.002843064217565,-1.8153271057907623,5.583995999153621,6.0,6.0,-0.6009019196383931
09-27,0.7767694861328359,3.2309537757692417,2.5117814456005605,0.11268832587567076,-1.7171397207570154,-5.239280324236993,11.757329958778007,-9.163557393655724,3.90638858955384,-9.427710375003882,-3.176819105846694,9.815547144388798,7.0,5.0,0.28224598388322053
09-28,1.6569065748398275,2.4800008138020835,6.180290173277657,0.4507665306082498,-2.8188096697976546,-7.219270022413679,11.941230529025406,-12.21018014132318,3.166982538928847,-9.568272013350507,-3.429918172780693,10.40624559237969,7.0,5.0,0.08633106109967059
09-29,2.2791530826383615,3.4437065882398596,6.957309045119864,-0.1647039185167847,-1.414436891571633,-8.667939742623181,11.701253152004444,-11.007172991578987,3.336002026360606,-10.190764740338992,-2.464117572092709,11.55457616176804,6.0,6.0,0.4469053499507407
09-30,4.007256480267371,4.512060477963987,9.130656223082845,-0.07795250995913613,-0.18590558236506746,-11.410617573556125,9.765381594945412,-12.421141903083308,1.2543400197260668,-13.872175894991429,0.5538273414917438,8.602234680779818,7.0,5.0,-0.01183638714148542
10-01,8.077356581515364,4.131691519073154,11.67695676647115,-1.155563036008685,-0.4093135832150937,-7.652886697692356,7.388000887744198,-12.50815716187195,2.1164034334966075,-15.41697783856974,0.2900745162924002,9.517793229174343,7.0,5.0,0.5046148847007826
10-02,8.564928591444872,5.246589863692616,11.57460805421261,1.3001568315533067,-0.7009932874420107,-5.911356326285492,4.7883231065841,-12.288318885492217,2.2026431718061676,-14.622982148169267,3.2146142050536786,8.410728882409026,8.0,4.0,0.9815785049472828
10-03,6.484638295023111,5.358317659074303,13.837660150526204,1.0269895498275161,-0.16243789584770366,-6.288092024108363,2.805182249788667,-11.706267976143215,1.0426794417847718,-10.74557243732423,3.665098053048535,6.441784980199512,8.0,4.0,0.9799983371540927
10-04,7.313145588949175,5.900741145474564,9.211200547622754,1.6390725036803475,-2.8155412353578693,-5.966761369784469,4.704821376016552,-10.133821517954669,0.6196856886646293,-10.53811256466847,1.9670446838428401,7.912832301853072,8.0,4.0,0.8178589290282048
10-05,6.133765690587474,3.746094376050351,9.872415321804425,0.8657634434970659,-1.0167262838377094,-5.191663832340139,6.104825944304194,-9.449417630815208,-0.13288583409704013,-10.089679595763384,2.7320107809451124,8.19481276834431,7.0,5.0,0.9807762623899543
10-06,6.357918934637601,1.3329742003207212,6.506846133568988,1.0506850358697613,3.7599573065259553,-2.1468647649991808,7.689265423829907,-10.4040677796219,-0.35435997130732444,-11.679574769347267,4.561199997306669,7.273677590620102,8.0,4.0,1.1623047781170026
10-07,5.456625065421954,3.756772614393396,6.7985708142162995,1.1503863962682912,4.471753097398679,2.489797410395515,6.973761971162245,-1.2640512415735257,0.2126132792426605,-10.698054546742371,6.858250054120613,4.226399936893036,10.0,2.0,2.5360687375997326
10-08,0.7541427217210663,2.904725053696814,3.044132430192567,0.008495825996151798,7.813828777569778,3.3207481788341973,4.839032965140247,-1.3936916049621904,1.4609379797154733,-8.077722152785041,9.889318095023167,-0.7162625700295658,9.0,3.0,1.9873071416760555
10-09,-0.13407379505555891,3.1758315434395334,5.255327029910179,1.6907373962334253,9.793470945950066,3.964693442974581,4.640300275504231,-1.2842594053321117,4.347828340440227,3.0493861812352483,8.5335635814463,-1.3802925616391102,9.0,3.0,3.471042747925584
10-10,-0.7373930868247373,2.1781638304795665,8.652005063773533,0.15579046542277736,7.688428946671536,5.244955505637307,3.279017360663102,-1.5912548867809702,3.858330190589325,1.0235504396397828,7.078008734789328,-1.5071284718782911,9.0,3.0,2.943539507681855
10-11,0.9393534804837499,1.8709934573674765,9.70379418641955,1.459417181185784,6.556456793684153,8.837958692172707,6.060612084763306,1.0081454671257288,4.283037018673815,1.4317872196326364,4.258056559636525,-1.7576710225545478,11.0,1.0,3.720995093215908
10-12,-1.2976077785367028,2.366483625660259,5.7797124846959305,2.5091703148894764,6.9038903200446615,9.39456035504989,6.394847256935829,-0.7893019196098198,3.669724473350134,2.7510763704118686,5.832732437559349,-1.3256860971605169,9.0,3.0,3.5158001536075303
10-13,-4.174541046890304,1.3712873818109925,8.472781510361179,0.8790635788964836,7.427839815200818,9.834061355834313,6.494756066756064,0.4323323724572756,3.5847784377706615,1.6670047798804952,5.1545578994977,-1.7056312053095424,10.0,2.0,3.286524245522178
10-14,-4.288133524232004,0.5731338169225484,6.068820986139245,0.8790635788964836,8.679635798736637,7.798548180932141,5.45030661004425,-0.08646977297602719,3.8651061880532964,7.289555130008312,5.5062897296381,-5.651932634224701,9.0,3.0,3.0069936739948564
10-15,-8.436684421056222,0.0,8.272453714317567,0.8790635788964836,8.518991494336433,7.62065583507919,4.85957980048178,-0.15132622581375882,4.634701343948695,6.496158889650451,4.44588152995171,-9.208534855840636,8.0,4.0,2.327578390329308
10-16,-7.074234475214928,-0.14328593872809964,12.470486820227427,-1.5514593206682223,10.398357963091827,5.321531402396706,3.441008247175719,0.7391481770650508,4.036294517012359,4.577703481789038,4.8700550329171195,-9.543969862642259,8.0,4.0,2.2951363370351454
10-17,-8.244543616948677,-0.3655336617160076,12.901427832989937,-2.454356189037352,3.9579446749212743,2.499350677158908,3.0192672007998396,0.22612154437607057,2.754824790592305,5.853001729680775,3.7625062445302753,-7.275783329093449,8.0,4.0,1.3861856581878251
10-18,-6.094849139857931,-0.2346809808835231,6.573313348517367,-1.7167701361470253,3.24232041776457,0.4530124249683522,2.972764202540966,0.34360539489057706,2.8905718101349267,5.804547232553027,1.3891093454266723,-4.855582298471451,8.0,4.0,0.8972801351197107
10-19,-9.817474544686837,1.173864024224597,6.808513286194015,-0.5551772426659611,2.7799201530078697,0.6082731430248508,2.954154774551263,0.19409134065343026,1.388889437355826,3.5207889210936614,1.0319122218742693,-3.546103962556469,9.0,3.0,0.5451376293392096
10-20,-6.470685853883364,0.23183965300208423,6.943479648171383,-0.5295482639999843,3.269800175720942,6.141690615975935,2.519233410175044,-0.30310285453170493,-1.5873050348081383,3.263862208875682,0.35166434762429216,0.40685591268511523,8.0,4.0,1.1864819970839404
10-21,-2.9147958607310467,1.5663130443742985,3.4832719139186037,3.3661789825845494,3.3597807877693233,2.161003112528046,3.4072396281536013,0.0,-0.8367850552321575,4.759222693768136,0.6058690381367428,2.067807846290947,9.0,3.0,1.7520921776300868
10-22,-5.237600530273367,1.8744371497153842,2.6528206497358044,1.8512352023017462,1.8205665945978766,2.3983445747766767,0.23107824220982803,-0.9309381207193568,-0.6284398282755757,4.9106723600840025,2.201576840852815,-0.6701298140268266,8.0,4.0,0.8728019434149173
10-23,-2.9136321706930945,0.7189595108254341,4.804874757805887,5.1239923848893625,2.6565623943945678,5.042633911578854,-0.1251658508126351,-1.6239758733182748,-0.3089338488996204,5.4673554360495,3.4292793776677577,-1.0993198860823907,7.0,5.0,1.7643858452837788
10-24,-0.953866178487753,2.274732067282509,4.643543679985034,4.886763660325673,1.827131445367067,4.579777781478394,-0.06739812672140692,-0.46331248409340875,-0.9455098316496605,8.923250537063607,4.769979377059987,1.1143707211395066,8.0,4.0,2.549121887395796
10-25,1.6556843469736195,2.9371110727635683,7.165357297241121,3.8295778928679707,0.48140310072278075,6.163212617044776,-0.6976080099698838,3.3174322247355246,-1.1861826768538826,5.3136124894436705,4.415506795316938,5.0122905765330295,10.0,2.0,3.2006164772349357
10-26,1.0034016330667306,2.2632360210077014,5.057056144509497,3.74668158648402,1.044859753951196,6.545679302287819,-0.9029129176463896,2.3432565661394045,-2.1960001395524644,6.1170428402384,4.669804260208614,5.354563973707268,10.0,2.0,2.9205557520334833
10-27,3.072119212581807,1.9039170105954424,-4.109110526188867,2.9509263731803506,-0.6958361190419987,6.911545778064805,-1.1795900016161747,2.0358929822301324,-1.5587302064949464,6.062265556149642,4.713858630723815,10.20652444202757,8.0,4.0,2.5261485943509645
10-28,6.101363205221563,1.8200438734208877,-4.624215245034686,0.4506409119516888,0.37451556267003,5.274642292846994,-3.1744452109215784,2.5396139633691237,-0.03444791128245728,5.318854216147975,4.04126524858083,12.330210990515662,9.0,3.0,2.5348368247905024
10-29,4.527624131981802,1.691873560137517,-1.1589856174030941,0.2555762731154192,-1.8390375369888932,6.4357360462845365,-2.6276923067681834,2.2667684346274575,-0.8946464286142782,4.474978865280729,3.2120696551927272,10.199781574142316,8.0,4.0,2.212003887582338
10-30,7.763975116551533,1.7303236762457197,-0.22036933277220444,0.33199913645672396,0.4657229030241945,5.664535624671222,-2.6080125085728523,3.8608499918681516,-1.2993856431119948,1.1195448653632658,3.2783083631987764,9.064138260786782,9.0,3.0,2.4293025378091095
10-31,6.031380530079555,1.8435570735553328,1.9294029468460407,0.3150235221807194,1.1049687683275884,0.10298747492104464,-2.352130080988264,2.756603823938406,-1.4753337119058116,-0.7477699142488372,3.9901813116844105,5.236594139726249,9.0,3.0,1.5612888236763698
11-01,4.549224447275823,0.14326727285807578,3.081684515056233,-4.720149263521669,1.0128887263812076,1.7312402574612036,-4.828143291735023,3.4461271034053396,-1.3729774514859572,-1.3194109252786297,3.744632142838775,3.3531154680293267,8.0,4.0,0.7351249167737254
11-02,4.7548026886410755,-1.0148305660978933,0.7441345589393229,-3.103774985923226,0.6283113606324376,2.368075189556397,-3.143903710580895,4.000837544643229,-2.442899980043404,-1.4807833038284208,1.7111808325640927,5.349400823859201,7.0,5.0,0.6975458710301595
11-03,5.616149675729,-3.056360813217931,-4.391856050312861,-4.702950163804685,1.142361836550399,1.7312402574612036,-2.1971609222325297,4.784143400945899,-2.7692031101069863,-1.0441371523999776,1.2793862521074182,5.136205339063567,6.0,6.0,0.12731821248187628
11-04,5.876589247074274,-4.008931846684454,-4.21523821758011,-5.665942541689263,0.7787924446462597,3.3409635947872656,-2.113854631041022,3.6841044305435964,-2.601637678914652,0.5883497124014576,1.088805916686776,7.300904866293608,7.0,5.0,0.33774210804364474
11-05,2.1814571664836557,-4.718712212787097,-4.674439192791556,-5.327794400953628,0.7202743656797789,1.5587529976019185,0.9786090757072634,2.085929974573436,-2.0436752548044277,0.6718309536294699,0.023269298575023398,3.496900688365522,8.0,4.0,-0.42063304506005345
11-06,2.825977742366145,-3.9563544090338123,-7.483983206292059,-2.615576268077812,1.0608310853817324,2.1693758875789575,1.1800856925250893,2.3393045460640587,-2.205037746165765,0.31568834496256537,-0.7609372136163269,3.147909283961615,7.0,5.0,-0.3318930216954677
11-07,-0.5949440098124397,-1.9858068672221743,-6.33971668480169,-0.49145882789879725,1.4050480798421594,1.7848712144028462,2.398541609404731,0.8824497801669903,-1.270890598344989,-1.6991660936946213,-2.63241251466776,0.9771823225544108,5.0,7.0,-0.6305252158392777
11-08,-2.336918964939493,-2.2098722475686543,-9.226439268510472,3.241466345112739,0.3457681858262597,2.083926380581385,1.5865331779752503,1.5074379258072932,-1.0793919940899006,-2.6350594898955695,-1.913042030786786,0.9771823225544108,6.0,6.0,-0.8048674714944614
11-09,-2.7341754124637516,-1.1764753459094375,-4.387139505755471,3.4306916442973625,0.02195021229565303,3.004796049849286,2.762377474457549,0.9356497588479888,0.18206961257175205,-1.728373515797033,-2.13438493932191,0.9771823225544108,7.0,5.0,-0.07048597036446672
11-10,-0.7269163229468462,-0.8661902807528472,-6.09081430060454,3.3566447787889793,0.6327752649811971,4.216392650896887,4.124394068241654,-0.2587455939695094,0.5808897088764774,0.4533393841994583,-2.8007611668675922,0.3140901338890272,7.0,5.0,0.24459152706102882
11-11,-1.0738502213570498,-2.8846186699488876,-8.416395040996614,3.5153994080467146,0.881486085508667,4.782674985892871,3.6598090126824308,0.8797413365274493,0.6849257076604433,1.3200974299632982,-3.022082111044485,0.43275658371411074,8.0,4.0,0.06332870888741256
11-12,-0.6349224357616955,-1.1327721695116444,-7.40741297049695,4.782363130848174,0.9121059299104891,5.41356080680675,5.953169880055257,0.5899396383989557,0.6246149147883369,1.761580178507493,-1.9250325274657305,2.3731479401700417,8.0,4.0,0.9425285263541232
11-13,-0.8521339168471066,-1.2381486618511974,-9.702150622485533,4.519961866052732,-0.233450605397579,4.721447751680441,4.417476658529067,1.5780237154644752,1.3350520609255583,2.8228049959670836,-1.979815627643541,0.3140901338890272,7.0,5.0,0.47526314569028566
11-14,-2.6399362929605865,1.1955267955140847,-9.867846782162292,4.967727642270836,-0.2430707807343626,5.338904515255742,3.355769255108808,2.1196313664298083,1.294777746876772,0.42533512727458095,-0.030832845626943,-0.6979828088078155,7.0,5.0,0.43483357820321933
11-15,-1.2526819831345986,0.9918802915228623,-5.814652022912397,5.45529240577338,0.12424295374143451,4.675019661453236,4.236334938019218,1.1504829324524668,3.366283510754365,0.5202504289939675,0.16190478991376403,-0.6979828088078155,9.0,3.0,1.0763645914808238
11-16,-3.5395220113104835,2.8534718941157755,-2.1529960652732605,5.151762674886958,0.2592831921718555,5.356070652519845,4.010923804680877,1.6734687649473852,2.5638833819584153,0.4366417905687245,0.6090575160208302,-0.6979828088078155,9.0,3.0,1.3770052322065922
11-17,-3.079249548982497,2.411489578624699,5.743590786925748,1.5176361369678575,-0.059608006043997665,6.1648866838654035,3.811234027533198,-0.7088505191416045,2.717716645687637,-0.055739092283508575,0.20899780738327425,0.0,7.0,5.0,1.5560087083780172
11-18,-1.0014997089789153,2.8925589042561626,4.72934646823807,2.1118691705646326,-0.3205456621299985,5.17123544352993,2.3698002329266528,0.7713935801265914,1.8203613741777744,0.7098776286488659,-0.062093940801464687,0.0,8.0,4.0,1.5993586242131919
11-19,1.7671341177644624,3.105438690182212,6.746436659766738,3.395826591537983,-0.5989278137826105,3.8652859179338446,1.8701287827935649,-0.2710331860766464,1.685923189069992,1.4909035539314246,-0.22567570905275025,0.0,8.0,4.0,1.9026200661723511
11-20,2.1469847290515944,3.1430029013863026,5.453496307655257,-0.5043828328406648,-0.29725491316030633,4.747823660992689,0.6834949841835138,-0.9974848791949757,0.9057215983729697,3.1555881458485215,1.1409808494206375,0.0,8.0,3.0,1.631497545976295
11-21,0.03303130968732232,3.541593566305628,3.5819498257878566,-1.1969100412498315,-0.2022467243228438,3.542949295861476,-0.1234145503437211,-1.7022632471792951,1.8883984916694605,3.391823519182517,2.649113583772875,0.0,7.0,4.0,1.2836687524309538
11-22,-1.5774435715757738,4.2698074843224445,4.579079029851294,-3.2730652034783163,-0.4536768761409167,3.44440892762886,-1.1217623535108885,-0.6563234678957292,1.2676688282086457,-0.5246861622602679,2.858251175021257,0.0,5.0,6.0,0.7343548175142174
11-23,-0.2484228362507663,5.0406490720766435,6.870321370376392,-3.2730652034783163,-0.6777838282855334,3.6386389277882314,0.4624366440196916,-1.4238153188598441,0.0774627467027814,-0.5246861622602679,1.0147212440392035,0.0,6.0,5.0,0.9130380546556847
11-24,0.7956296077659097,3.3063966856657094,6.165113184823101,-2.9717085877821887,-1.3257804369530302,3.2667707336365206,-0.4762358416739644,0.050929977187207945,0.0774627467027814,-0.5715290562833134,2.547093603992489,0.0,7.0,4.0,0.9053452180901017
11-25,-3.1101257845203034,2.768035052406239,6.165113184823101,0.1623220109798751,1.9431398890780893,3.3387195134059335,-3.6107047050828767,0.050929977187207945,0.2926275584309447,-1.465162500188409,3.5838181765642325,0.0,8.0,3.0,0.8432260310903362
11-26,0.18505517866022195,2.768035052406239,2.5038327188308096,-1.3512394764237523,0.8462330749503246,3.872570959554643,-4.588868431978048,0.8453878880370426,0.22392742646087693,-3.9813938267018156,2.459008210807649,0.0,8.0,3.0,0.31521239788368255
11-27,0.18505517866022195,2.555101928486272,0.09681012261782826,1.170863203424159,1.499873352462119,0.9191753331196907,-4.588868431978048,2.0722312766330404,0.06038621111967158,-2.261747523672974,2.4760313648916066,0.0,9.0,2.0,0.34874266798029896
11-28,0.016820864340840243,2.810743178292224,1.6559439471290596,2.5111959106347985,-0.9377523432093736,0.9191753331196907,-4.126041049822687,1.9637507731196244,-1.4349896510508324,-4.464284193759075,2.6226296460828333,0.0,7.0,4.0,0.1280993679064253
11-29,-0.6605680616543975,3.831889265328929,-0.751336369127356,1.5335235771256004,-0.9377523432093736,0.44374505738918696,-4.8176058115295985,0.6588966201976094,-0.9664360621975174,-4.842453296505367,2.6226296460828333,0.0,5.0,6.0,-0.32378898150828767
11-30,-1.5723842249778248,3.1071340149722366,-7.8539814917791775,0.22481445349706897,-0.7183973209466882,1.2264199961695115,-7.100166381533529,1.1540471008380162,-0.5161277196740591,-5.673693020033097,2.8795991451110963,0.0,5.0,6.0,-1.2368946206963705
12-01,-0.36857300345904664,1.8074525852793308,-7.917713647313055,2.898434782736511,0.14136282591581567,-0.022740329043411417,-9.23974058029769,0.9670378734353622,0.2752685546875,-6.862554162912882,3.9324123227046934,0.0,6.0,5.0,-1.1991127315222394
12-02,-2.958676794997928,2.326426392464408,-5.822950094815684,3.4102680890410744,-0.41003771526104116,-0.4676558936346633,-6.889896576225135,1.6533184653881565,-1.1268796202957112,-9.57383140399384,3.3907185122123664,0.0,4.0,7.0,-1.3724330533431663
12-03,-0.5229442976967036,1.5834292893111994,-6.197009239178103,6.919103164123151,0.40569641400042344,-3.046243299718348,-4.071045481300433,0.18716887657581363,-3.285888133717519,-10.405430629573633,3.9699819253488506,0.0,5.0,6.0,-1.2052651176521083
12-04,-1.8556044390515627,2.618759519900128,-6.303039502302959,7.596005853656031,0.3594595391947106,-0.6523946022083975,-5.727397519312523,0.11446473683472425,-2.1461476229884546,-9.883667636135776,3.005259065795299,0.0,5.0,6.0,-1.072858550551565
12-05,-1.7712602452422983,1.8536731563974385,-5.317169873034313,9.821093090015912,1.8625476584887872,-0.26546009685136607,-4.759525628583829,-0.07297716447086773,-0.5338868175714157,-9.40021122456755,0.3949783803869671,0.0,4.0,7.0,-0.6823498970860448
12-06,-3.4642435434565586,2.5118950546621144,-7.974226471637788,6.097101760569502,-1.4090593697312004,-0.26095646782573695,-6.870928488170673,0.0,0.10316836016360346,-9.706523468557092,-0.6760345088570308,0.0,3.0,8.0,-1.804150595236738
12-07,-4.413297171393323,2.3190913646852414,-4.815547720267367,7.499431037103367,-0.7990125900046722,1.8369227214001427,-9.035202892847046,-2.655793529628838,0.0430467029798512,-7.051750523942318,-1.0102559002778688,0.0,4.0,7.0,-1.5068640418494026
12-08,-1.0475710375183962,3.2007843254058734,-0.5720467019956228,5.616957548099626,-0.7609301882825842,2.2202710373446104,-5.677256456324876,-3.6925011099507214,0.20661629269761356,-7.290261077516089,-0.422895005540868,0.0,4.0,7.0,-0.6849026977984529
12-09,-0.9682345934534833,2.9461690182769686,-2.166502799363665,7.850288786124096,-0.04823255762231509,1.7029632221989202,-2.825031242586206,-3.5777617679248883,0.4132260173905002,-6.582877727143079,-0.38498867829423167,0.0,4.0,7.0,-0.30341519353311525
12-10,-0.28877524499239576,1.9156180489193277,-0.43816086284213873,7.850288786124096,-0.3911751181161802,3.8109755084479597,-2.146613073441544,-2.899758735425689,0.4132260173905002,-6.582877727143079,0.0,0.0,4.0,7.0,0.10356229991007145
12-11,0.6115179495214641,2.4490836448191393,-0.43816086284213873,6.168388061044777,1.6981099172422658,3.665556304249704,0.030375434029971574,-2.899758735425689,0.43036667127442346,-6.9767454754925895,0.5262739471853622,0.0,8.0,3.0,0.43875057130055756
12-12,-1.3928991161915614,2.637948113838987,-0.1942642442073202,7.904467618456736,1.95116943511163,4.8686543659536525,1.0429311026908437,-3.842106869346217,0.2582004005973643,-8.221758091846898,-0.16474556819226607,0.0,6.0,5.0,0.4039664289054124
12-13,-0.6576718291164726,2.826091643767734,2.5745437323442757,7.0728855723364985,2.489603434992703,5.608692735134055,2.5039849963356087,-2.4923440167951423,0.025798744076196315,-1.641991475705715,0.39688393435907365,0.0,8.0,3.0,1.5588731226440682
12-14,-0.20144188769432664,2.0356478924922508,4.478325604133831,3.5698475740576345,2.761492634612349,5.629108160996349,2.6496623656610216,-0.3338546686681656,2.292040705561482,-0.8764004996496565,0.21715838004531177,0.0,8.0,3.0,1.851798855129007
12-15,1.6390692878912754,2.087060264574851,3.225024929845787,3.3694584828795935,3.0199956823014205,5.820629535254926,1.3513498033044509,-1.510510544875943,1.2018212306228548,2.1557363372772125,0.08248396059397146,0.0,10.0,1.0,1.8701765808058666
12-16,0.134773972762947,3.2656454457877655,2.3191184294155684,2.1935083203501975,2.865057470330343,6.796869394917418,0.35792464088065873,-1.3203760686350563,0.30903993214298886,4.229935903154996,0.04500604582743892,0.0,10.0,1.0,1.7663752905779389
12-17,1.7688666210650854,2.6125127326451376,4.42082814547107,2.1935083203501975,2.220682818219862,4.387856797916373,2.326510165724296,-1.6372695486818565,0.30903993214298886,4.229935903154996,0.1575211603959829,0.0,10.0,1.0,1.915832754033678
12-18,2.661728124677866,2.196886942446496,4.42082814547107,0.17332006995357924,1.719109392571162,2.0072559275513937,4.265262315995286,-1.6372695486818565,0.887600010053597,4.474964198824277,0.9554651594613294,0.0,10.0,1.0,1.8437625615270168
12-19,1.9036405938280563,1.7769801918713146,5.786404017100269,3.0587360199172355,2.2988508521381052,1.6230724795762246,3.3306804664292233,-0.9547830085190355,0.43657091042866225,5.6734841644357985,0.8015636228837917,0.0,10.0,1.0,2.144600025840804
12-20,1.73810126302789,2.034018188033766,3.245896698781296,3.002528740872928,1.6028727650653236,0.8892331546357108,2.545848823890214,-0.9286589632541775,1.5593189304157837,4.543222180807854,0.7641053490803634,0.0,10.0,1.0,1.7497072609464128
12-21,0.5295547803942549,2.6095159059673936,3.477442421242772,3.8181222868293054,2.19340060201658,0.6705549789730628,1.6089823343461338,-0.6509215187213075,1.7006532656828832,5.28075781065716,0.35958571172034753,0.0,10.0,1.0,1.7998040482590485
12-22,2.854784795044368,0.9469026880470167,3.446661589944297,2.389027416590683,1.8206850836011066,-0.08718928175797933,-0.8166629841104528,2.3337069203324745,1.692190505699937,5.988793215728559,-1.0714197096702456,0.0,8.0,3.0,1.6247900199541474
12-23,2.2097628068522632,1.3110827820209274,2.098476965400848,1.8221375730206442,2.064306840458371,-3.3962823258388006,-1.9631780623587676,2.652404945717737,1.6160450314367854,2.419110663521355,-2.5599444852579785,0.0,8.0,3.0,0.6894935612477822
12-24,3.2797539418073782,1.0488735003670566,1.5709307378008848,3.0329072133908865,-0.03199528435726085,-3.6738001661882382,-4.063437461742308,1.4598521825347803,1.0130266698222539,4.313887528784908,-3.4472051084379736,0.0,7.0,4.0,0.3752328128151972
12-26,2.9225511164167686,0.6937821072260315,0.9438450113203088,3.914989946260726,0.7336250491861792,-3.4253296854523816,-3.5555097561662308,-0.27199722375908003,2.055258099998021,1.780946925094322,-3.854837479225779,0.0,7.0,4.0,0.16144367590824057
12-27,3.361884681212593,-0.8503364320179887,0.4387557672811256,5.855727819449886,0.8919630709442281,-3.8138659408520215,-4.881891365752133,0.5189413678447502,1.463376196134435,0.0788195379849138,-3.815897326331337,0.0,7.0,4.0,-0.06271021867512905
12-28,3.174087586190536,-1.537898540695862,3.889016134035018,6.152756240294623,0.527788036922613,-1.12232546383055,-5.725477600189213,1.7844187484120269,-0.4802311599885529,0.2660065448930111,-3.512183146340566,0.0,6.0,5.0,0.28466311497525704
12-29,3.7613483841528765,-2.657564717318977,3.013857570830676,4.278633701637784,0.873088739009131,-2.41882427793867,-6.490211837880394,1.3660351157440398,-0.18008668499570737,-0.7192151299838362,-3.311048022370363,0.0,5.0,6.0,-0.2069989299261202
12-30,2.5809690321593455,-1.01192183625305,3.5912247865465243,4.528460164681259,1.1071469147230018,-2.3911618396063536,-4.88855525884796,1.9352118082786418,-1.1920070168707693,0.40915554086906425,-3.7707877032906776,0.0,6.0,5.0,0.07481121603241873
12-31,4.766553191785116,-1.2769516098242804,1.7090020249611593,4.750175728411177,-1.0119350292185332,-1.832674700492746,-6.200963410884509,1.428125108809461,-1.1920070168707693,-0.3632463620311716,-3.3044453119667776,0.0,4.0,7.0,-0.21069728227682286
