,2009,2010,2011,2012,2013,2014,2015,2016,2017,2018,2019,2020,ups,downs,end_day_sum,avg
01-02,-1.2756748199462855,0.3541641235351598,-0.705902099609375,1.2424163818359304,0.7011337280273366,0.7882156372070312,-1.1028442382812358,-4.514930725097656,1.51312255859375,0.16131591796875,-0.6658630371093892,-0.8440856933593466,6.0,6.0,01-17,-0.3624110221862775
01-03,-1.1706619262695348,0.3541641235351598,-0.9033889770507812,1.0353507995605398,0.6085357666015625,0.5777206420898438,1.5839233398437642,-4.514930725097656,0.9994277954101562,-1.4707183837890767,4.410125732421875,1.0305480957031534,8.0,4.0,01-18,0.2116746902465838
01-04,-1.1706619262695348,0.8915176391601598,-0.12185287475586648,1.1820335388183523,-0.14993667602539062,1.4241561889648438,1.5839233398437642,-4.036781311035156,-1.2142410278320312,-2.8180694580078125,2.5379867553710795,1.6194534301758239,6.0,6.0,01-19,-0.022706031799314037
01-05,-0.7272891998291087,0.5739917755126953,-0.2983131408691406,2.3122787475585938,0.38364410400390625,1.4241561889648438,1.2344665527343608,-5.89422607421875,0.9994049072265625,-4.193893432617173,2.2195281982421875,1.6194534301758239,8.0,4.0,01-20,-0.028899828592933236
01-06,-1.4001293182373047,1.0747127532958984,-0.3403472900390625,2.217376708984375,0.38364410400390625,0.06717681884765625,3.3811416625976562,-4.478141784667969,1.0274124145507812,-4.004119873046875,2.2195281982421875,-1.648872375488267,7.0,5.0,01-21,-0.12505149841308474
01-07,-1.3768005371093768,0.5129280090331996,0.1974792480468679,2.4028778076171875,1.640453338623054,0.537384033203125,1.9243240356445312,-1.5908126831054688,0.31755828857421875,-0.2941436767578125,6.8708953857421875,0.40241241455078125,9.0,3.0,01-22,0.9620463053385412
01-08,-1.450688362121582,0.5617790222168004,0.08823776245117188,1.4796905517578125,1.1024055480957031,0.23736572265625,-0.839637756347642,-0.8919830322265625,1.074119567871108,-0.26567840576171875,4.2074432373046875,-2.4733428955078267,7.0,5.0,01-23,0.2358092466990168
01-09,-1.1084356307983398,0.5902671813964844,-0.5126113891601562,1.9801139831542969,0.6041297912597656,-1.3301010131835938,0.48107147216795454,-0.8551712036132812,2.475158691406264,-1.3663253784179688,2.7502975463867188,-2.4536972045898295,6.0,6.0,01-24,0.10455807050069292
01-10,-0.8245172500610352,-1.0502758026123047,-0.18067550659180398,0.9447517395019531,0.7232017517089844,-1.5316390991210938,0.807823181152358,-2.326416015625,3.5959854125976562,0.607269287109375,-0.5790023803710938,-1.8942413330077983,5.0,7.0,01-25,-0.14231133460998358
01-11,-1.2795581817626953,-0.7164726257324254,0.5378227233886648,0.8196525573730469,0.57769775390625,-0.26869964599609375,2.3146209716797017,-1.186187744140625,4.8289031982421875,1.2999191284179545,0.1833648681640625,-3.0033187866210795,7.0,5.0,01-26,0.34231201807657907
01-12,-1.3106775283813477,0.101776123046875,0.23949432373047586,0.612579345703125,1.0495414733886648,-0.38962554931640625,0.7079772949218892,-3.6873550415039062,3.9322280883789205,0.730621337890625,0.08683776855470171,-2.905181884765625,8.0,4.0,01-27,-0.06931535402933402
01-13,-1.1084403991699219,-0.6106185913086009,0.9454002380371094,0.8196449279785156,1.3008804321288991,-2.7587738037109375,0.37667083740234375,-0.43218994140625,4.445922851562514,2.182365417480483,0.2509002685547017,-3.3468475341796875,7.0,5.0,01-28,0.17207622528076408
01-14,-0.4433755874633789,-1.335231781005863,0.6932907104492259,0.5953254699707031,1.402332305908196,-3.4484329223632812,-0.4583740234375142,-0.708038330078125,4.772857666015639,3.387382507324247,1.4861145019531392,-6.840919494628906,6.0,6.0,01-29,-0.07475574811299317
01-15,-0.19445705413818004,-1.0339946746826172,0.6722869873046875,0.340801239013679,-0.061714172363274145,-3.7037200927734375,-2.024147033691392,0.8275833129882812,5.4920654296875,4.5829238891601705,2.60552978515625,-6.585739135742216,6.0,6.0,01-30,0.07645153999328762
01-16,-0.20223140716552734,-1.9214344024658203,0.3067359924316406,0.4400215148925781,0.8510932922363281,-2.00189208984375,-3.9212188720703125,1.1034317016601562,5.6508331298828125,2.7801284790039205,1.8721237182617188,-3.9161148071289062,7.0,5.0,01-31,0.08678968747456987
01-17,0.5094976425170881,-2.124980926513672,0.016807556152350855,0.6169013977050781,-0.7717018127441477,-2.8124847412109375,-2.9136886596679688,0.4505615234375,5.660194396972656,3.6530380249023438,-2.229187011718764,-4.976112365722656,6.0,6.0,02-01,-0.4100962479909274
01-18,-0.0855598449707049,-2.259317398071289,0.45800018310546875,-0.13804244995117188,-1.1024055480957031,-3.045379638671875,-1.1119308471679688,3.2367630004882812,3.100982666015625,0.3036346435546733,-0.36669158935548296,-2.424255371093736,4.0,8.0,02-02,-0.2861835161844903
01-19,-0.7856197357177752,-1.9173603057861293,1.3529739379882812,1.3373336791992188,-1.1200447082519531,-2.3870315551757812,-2.3963165283203125,3.6689453125,2.858123779296861,0.27516937255857954,0.6754989624023153,-2.7285079956054545,6.0,6.0,02-03,-0.09723631540934585
01-20,-0.8206281661987322,-1.2985916137695312,1.5924644470214844,0.8369102478027344,-2.160755157470703,-3.42156982421875,-2.010528564453139,-0.4413604736328125,1.4570846557617045,1.8502426147460795,1.051856994628892,-5.937950134277315,5.0,7.0,02-04,-0.7752354145050074
01-21,-1.3456811904907209,0.04478073120117543,1.260528564453132,1.0914344787597656,-0.9745559692382884,-5.880271911621094,-0.5128479003906392,2.933319091796875,0.2989044189453125,0.7970199584960795,1.3703002929687358,-4.465736389160142,7.0,5.0,02-05,-0.4485671520233174
01-22,-1.0967636108398438,-0.28902244567870383,0.7731246948242188,0.6341514587402415,-1.688934326171875,-4.442680358886719,-1.77001953125,1.7930908203125,0.31757354736328125,-1.1101684570312358,1.843177795410142,-3.562797546386733,5.0,7.0,02-06,-0.7166056632995605
01-23,-1.0656442642211914,-0.7612438201904261,0.9622077941894531,1.2467384338378906,-2.2225074768066406,-4.3307037353515625,-0.1633758544921875,3.6781463623046875,0.653831481933608,-5.000411987304673,4.786468505859375,-1.3740692138671875,5.0,7.0,02-07,-0.29921364784240456
01-24,-0.9256324768066406,-1.3637313842773438,1.0672569274902273,1.0267257690429688,-2.491485595703125,-1.9615554809570312,-0.16791534423828125,4.2206878662109375,-1.7559738159179688,-4.725273132324219,3.7442398071289062,-0.932403564453125,4.0,8.0,02-08,-0.35542170206705787
01-25,-0.4628181457519549,-1.115407943725586,1.0546379089355398,0.7980842590332031,-2.592937469482422,-2.67364501953125,1.1573257446289062,1.6183853149414062,-0.999382019042983,-5.768981933593764,2.5090255737304688,1.8648223876953125,6.0,6.0,02-09,-0.38424094518026025
01-26,0.10502147674560547,-0.9322242736816406,0.8151321411132812,1.1992912292480398,-0.7364273071289062,-1.9123077392578125,1.3796997070312642,-2.6942520141601562,-1.6345367431640625,-6.9645233154296875,2.3160400390625,1.3740768432617188,6.0,6.0,02-10,-0.6404174963633213
01-27,0.05055618286132635,-0.1424789428710973,1.0798454284667969,1.1000709533691406,-0.8951950073242116,-0.2910919189453125,0.3903045654296875,-1.6643829345703125,-1.793304443359375,-5.1617279052734375,1.1097717285156108,-0.34351348876951704,5.0,7.0,02-11,-0.5467621485392251
01-28,-1.369016647338869,0.3012428283691442,1.3697738647460866,0.9231910705566406,-0.4938926696777344,0.6717758178710938,2.9499893188476562,-0.6896591186523438,-1.8026657104492188,-8.795783996582031,1.1194381713867188,-3.08184814453125,6.0,6.0,02-12,-0.7414546012878422
01-29,-0.7856245040893555,0.43557929992676137,0.9285812377929688,1.1043739318847656,-0.7540817260742188,0.8777694702148438,1.1391830444335938,-3.475860595703125,-1.774658203125,-6.8316650390625,0.231597900390625,-1.4427719116210938,6.0,6.0,02-13,-0.8622980912526446
01-30,-0.08556461334228516,0.09362220764160156,1.3613624572753906,0.5867042541503906,-1.6669120788574219,0.48813629150390625,2.4235687255859375,-3.9080429077148438,-1.3917083740234375,-4.1464385986328125,2.470443725585966,-0.7361221313476562,6.0,6.0,02-14,-0.3759125868479387
01-31,-0.050556182861328125,0.09362220764160156,1.72271728515625,0.6470909118652415,0.546794891357429,1.522674560546875,2.037780761718764,-3.9080429077148438,0.747222900390625,-3.9566802978515625,2.3642807006835795,2.4733200073242045,9.0,3.0,02-15,0.35335206985473633
02-01,-0.050556182861328125,0.28902626037596946,1.0420265197753906,-0.14667510986327414,-0.6394042968749858,3.9813766479492188,2.037780761718764,-5.811485290527344,0.9433517456054688,-1.2334899902343608,2.045837402343736,1.0011062622070312,7.0,5.0,02-16,0.2882412274678572
02-02,-0.22168540954589844,0.1709690093994105,1.3445625305175781,0.30626678466796875,0.07497406005860086,3.9813766479492188,4.220748901367202,-1.1586380004882812,1.2341156005859233,0.6736984252929545,1.5729598999023295,1.0011062622070312,10.0,2.0,02-17,1.1000378926595031
02-03,-0.30724906921386896,0.8996505737304652,1.5359954833984375,-0.3063201904296804,0.07497406005860086,4.639717102050781,4.479461669921889,-1.3701019287109375,0.8978576660155966,4.117980957031236,1.5729598999023295,-0.8636932373046875,8.0,4.0,02-18,1.28093608220418
02-04,-0.8128614425659162,1.8840827941894531,1.4309463500976634,-0.1596374511718679,0.026470184326171875,5.221923828125,3.812286376953125,-0.30648040771484375,1.8505706787109233,4.117980957031236,0.9649963378906108,-2.3359146118164062,8.0,4.0,02-19,1.307863632837929
02-05,-1.1808671951293928,1.6357593536376953,1.3301162719726562,-0.1596374511718679,0.4497795104980469,4.1963348388671875,2.9695053100585938,2.2958221435546875,1.8505706787109233,4.4227828979492045,2.0265350341796875,-5.427581787109375,9.0,3.0,02-20,1.2007599671681704
02-06,-1.7487068176269531,1.9044380187988317,1.3301162719726562,0.4741973876953125,-1.1553611755371094,3.9202880859375,2.747131347656236,5.256736755371094,2.1037750244140625,2.5155258178710938,2.537994384765639,-4.7503662109375,9.0,3.0,02-21,1.2613140741984052
02-07,-1.80314254760742,2.027643203735355,1.6472282409667969,0.6185226440429688,-2.5954627990722727,2.299072265625,4.580665588378906,4.970588684082031,2.5823211669921733,1.6303024291992188,4.718925476074247,-3.032775878906264,9.0,3.0,02-22,1.4703240394592285
02-08,-2.0638513565063477,2.179601669311527,1.6700515747070312,0.4067230224609375,-2.99676513671875,1.6765670776367188,4.243858337402344,5.8382720947265625,3.0890350341796733,5.473915100097656,4.709259033203139,-1.3446273803710938,9.0,3.0,02-23,1.90683658917745
02-09,-2.3640613555908203,1.4087333679199254,0.4686470031738281,0.15172958374023438,-3.2040023803710938,2.4358978271484375,4.762702941894531,5.612281799316406,2.8828582763671733,3.509796142578125,4.844375610351577,-0.9996261596679688,9.0,3.0,02-24,1.6257777214050295
02-10,-2.264854431152342,0.9139270782470703,-0.17977523803710938,0.6693992614746094,-3.8373565673828125,2.9391326904296875,4.049980163574219,3.582733154296875,2.499908447265611,1.9821701049804688,5.6876220703125,-1.4431838989257955,8.0,4.0,02-25,1.2166419029235815
02-11,-1.7001667022705096,0.9854717254638707,-0.5411300659179688,0.5615615844726491,-2.845256805419922,1.7817153930664062,4.186492919921875,6.233856201171875,2.2476959228515483,2.2107696533203125,6.957344055175781,-6.07147216796875,8.0,4.0,02-26,1.1672401428222638
02-12,-1.726546287536621,0.9325542449951207,-0.58734130859375,0.7352218627929688,-2.461090087890625,2.5239639282226562,1.5028533935546875,3.9258346557617188,2.0507659912109375,3.7348098754882812,5.0213851928710795,-12.03314208984375,8.0,4.0,02-27,0.301605780919392
02-13,-1.4504070281982422,0.5010433197021484,-0.841022491455071,0.5051307678222585,-2.579978942871101,2.9260406494140625,-0.19452667236328125,2.2338638305664062,2.7165451049804688,3.251159667968764,3.9273223876953267,-10.700614929199205,7.0,5.0,02-28,0.024546305338544627
02-14,-0.7386713027954119,0.07392692565917969,-0.21527099609375,1.2980461120605398,-1.6545372009277344,2.1781234741210938,0.2230224609375,3.4615554809570312,1.2002944946289062,-0.5334091186523438,5.213768005371108,-10.396347045898423,7.0,5.0,02-29,0.009208440780641277
02-15,-0.9519786834716797,0.27105712890625,0.24522781372070312,1.2980499267578054,-1.826507568359375,3.2126617431640625,0.3003997802734375,4.523139953613281,0.872093200683608,-3.5719757080078125,3.4284820556640625,-9.591545104980455,8.0,4.0,03-01,-0.1492412885030093
02-16,-1.1020803451538104,0.6160316467285192,-0.4058952331542969,-0.06512451171875,-0.20372772216796875,3.464263916015625,0.09102630615232954,3.01849365234375,1.4253387451171875,-3.5434036254882812,3.7951889038085795,-15.0128173828125,6.0,6.0,03-02,-0.6602254708608014
02-17,-1.5049962997436523,0.3244438171386719,-0.6088409423828125,-0.3776969909667969,-0.20372772216796875,5.319953918457031,1.1469573974609375,4.227760314941406,0.8627090454101705,-2.819488525390625,3.6013412475585795,-14.165122985839844,6.0,6.0,03-03,-0.3497256437937419
02-18,-1.694610595703125,0.34087371826171875,-0.9005775451660156,-0.3125801086425781,-0.13729095458984375,4.978462219238281,-0.7737350463867188,4.28314208984375,0.2719421386718892,-4.086349487304702,4.3670578002929545,-13.317436218261719,5.0,7.0,03-04,-0.581758499145509
02-19,-0.9914855957031214,0.18891525268554688,0.40166473388671875,0.2995452880859375,0.20816802978516336,5.8995513916015625,-0.07282257080078125,3.4154586791992188,-0.5813903808593608,-4.905517578125,3.0100936889648295,-14.410736083984375,7.0,5.0,03-05,-0.6282129287719718
02-20,-0.6912755966186488,0.3572978973388672,1.13311767578125,0.23007583618164062,2.0860633850097585,4.84814453125,-0.5916671752929688,2.4092788696289062,-0.881446838378892,-2.5146865844726562,1.444190979003892,-11.236831665039062,7.0,5.0,03-06,-0.28397822380065946
02-21,-0.06320095062255682,0.3449859619140625,0.6384468078613281,-0.15195465087890625,2.378376007080078,4.34490966796875,-0.5233993530273438,3.3046646118164062,-1.6879119873046733,-0.5238952636718608,0.40709686279296875,-10.793273925781236,6.0,6.0,03-07,-0.19376301765441525
02-22,-1.027036666870119,0.5010452270507848,0.19449234008789062,-0.6034393310546875,1.3862762451171875,4.951484680175781,-0.47333526611328125,5.3262176513671875,-1.903572082519517,-0.8001251220703125,-0.8626251220703125,-7.205360412597656,5.0,7.0,03-08,-0.04299815495808786
02-23,-0.6557207107543945,0.8624553680419886,0.9640007019042969,-0.7163162231445384,2.280925750732422,5.2210845947265625,-2.0571975708007812,7.8462371826171875,3.9665451049804545,-2.3241653442382812,-1.7155685424804688,-12.439353942871094,6.0,6.0,03-09,0.10274386405944617
02-24,-1.1771430969238281,0.34087181091308594,0.8878898620605398,-0.4862251281738281,2.289794921874993,5.189643859863281,-2.039031982421875,5.3816070556640625,3.3007659912109233,-2.3908462524414062,-2.4037399291992188,-13.622184753417983,6.0,6.0,03-10,-0.3940498034159378
02-25,0.2804594039916992,1.084228515625,0.26213836669921875,-1.0375633239746094,3.1180000305175852,4.2820281982421875,-3.6410980224609233,4.864692687988281,4.107185363769517,-2.0288772583007812,-2.6072921752929688,-12.045082092285156,7.0,5.0,03-11,-0.28009835879007916
02-26,0.5806722640991193,0.8870983123779297,-0.13953781127929688,0.0,2.258777618408196,1.9680023193359375,-4.851776123046861,3.8031082153320312,0.45009613037109375,0.11430358886720171,-0.16477203369140625,-7.008224487304702,7.0,5.0,03-12,-0.17518766721089638
02-27,0.73077392578125,0.5421237945556605,-0.8160171508789062,-0.0738067626953125,1.98419189453125,1.5815963745117188,-4.642402648925753,5.3077545166015625,-0.3376007080077983,1.09539794921875,-0.9886322021484375,-6.5252456665039205,6.0,6.0,03-13,-0.17848889032999468
02-28,1.133689880371092,0.37373924255371094,-0.3720741271972656,0.06945419311523438,3.038288116455078,-0.2740936279296875,-5.698333740234361,5.889305114746094,0.2344512939453125,3.4576797485351705,-0.6203308105468608,-7.372940063476577,7.0,5.0,03-14,-0.011763731638588274
02-29,0.0,0.0,0.0,1.3284492492675781,0.0,0.0,0.0,7.827789306640611,0.0,0.0,0.0,-8.220626831054702,2.0,1.0,03-15,0.0779676437377906
03-01,1.6985616683959943,0.7310390472412038,0.0422821044921875,0.4428138732910156,2.971851348876953,0.0673980712890625,-3.641120910644517,4.763130187988281,-1.4628524780273438,3.743431091308608,-1.3860473632812358,-15.189430236816406,8.0,4.0,03-16,-0.6015786329905164
03-02,1.1692390441894513,0.7762126922607386,-0.5115890502929688,0.5122833251953125,2.626392364501946,-0.9660415649414062,-4.455818176269517,5.012351989746094,1.5566177368164062,4.562599182128906,-0.02908325195311079,-10.960830688476562,7.0,5.0,03-17,-0.05897219975789255
03-03,1.240344047546385,0.6981830596923828,-1.7842445373535227,0.8943138122558594,2.9408531188964773,-1.1143264770507812,-2.0299148559570455,5.8246917724609375,1.8566741943359375,2.1717681884765625,-1.6283416748046875,-21.655540466308594,7.0,5.0,03-18,-1.0487949848175073
03-04,1.2047920227050763,1.2279682159423828,-1.2895736694336009,0.876953125,2.5289459228515554,-1.9006195068359375,-3.6774978637695312,3.8031387329101562,2.6631393432617188,1.4478530883789205,-1.2891082763671875,-24.97730255126953,7.0,5.0,03-19,-1.6151092847188313
03-05,2.5715484619140643,1.0719089508056605,-0.8456192016601634,0.8552436828613281,2.161346435546882,-0.7099075317382812,-2.6443634033203125,2.990814208984375,2.2692947387695312,2.0669937133789205,0.1938323974609375,-29.304481506347656,8.0,4.0,03-20,-1.6102824211120594
03-06,2.20023250579834,0.9651298522949219,-0.15221023559570312,1.7582321166992188,2.4005088806152344,-2.23760986328125,-1.0605010986328125,5.56622314453125,3.0850982666015625,-1.7621765136718892,0.33922576904296875,-28.121650695800767,7.0,5.0,03-21,-1.418291489283244
03-07,2.1686325073242205,0.4887332916259801,-0.025363922119140625,1.4673500061035156,2.453655242919929,-2.2061691284179688,-1.2061309814453125,5.10467529296875,4.491676330566406,-1.114463806152358,0.9498672485351562,-24.139480590820312,7.0,5.0,03-22,-0.9639182090759278
03-08,2.21207904815674,0.5667591094970703,-0.11417007446289062,0.5209617614746094,1.6254501342773366,-2.3095169067382812,-2.7854461669922017,6.812400817871094,-2.203628540039034,-1.3811721801757812,1.1534194946289062,-20.55157470703125,6.0,6.0,03-23,-1.371203184127807
03-09,2.0580244064331072,1.0472736358642578,0.016925811767578125,0.5947685241699219,1.4305648803711009,-2.4982376098632812,-1.4700927734375,6.978538513183594,1.23779296875,-3.524353027343764,-0.46523284912109375,-17.436798095703125,7.0,5.0,03-24,-1.0025688012441003
03-10,1.702509880065918,0.965133666992184,0.7737197875976562,0.4558448791503906,-0.21702957153319602,-2.327484130859375,-0.5643692016601562,6.3969879150390625,2.025489807128892,-2.3908462524414062,1.2987976074218892,-29.05804443359375,7.0,5.0,03-25,-1.7449408372243242
03-11,1.4536495208740234,0.8788852691650391,0.3297767639160156,-0.056427001953117895,-0.8016471862792898,-1.9320602416992188,0.1410980224609233,4.4585037231445455,1.4722061157226562,-4.905525207519531,-4.468254089355469,-14.70644378662108,6.0,6.0,03-26,-1.5113531748453752
03-12,1.0033321380615234,0.5215854644775462,0.18602752685546875,0.24312973022460938,-2.3252296447753906,-1.9500274658203125,-3.295181274414091,4.707733154296875,1.8191452026367188,-6.648643493652344,-3.964256286621108,-4.130027770996094,6.0,6.0,03-27,-1.1527010599772165
03-13,1.5326547622680664,0.38605499267578836,0.35516357421875,0.47754287719727273,-3.3128929138183594,-2.02191162109375,-2.480484008789091,4.06158447265625,1.0408554077148438,-3.9434814453125284,-2.8786773681640767,-8.358627319335938,6.0,6.0,03-28,-1.2618515491485642
03-14,1.5563554763793963,0.08214378356933949,0.6764907836914062,0.8943023681640696,-3.6273536682128906,-1.873626708984375,-3.4681549072265625,3.8861923217773295,1.9598388671875,-2.9814071655273438,0.38770294189453125,3.2429122924804688,8.0,4.0,03-29,0.061283032099405776
03-15,2.279227256774906,0.6488971710205114,1.0908355712890625,0.49489593505859375,-3.2154464721679688,-2.49371337890625,-3.996101379394517,4.283134460449219,0.872077941894517,-2.2574920654297017,0.04846954345703125,7.2349395751953125,8.0,4.0,03-30,0.41581034660339294
03-16,1.5247564315795898,0.4599723815917969,2.1436347961425852,0.5166053771972656,-3.126873016357422,-2.8891372680664062,-3.240570068359361,3.6554107666015625,2.0160751342773438,-2.8766326904297017,-0.843231201171875,2.5430755615234375,7.0,5.0,03-31,-0.009742816289265358
03-17,1.1455411911010724,0.06160926818847301,3.7080001831054688,0.13891220092773438,-3.4014739990234375,-2.3140029907226562,-1.2607498168945312,2.307708740234375,1.2002716064453125,-1.2478103637695312,0.746337890625,3.2527542114257812,8.0,4.0,04-01,0.3614248434702551
03-18,0.7544698715209979,0.5380058288574148,3.5811538696289062,0.5339813232421875,-3.171154022216797,-2.021942138671875,-1.866058349609375,2.769256591796875,0.18752288818359375,-3.0957260131835938,1.8609848022460938,10.527137756347656,8.0,4.0,04-02,0.8831360340118404
03-19,1.7262153625488281,0.4599800109863246,3.1160926818847656,0.5817413330078125,-2.9718399047851562,0.6650009155273438,-0.2867431640624858,2.7784805297851562,-0.31882476806640625,-1.5431060791015483,3.217926025390611,3.2823333740234375,8.0,4.0,04-03,0.8922713597615569
03-20,1.880270004272461,0.23410034179687145,2.8116798400878906,1.628002166748054,-3.242023468017578,1.1322708129882812,-1.6020965576171875,2.4000091552734375,-0.45947265625,-5.324623107910142,3.3148422241210938,0.1675567626953125,8.0,4.0,04-04,0.2450429598490412
03-21,0.9756908416748047,-0.03285026550293324,2.7651748657226562,0.6685562133789062,-2.0240402221679688,0.961517333984375,-0.40508270263673296,3.8954086303710795,0.5626449584960795,-3.591033935546875,1.8803634643554545,7.284217834472656,8.0,4.0,04-05,1.0783805847167918
03-22,1.994821548461914,0.4189071655273473,3.5515785217285156,1.1808280944824148,-1.439422607421875,1.8197021484375,-0.8966064453125284,2.1692733764648438,0.4875946044921875,-0.4953155517578125,7.6474151611328125,8.112205505371094,9.0,3.0,04-06,2.0459151268005344
03-23,2.986309051513672,0.3572940826416051,3.4120445251464844,0.8812713623046875,-0.5181922912597656,1.8691329956054688,-1.297142028808608,2.1138458251953267,0.35634613037107954,1.247802734375,7.2887954711914205,7.816490173339844,10.0,2.0,04-07,2.209499835968018
03-24,3.0337066650390625,0.8912010192871058,3.268299102783203,0.1172027587890554,0.004428863525390625,2.04437255859375,-0.578033447265625,2.889274597167983,1.1346359252929545,-1.0858764648437358,7.6958694458007955,4.514434814453125,10.0,2.0,04-08,1.9941263198852555
03-25,2.3384828567504883,1.1335201263427734,2.946971893310547,-0.6468544006347727,-0.9566650390625,0.08985137939453125,1.1105499267578267,2.473876953125,1.1065063476562358,-0.24765777587889204,7.657104492187514,5.3029937744140625,9.0,3.0,04-09,1.8590567111969012
03-26,1.6156110763549787,0.5667667388916016,2.972332000732422,0.3820343017578054,-1.1471176147460938,0.9390716552734375,2.1983184814453125,2.473876953125,1.3596878051757812,-2.419410705566392,5.8542938232421875,1.3109664916992188,10.0,2.0,04-10,1.3422025839487717
03-27,2.3700819015502947,0.6940860748291016,2.8285789489746094,-0.6468467712402415,-0.3410186767578125,2.7678298950195312,1.4427871704101562,1.1169357299804688,2.0911026000976562,-2.190826416015625,4.07086181640625,6.002830505371094,9.0,3.0,04-11,1.68386689821879
03-28,2.3424329757690447,0.8912067413330078,2.5199241638183594,-1.1677970886230469,0.31888580322265625,2.1926956176757812,0.7464447021484375,2.2430877685546875,0.768913269042983,0.37148284912107954,3.0822296142578125,5.09600830078125,11.0,1.0,04-12,1.617126226425171
03-29,2.3700838088989276,1.1992225646972656,1.8392143249511719,-0.4992561340332031,0.2214508056640625,1.0019989013671875,1.7522735595703267,1.0246200561523295,0.27193450927734375,-2.209861755371108,1.9675827026367188,7.323661804199233,10.0,2.0,04-13,1.3552437623341878
03-30,3.199608802795412,1.166357040405277,-0.9174766540527344,-0.5470161437988281,0.2214508056640625,-1.572601318359375,2.2802276611328125,0.960014343261733,0.7782821655273438,0.9715728759765625,0.6590957641601705,11.088981628417969,9.0,3.0,04-14,1.5240414142608671
03-31,3.250967025756834,1.6140213012695348,-1.2430496215820312,-1.3631782531738352,1.5279769897460938,-2.5341567993164062,1.84332275390625,2.5292816162109233,0.9189300537109375,0.9715728759765625,0.290771484375,9.93572998046875,9.0,3.0,04-15,1.4785157839457177
04-01,1.8407573699951172,1.2361831665039027,-1.1965446472167969,-0.36902236938477273,0.9256477355957031,-3.6304855346679688,1.5929718017578267,1.0338821411132812,0.9189300537109375,1.69549560546875,1.3375625610351705,12.71536254882811,9.0,3.0,04-16,1.5083950360616052
04-02,0.9440803527832031,1.0636959075927734,-1.7842521667480469,-0.850902557373054,-0.9965248107910085,-3.9225311279296875,1.679466247558608,1.8831024169921733,-0.01876068115234375,1.6574020385742188,2.1614456176757812,7.639068603515625,7.0,5.0,04-17,0.7879408200581869
04-03,-0.04740715026855469,1.0636959075927734,-1.6912307739257812,0.5296478271484375,0.8105125427246094,-3.9719619750976562,1.3881912231445455,2.14154052734375,-0.6189117431640625,1.5145111083984375,3.7025375366210938,7.934783935546875,8.0,4.0,04-18,1.0629924138387057
04-04,0.06715011596679688,1.1540546417236293,-1.6235694885253906,1.9188613891601634,-0.6643524169921875,-4.1472015380859375,1.3881912231445455,2.9169540405273438,0.581390380859375,2.1812973022460938,3.2954635620117188,1.8235321044921875,9.0,3.0,04-19,0.7409809430440282
04-05,0.7268276214599609,0.9199619293212891,-2.0971031188964844,0.9463958740234375,0.2967414855957031,-2.0399093627929688,1.151496887207017,3.987762451171861,-0.2438049316406108,1.4478607177734375,3.334228515625,2.2375259399414062,9.0,3.0,04-20,0.8889986673990874
04-06,0.40291786193847656,1.0677928924560547,-1.3825836181640625,1.8320274353027344,0.4207611083984375,-0.6470184326171875,1.0878067016601562,4.126197814941406,-0.25318145751954546,3.6196136474609375,3.8770065307617188,6.584396362304673,9.0,3.0,04-21,1.7279780705769834
04-07,0.15404891967773438,1.215646743774414,-1.23883056640625,1.8320274353027344,4.0746917724609375,2.8711395263671875,1.265266418457017,5.040061950683594,-0.9845962524414205,3.410064697265625,2.8980636596679688,0.009857177734375,10.0,2.0,04-22,1.7122867902119931
04-08,0.30416107177734375,1.0513687133789027,-0.93017578125,2.9303741455078125,4.491004943847656,1.8152389526367188,0.418701171875,3.913909912109375,-0.7407836914062642,0.02857208251953125,5.2921142578125,-5.263565063476577,9.0,3.0,04-23,1.1092433929443333
04-09,-0.35156250000000355,0.7433528900146449,-0.7610626220703125,3.0562667846679688,4.82757568359375,0.30101776123046875,-0.882957458496108,4.0523757934570455,0.5438919067382812,-0.7048645019531108,2.868988037109375,-6.9983673095703125,7.0,5.0,04-24,0.5578878720601406
04-10,-0.414770126342777,0.6571083068847621,-0.16912460327148438,3.8724403381347727,4.490989685058594,2.8486709594726562,-1.4109115600585938,-1.310768127441392,0.140655517578125,-1.4097366333007528,2.6363754272460938,-3.5583267211914062,6.0,6.0,04-25,0.5310502052307164
04-11,-0.414770126342777,0.5585536956787074,-0.12685012817382812,3.2386245727539062,3.264190673828111,3.8102264404296875,-1.4518966674804688,1.3938827514648438,1.8285751342773438,-3.3433685302734375,2.0548248291015625,-3.5583267211914062,7.0,5.0,04-26,0.6044721603393537
04-12,-0.6636219024658203,0.9774665832519531,-0.13952255249023438,3.1865196228027344,3.8665199279785014,3.4777145385742188,-1.6885528564453267,-0.31385040283204546,5.4012451171875,-2.057464599609361,1.008033752441392,-3.114776611328125,6.0,6.0,04-27,0.8283092180887822
04-13,0.13035011291503906,0.5708694458007848,0.7187690734863281,3.6683998107910156,5.996860504150369,2.6734161376953125,-2.8582611083984375,-0.6277160644531108,5.682563781738281,-2.0193710327148295,0.1647644042968608,-0.9265441894531108,8.0,4.0,04-28,1.097841739654542
04-14,-0.039501190185546875,-0.22587966918945312,0.4693031311035156,3.1561203002929688,6.851657867431648,1.9859695434570312,-3.2360153198242188,-1.4030838012695312,4.772979736328125,-3.705329895019517,-0.9111099243164205,3.164054870605483,6.0,6.0,04-29,0.9065971374511737
04-15,-0.4740123748779297,0.07802200317383168,0.401641845703125,3.611968994140625,5.974720001220696,1.321014404296875,-2.9629364013672017,-2.178497314453125,4.772979736328125,-3.8767852783203125,1.2987976074218608,2.9669113159179688,8.0,4.0,04-30,0.9111520449320448
04-16,-0.7860736846923828,0.3121147155761719,0.9343948364257812,3.8029823303222656,5.522960662841797,0.6155624389648438,-2.0845184326171733,-2.5477294921875,5.5325164794921875,-3.6196060180664062,-1.2503280639648295,6.8800811767578125,7.0,5.0,05-01,1.1093630790710474
04-17,-0.46216392517089844,-0.114990234375,1.1627235412597727,2.9954986572265554,6.528335571289077,-2.6240158081054688,-2.0208282470703125,-2.7508163452148438,4.1728363037109375,-6.858207702636719,0.10661315917967329,2.5332107543945455,6.0,6.0,05-02,0.22234964370727658
04-18,0.3673744201660156,0.42713165283203125,1.3867988586425781,3.720500946044922,2.015167236328125,-1.31201171875,-2.5078048706054545,-4.9477615356445455,4.4260101318359375,-5.972358703613281,-4.255012512207031,4.711578369140625,7.0,5.0,05-03,-0.1616989771525065
04-19,0.33971595764160156,0.06983375549316406,0.418567657470696,2.687267303466797,1.5988540649414062,-1.31201171875,-2.785430908203111,-4.901603698730469,4.191589355468764,-3.743438720703125,-1.715576171875,-0.26613616943359375,6.0,6.0,05-04,-0.45153077443440576
04-20,0.32787322998046875,0.3572998046875,-1.0316581726074219,2.5613746643066406,0.7307853698730469,-1.7523422241210938,-1.424560546875,-6.064689636230483,2.653717041015625,-3.010002136230483,-1.715576171875,-3.0556259155273438,5.0,7.0,05-05,-0.9519503911336287
04-21,1.1297473907470739,-0.8296031951904226,-1.7969284057617188,2.6829185485839773,2.1835060119628906,-0.6110763549804688,-0.919380187988267,-1.5415573120117188,3.0569534301757812,-3.019523620605483,-0.465240478515625,-1.1631088256835938,4.0,8.0,05-06,-0.10777441660563121
04-22,0.667577743530277,-1.1417255401611293,-1.28533935546875,2.6872673034667898,3.866527557373047,-0.2111663818359375,-2.193756103515611,-4.2462081909179545,1.1158599853515625,-3.733909606933608,0.37799835205078125,-1.7742385864257812,5.0,7.0,05-07,-0.4892594019571928
04-23,0.9796314239501918,-1.560638427734375,-1.28533935546875,2.023048400878899,3.08258056640625,-0.37291717529296875,-1.743179321289034,-3.7015762329101562,1.7628936767578125,-2.362266540527358,-1.2891082763671733,-1.69537353515625,4.0,8.0,05-08,-0.5135203997294093
04-24,0.18565940856933238,-1.3347549438476598,-1.3487472534179688,2.1272354125976562,3.6494750976562784,1.9006576538085938,-0.5734710693359233,-3.7108230590820455,2.3911590576171875,0.4191131591796875,-2.1129913330077983,-3.883605957031264,6.0,6.0,05-09,-0.19092448552449368
04-25,0.7505283355712855,-2.237300872802738,-1.0424041748046875,1.2724952697753835,3.919685363769503,2.588104248046875,0.5461578369140767,-3.590362548828125,-1.8719406127929545,-1.1430206298828267,-1.4635772705077983,-7.0969390869140625,5.0,7.0,05-10,-0.7807145118713391
04-26,0.08315086364746094,-2.634746551513679,-0.8920097351074219,0.5678062438964915,4.7966232299804545,3.2665557861328125,2.18084716796875,-5.2733612060546875,-2.098968505859375,-0.18720245361328125,-3.6734848022460795,-5.559272766113281,5.0,7.0,05-11,-0.785338560740153
04-27,0.47878074645996094,-0.5456981658935547,-0.5228424072265625,0.37679290771485086,3.8709564208984233,2.4595489501953125,4.071250915527358,-3.5612335205077983,-2.8585052490234375,-0.4443817138671875,-2.9950027465820455,-3.447845458984375,5.0,7.0,05-12,-0.25984827677408795
04-28,0.31928062438964844,-1.2131996154785156,-1.512786865234382,0.5591201782226634,3.3285140991210938,2.6128158569335938,3.3268356323242188,-4.571876525878906,-1.4988250732421875,1.5463943481445312,-3.637413024902358,-0.548797607421875,6.0,6.0,05-13,-0.10749483108520626
04-29,0.0316009521484375,-1.2543773651123011,-1.7368621826171875,0.4674568176269531,3.4218521118164205,3.1832122802734375,1.3882980346679688,-2.3749313354492045,-1.1424942016601562,0.6472320556640625,-4.2603530883789205,-7.641639709472656,6.0,6.0,05-14,-0.7725838025410955
04-30,-0.660058975219723,-0.897079467773434,-1.5085411071777273,0.2317352294921804,2.959632873535142,2.1472320556640625,2.0814437866210938,-3.1595611572265625,-1.5095367431640625,-4.786048889160156,-5.601966857910142,-6.0243682861328125,4.0,8.0,05-15,-1.3939264615376785
05-01,-0.6482162475585902,-1.270807266235348,-1.6277008056640554,-1.453338623046875,5.419685363769531,2.0600662231445312,0.720573425292983,-3.094696044921875,-1.8295135498046875,-3.347015380859375,-3.3326568603515625,-3.2348785400390625,3.0,9.0,05-16,-0.9698748588561988
05-02,-1.6278533935546875,-1.6268501281738281,-2.1553001403808523,-1.9288139343261719,3.8157806396484375,0.9188003540039062,0.5021362304687358,-3.826622009277358,-1.029533386230483,-2.1370391845703267,-4.213111877441392,-2.0816268920898438,3.0,9.0,05-17,-1.282502810160322
05-03,-1.4200477600097692,-2.32651519775391,-1.2331771850585938,-2.120868682861328,2.1327590942382812,0.5997772216796875,2.054664611816392,-0.867774963378892,-1.312782287597642,-0.9730606079101562,-5.056350708007798,-0.36669921875,3.0,9.0,05-18,-0.9075063069661441
05-04,-1.5039710998535192,-0.7460346221923864,-1.020782470703125,-1.4566497802734375,2.363067626953125,-0.27031707763671875,3.3788299560546733,-1.0932388305664062,-3.7761764526367188,-2.3447036743164062,-3.757568359375,0.57501220703125,3.0,9.0,05-19,-0.8043777147928891
05-05,-0.4643058776855469,-0.5382175445556605,-0.2510566711425781,-1.990631103515625,1.9539642333984375,0.05878448486328125,4.597442626953111,-1.658424377441392,-4.404441833496094,-2.163726806640625,-2.8036880493164205,4.042640686035156,4.0,8.0,05-20,-0.301805019378663
05-06,-0.2957229614257777,-0.16146278381347656,-0.5573997497558594,-3.2565956115722656,3.4169235229492188,0.5540390014648438,3.9542922973632812,-1.7788848876953125,-2.7763214111328267,-1.2932662963867045,-3.9230499267578267,4.878288269042983,4.0,8.0,05-21,-0.10326337814331026
05-07,0.7073402404785192,0.2359828948974645,-0.9361000061035156,-3.8197288513183594,1.9787826538085795,-1.0730133056640625,1.8355865478515625,-0.9728164672851562,-2.8610305786132812,-0.7767181396484233,-6.0718841552734375,6.086471557617202,5.0,7.0,05-22,-0.47226063410440905
05-08,0.3117103576660192,-1.1302356719970703,-0.9999313354492188,-3.0426902770996023,1.6897659301757955,0.40123748779296875,-0.05481719970704546,-1.667694091796875,-1.5999145507812642,-1.14788818359375,-4.419013977050781,3.9750442504882955,4.0,8.0,05-23,-0.640368938446044
05-09,0.7832679748535192,-2.2894535064697266,-1.3743667602539062,-2.9160728454589915,1.6141204833984375,0.2479705810546875,0.730560302734375,-1.1395797729492188,-1.3458175659179688,-4.027137756347642,-4.282737731933608,5.521446228027358,5.0,7.0,05-24,-0.7064833641052237
05-10,0.7832679748535192,-1.8216209411621058,-2.1785240173339844,-2.152141571044922,1.5207824707031108,-1.0098648071289062,0.730560302734375,-2.1309661865234517,-1.082305908203125,-3.252311706542983,-3.6597976684570455,5.521446228027358,4.0,8.0,05-25,-0.7276229858398467
05-11,0.1958141326904297,-2.0286331176757812,-1.7275123596191406,-1.9164199829101491,1.92987060546875,-1.0098648071289062,0.867546081542983,0.31502532958984375,-0.4893798828125,2.180969238281236,-2.6961822509765767,4.6292877197265625,6.0,6.0,05-26,0.020876725514729227
05-12,0.3756599426269531,-2.2439079284668004,-1.0126533508300852,-1.0127716064453125,1.92987060546875,-1.3795623779296875,2.1461105346679688,0.7689971923827983,-0.169403076171875,-0.24869537353517046,-2.6961822509765767,8.4754638671875,5.0,7.0,05-27,0.4110771814982052
05-13,1.2508220672607386,-2.036905288696289,-0.48505401611328836,-1.0127716064453125,1.623046875,0.5094375610351562,0.6027297973632812,1.5009231567382812,-0.978767395019517,-0.24869537353517046,-4.311943054199219,15.622604370117188,6.0,6.0,05-28,1.0029522577921541
05-14,0.559478759765625,-1.3372402191162074,-0.5488891601562571,0.4714508056640696,0.00889587402342329,0.7033157348632812,0.155242919921875,0.1482391357421733,-0.978767395019517,-0.4495849609375,-3.7084732055664062,16.2371826171875,7.0,5.0,05-29,0.9384042421976716
05-15,0.643402099609375,-1.7636604309082031,-0.5488891601562571,0.43656158447264914,0.38242340087890625,2.533691406249986,-1.1689224243164062,0.1482391357421733,-1.0070037841796733,0.3539276123047017,-4.311950683593764,15.29547119140625,7.0,5.0,05-30,0.9161074956258114
05-16,-0.1078948974609375,-1.7636604309082031,-0.6467628479003906,1.4624137878417969,0.6892547607421875,2.204589843749986,-0.8173294067382812,-0.4261932373046875,-0.15999603271484375,-2.3531494140625,-5.587028503417969,10.408454895019531,4.0,8.0,05-31,0.24189154307047409
05-17,0.0039997100830078125,-0.42642021179199574,0.1616973876953125,1.4885978698730469,-0.7737045288085938,1.8980331420898295,-0.5068511962890767,1.4731292724609375,0.9411239624023438,-2.850555419921889,-4.4676666259765625,10.695930480957031,7.0,5.0,06-01,0.636442820231116
05-18,0.15586090087890625,-0.6458492279052805,-0.16168975830078125,2.0517311096191406,0.01781463623046875,2.2361602783203125,-0.931488037109375,1.1952056884765625,0.9129028320312358,-3.3671035766601705,-0.545074462890625,9.734390258789062,7.0,5.0,06-02,0.8877383867899548
05-19,0.551483154296875,-0.7534923553466797,-0.9233169555664062,1.1873817443847656,-0.33350372314453125,2.511177062988267,-0.4383392333984375,2.1680145263672017,-0.34821319580078125,-3.4436264038085938,-0.48667144775390625,10.061508178710923,5.0,7.0,06-03,0.8127001126607247
05-20,0.051954269409176135,1.3124065399169922,-0.5488815307617188,1.7025070190429688,-1.5341033935546875,2.9935455322265625,-0.31049346923828125,1.6399002075195455,-0.05644989013671875,-3.9314804077148438,-3.007659912109375,11.42947387695311,6.0,6.0,06-04,0.8117265701293942
05-21,0.2277965545654297,0.8445739746093714,0.042552947998046875,-0.2531852722167969,-1.6897659301757955,2.0513076782226562,0.3470306396484375,1.436088562011733,2.5786895751953267,-2.888816833496108,-1.1874771118164205,16.44536590576172,8.0,4.0,06-05,1.4961800575256332
05-22,-0.01198577880859375,1.3248271942138672,-0.20848846435546164,-0.65045166015625,-1.77423095703125,3.38580322265625,0.3652801513672017,1.6399154663085938,3.764495849609375,-0.39218902587892046,3.1439208984375284,15.3648681640625,7.0,5.0,06-06,2.1626470883687365
05-23,-0.1678295135498047,1.0060348510742152,-0.7360916137695312,-0.7901382446289062,-3.0548782348632812,2.2542037963867188,1.4931411743164205,1.14886474609375,1.5622787475585938,-0.20088958740232954,5.382621765136719,11.578170776367188,7.0,5.0,06-07,1.6229573885599793
05-24,-0.00798797607421875,0.10764884948730469,-0.7786521911621094,-1.0433120727539134,-3.041542053222642,2.5878219604492188,0.9360885620117188,0.3335418701171875,1.355224609375,1.3678970336914205,4.4774169921875,11.023056030273438,8.0,4.0,06-08,1.4431001345316588
05-25,0.008005142211914062,-0.7038097381591797,-0.7020530700683523,-0.5980606079101491,-3.263885498046875,2.2677154541015625,0.872161865234375,-0.5095901489257528,0.8846588134765625,0.506980895996108,4.7110137939453125,13.828376770019545,7.0,5.0,06-09,1.4417928059895893
05-26,-0.29171943664550426,0.11177635192870738,-1.1275634765625,-1.4362068176269531,-2.6947174072265625,3.0702285766601562,0.6301345825195312,3.011116027832017,0.5740966796874858,2.764465332031264,5.333953857421875,13.28317260742186,8.0,4.0,06-10,1.9357280731201147
05-27,0.6833591461181641,-1.3165378570556605,-1.4254226684570312,-1.1000823974609304,-1.0716476440429545,3.1513748168945455,0.0502166748046875,2.1772689819335795,1.289337158203125,1.9609527587890625,6.307319641113281,8.990928649902344,8.0,4.0,06-11,1.6414222717285176
05-28,0.4635581970214844,-0.8942489624023402,-1.8083534240722656,-0.6198768615722727,-1.3607025146484517,2.5021743774414205,0.9406433105468892,3.0296249389648295,1.355216979980483,2.9749069213867188,6.6966552734375,6.344207763671889,8.0,4.0,06-12,1.6353171666463238
05-29,0.31169700622558594,-0.2608146667480469,-1.4636917114257812,-1.3707237243652344,-2.312286376953125,2.0738754272460938,1.3652801513671875,2.5478591918945312,3.2468719482422017,2.764465332031264,9.41229248046875,7.305747985839858,8.0,4.0,06-13,1.9683810869852738
05-30,-0.31571006774902344,0.3229255676269531,-1.9530105590820312,0.8250617980957102,-2.3834304809570455,1.7988586425781392,1.3013610839843608,1.4453125,3.4445114135742188,2.0087890625,9.490165710449219,5.620567321777358,9.0,3.0,06-14,1.8004501660664882
05-31,-0.23578643798828125,0.9273872375488281,-2.0679054260253906,-0.6679000854492116,-1.1828308105468892,1.4742660522460938,2.2648239135741903,0.009246826171875,4.903228759765625,2.2766342163085938,12.011154174804688,-3.7767868041992188,7.0,5.0,06-15,1.3279609680175752
06-01,-0.3636589050292969,0.6334342956542933,-0.5361175537109375,1.287792205810554,-1.8631591796875,0.5635604858398438,1.9269332885741903,-0.833854675292983,2.202217102050753,1.233970642089858,8.964561462402358,-1.7248382568359233,7.0,5.0,06-16,0.9575700759887674
06-02,-0.6593875885009766,0.3519020080566406,-0.9360809326171946,1.807281494140632,0.05783843994142046,0.8746490478515625,1.1917800903320455,-1.4638671875,1.0164108276367045,0.8322296142578125,8.88668823242189,-4.282341003417969,8.0,4.0,06-17,0.6397585868835473
06-03,-0.6114330291748082,1.0681419372558665,-0.408477783203125,1.741790771484382,-0.582496643066392,0.5860824584960938,0.9178085327148295,-0.9728164672851562,2.955116271972642,1.4635467529296733,8.53629302978517,-6.859672546386719,7.0,5.0,06-18,0.6528236071268715
06-04,-0.7033386230468786,1.966527938842777,-0.0553131103515625,2.7807464599609375,1.1338958740234375,-0.608642578125,2.0867385864257812,-1.3897552490234375,2.78570556640625,2.821868896484375,3.1341934204101562,-6.1955108642578125,7.0,5.0,06-19,0.6464263598124186
06-05,-0.7193317413330114,2.492317199707035,0.0042572021484375,2.5275650024414062,2.925941467285142,0.19837188720701704,2.150665283203125,-1.0747604370117188,2.6351318359375,2.3914108276367188,2.2679061889648438,-9.00083160400392,9.0,3.0,06-20,0.5665535926818812
06-06,-0.41960716247559304,2.3349914550781286,0.2765655517578125,1.9076881408691406,1.28955078125,-0.6041412353515767,2.3926925659179688,0.05558776855470171,2.5692596435546733,0.1912994384765483,2.5988616943359375,-8.455627441406236,9.0,3.0,06-21,0.34476010004679214
06-07,-0.5394992828369141,2.5420036315918004,-0.10638809204101562,1.5104331970214773,-0.33351898193360796,-0.6852874755859659,3.43377685546875,0.6022338867187358,2.7574920654296875,1.9609603881835938,1.6254959106445312,-8.901710510253892,7.0,5.0,06-22,0.3221659660339317
06-08,-0.5874462127685582,1.9375553131103551,1.3956336975097656,1.0302276611328196,-0.04446411132811079,-0.8520660400390767,2.9680328369140625,-2.677581787109361,2.5974884033202983,0.9470062255859375,1.2361602783203125,-9.59560394287108,7.0,5.0,06-23,-0.13708813985188625
06-09,-1.5425548553466797,1.5028419494628906,1.0552101135253906,1.7810745239257812,-1.8631591796875,-0.2434539794922017,3.2374267578125,-2.4274368286132812,0.7058334350585795,1.157447814941392,0.778694152832017,-7.682434082031236,7.0,5.0,06-24,-0.29504251480102894
06-10,-1.494592666625973,0.7369308471679723,1.5445289611816406,0.2007904052734375,-2.3878631591796733,-0.6447296142578125,2.1460952758789062,-1.32489013671875,0.5081939697265625,0.35391998291015625,1.635223388671875,-5.303359985351577,7.0,5.0,06-25,-0.3358127276102696
06-11,-0.9910602569580078,0.1324691772460973,1.659423828125,0.9734764099121094,-2.321197509765625,-1.158660888671875,0.8904113769531392,0.111175537109375,0.40468597412109375,1.425270080566392,0.048675537109375,2.299774169921875,9.0,3.0,06-26,0.2895369529724124
06-12,-0.8631877899169922,0.4264221191406321,1.348827362060554,-1.2310333251953196,-1.3873596191406108,0.40125274658203125,1.2283020019531392,3.2705459594726562,0.5081939697265625,1.5113677978515625,-0.7008209228515483,0.24782562255857954,8.0,4.0,06-27,0.3966946601867705
06-13,-0.40361595153808594,-0.3974437713622976,1.4126510620117188,0.40596771240233664,-2.7880935668945312,0.0901641845703125,2.3196258544921733,-4.595451354980483,-0.7058334350585795,2.4200973510742188,-1.3432312011718892,-1.3084869384765625,5.0,7.0,06-28,-0.40780417124430574
06-14,-0.05594444274902344,-0.4636878967285121,0.6212081909179688,0.7508621215820241,-2.1477584838867188,0.6537246704101562,2.1095657348632812,-7.773338317871108,-0.9505310058593608,1.100059509277358,-0.9928359985351705,-0.4262542724609375,5.0,7.0,06-29,-0.6312441825866703
06-15,-0.1638412475585973,-1.1136760711669922,1.9104690551757812,-0.28809356689453125,-3.1615982055664062,-0.1983642578125,2.3561477661132812,-5.614593505859389,-0.23528289794920454,-0.25826263427734375,0.5839996337890341,-1.0507507324218608,3.0,9.0,06-30,-0.6028205553690608
06-16,0.315704345703125,-2.2935981750488317,2.140239715576172,-0.5674934387207031,-3.1482467651367188,0.464385986328125,-0.9314956665039062,-4.141448974609389,-0.08470916748045454,0.10523223876953125,0.934425354003892,-0.8128509521484517,5.0,7.0,07-01,-0.6683212916056341
06-17,0.2637557983398473,-2.380535125732429,1.8679313659667969,-0.5587730407714773,-4.3132781982421875,3.444427490234361,-1.78082275390625,-5.27179718017581,-0.03766632080075283,0.6887359619140625,1.7325668334960795,1.1796188354492188,6.0,6.0,07-02,-0.4304863611857117
06-18,0.3836479187011683,-2.587547302246101,1.5785865783691406,0.5849685668945312,-3.6151733398437216,2.375915527343764,-2.8219070434570312,-5.4941482543945455,-1.3740463256835795,-1.2148361206054688,3.844734191894517,1.625701904296875,6.0,6.0,07-03,-0.5595086415608709
06-19,0.4315948486328125,-2.649644851684574,1.5785865783691406,-0.026203155517578125,-2.547950744628892,2.542694091796875,-2.3561630249023438,-5.4941482543945455,-1.3740463256835795,-0.38262176513671875,2.890838623046861,2.3195953369140625,5.0,7.0,07-04,-0.42228905359904
06-20,0.8951625823974609,-2.649644851684574,2.2806396484375,-0.5849609375,-0.4446716308593608,1.93408203125,-3.1506805419921875,-3.9561538696289062,-0.7717361450195312,-2.3531570434570312,2.8227081298828267,2.3691635131835795,5.0,7.0,07-05,-0.30077075958251864
06-21,0.847204208374027,-2.3846817016601527,1.753021240234375,1.0738983154296875,0.0800323486328125,2.0242767333984375,-1.525115966796875,-3.2798080444335938,-0.06586456298828125,-2.200096130371108,1.9661788940429688,2.6566390991210795,7.0,5.0,07-06,0.0788070360819481
06-22,0.1958160400390625,-2.057611465454105,1.5956192016601491,0.3012123107910156,1.0672225952148438,1.7763214111328125,-2.0639266967773438,-4.7807464599609375,0.10350799560546875,-3.2714462280273438,1.1582870483398438,5.3529205322265625,8.0,4.0,07-07,-0.05190197626749763
06-23,0.6034336090087855,-1.8795852661132812,2.3402099609375,1.5497169494628906,1.293975830078125,2.610382080078111,-2.913208007812514,-7.643646240234375,0.0,-2.9749221801757812,2.1219100952148438,6.1360321044921875,7.0,5.0,07-08,0.10369157791137429
06-24,-0.5394954681396484,-0.016555786132819605,2.2763862609863352,1.8160171508789062,2.5523910522460938,2.4120025634765625,-2.65753173828125,0.2223510742187642,-0.1317596435547017,-2.200103759765639,1.0317459106445312,6.482978820800781,7.0,5.0,07-09,0.9373688697814929
06-25,-0.8072471618652344,0.049688339233394885,2.3614997863769602,1.8509292602539062,2.4012298583984375,1.0504684448242188,-4.2374114990234375,3.9654083251953267,-0.7246551513672017,-2.0183486938476562,0.10707855224607954,3.6677474975585938,8.0,4.0,07-10,0.638865629831949
06-26,-0.6993503570556605,0.07452774047851207,2.7274436950683594,0.23138427734375,3.3483657836914062,2.3624038696289062,-4.4839935302734375,4.021011352539091,0.1694030761718608,-1.8270492553710938,0.3990936279297017,4.292243957519517,9.0,3.0,07-11,0.884623686472576
06-27,-0.8152389526367152,0.5630474090576207,2.1955642700195312,-0.5849723815917969,3.11712646484375,1.6996536254882812,-1.7168884277343608,7.069198608398452,0.46114349365234375,-0.29653167724609375,-0.46721649169921875,2.5079421997070455,7.0,5.0,07-12,1.14440234502157
06-28,-0.6993484497070277,0.7162303924560547,0.7701492309570312,-1.1437301635742259,4.282157897949219,-1.0504608154296733,-2.1369781494140625,5.6053314208984375,-0.09409332275392046,-1.884429931640625,-1.2653579711914062,1.1300659179687642,5.0,7.0,07-13,0.3524613380432138
06-29,-0.7672863006591761,1.1509418487548864,0.3020973205566406,-2.2874717712402344,3.3794784545898295,-1.2443313598632812,-0.07306671142578125,5.753570556640639,2.0610427856445312,0.01914215087890625,-3.1341781616210795,3.0729751586914205,7.0,5.0,07-14,0.6860761642456085
06-30,-0.13187599182129262,2.036911010742191,-0.36590576171875,-1.6675834655761719,4.264381408691392,-0.9557800292968608,1.6529617309570312,4.928993225097642,1.7693023681640625,1.023529052734375,-2.5598983764648295,3.2910537719726562,7.0,5.0,07-15,1.1071740786234539
07-01,0.13986396789550426,1.4366016387939382,-0.816925048828125,-1.7636184692382812,4.1309814453125,-0.39221954345704546,1.0136795043945312,4.586189270019517,1.1575546264648438,1.1096267700195312,-1.547615051269517,5.323181152343764,8.0,4.0,07-16,1.1981083552042635
07-02,1.5785160064697266,1.6353187561035156,-0.6637611389160085,-0.5936965942382812,3.5173263549804688,-1.2398223876953125,0.9771652221679688,6.3187484741210795,1.6846160888671733,1.2531051635742188,-0.369873046875,6.492904663085923,8.0,4.0,07-17,1.715878963470456
07-03,1.2308425903320312,1.63946342468261,-1.293506622314446,-1.2004890441894531,2.3345184326171875,-1.9701766967773295,1.7168731689453267,5.540473937988281,2.0610275268554545,0.35394287109375,-1.1972351074218608,5.689964294433594,8.0,4.0,07-18,1.2421415646870955
07-05,2.497648239135742,0.7866096496581996,-1.1828727722167898,-0.5675125122070312,1.9743576049804688,-1.167694091796875,-2.995422363281236,6.1612396240234375,2.1363449096679688,3.768859863281264,-1.31402587890625,5.333099365234389,7.0,5.0,07-20,1.285885969797774
07-06,2.6135501861572266,0.6582775115966797,-1.391368865966804,-0.6024246215820312,1.6141433715820312,-0.30658721923828125,-3.013679504394517,5.012382507324219,3.340972900390639,3.5871047973632812,0.2238616943359375,1.9825592041015625,8.0,4.0,07-21,1.1432326634724952
07-07,3.5286922454833984,0.6499862670898473,-1.7105026245117188,0.3579559326171875,3.010406494140625,0.527473449707017,-3.8447265625,6.485488891601548,2.4469146728515767,2.7070846557617188,0.6034698486328125,0.9615478515625,10.0,2.0,07-22,1.3103159268697093
07-08,3.4407806396484375,0.2277011871337855,-1.1786231994628906,3.7498741149902344,2.6368942260742188,0.8791122436523438,-4.465721130371108,3.4373016357421875,2.4657440185547017,2.3627166748047017,1.0998916625976562,3.6578369140625,10.0,2.0,07-23,1.5261257489522306
07-09,3.4527626037597656,0.07451820373535156,-0.3914642333984375,4.5749359130859375,1.4229812622070312,1.0324249267578125,-4.155220031738281,3.168609619140639,-4.0091705322265625,1.0330963134765625,0.983062744140625,6.542457580566406,9.0,3.0,07-24,1.144082864125571
07-10,3.520700454711914,0.4222812652587855,-0.12338638305664062,3.7586097717285227,1.3740386962890625,1.3164520263672017,-6.2191314697265625,1.83447265625,-4.338569641113281,-0.37306976318357954,3.4553985595703267,4.59954833984375,8.0,4.0,07-25,0.7689453760782916
07-11,2.8693027496337926,0.9190979003906214,-0.5659103393554688,3.3526268005371165,-0.42243194580078125,1.0279006958007812,-7.707710266113281,0.9635543823242472,-5.251472473144517,2.2000885009765625,2.0440216064453125,2.2799530029296875,8.0,4.0,07-26,0.1424183845520061
07-12,3.5566596984863317,1.6022052764892507,-0.5531578063964844,2.9815673828125,-0.2890319824218892,1.0459442138672017,-9.954254150390625,-1.9549026489257812,-4.451507568359389,5.203697204589844,1.03173828125,1.4373626708984375,7.0,5.0,07-27,-0.028639952341716974
07-13,3.592626571655277,1.1882038116455078,-1.4211769104003906,1.8116455078125,0.0400390625,0.9152069091797017,-12.127769470214844,-2.5108184814452983,-5.317359924316392,5.060218811035156,0.3795928955078125,1.1697158813476562,8.0,4.0,07-28,-0.6016562779744428
07-14,3.4687538146972656,1.7719593048095739,-1.4679489135742188,2.339862823486328,0.7737274169921875,0.3967132568359659,-13.899467468261719,-2.3533096313476562,-5.693771362304673,6.6098480224609375,0.4185333251953125,-1.4770050048828267,7.0,5.0,07-29,-0.7593420346577936
07-15,2.5775909423828125,1.755386352539059,-1.9870529174804688,2.6628952026367188,0.05337524414061079,1.4021148681640625,-9.187149047851562,-2.9462738037109375,-5.8443527221679545,7.929908752441392,0.223876953125,-6.978630065917969,7.0,5.0,07-30,-0.8615258534749364
07-16,1.04302978515625,2.641363143920895,-1.578582763671875,3.618915557861328,2.8147659301757812,-0.36066436767578125,-2.9680023193359375,-2.9740753173828125,-6.409011840820298,6.7628936767578125,0.5645446777343608,-4.8077163696289205,6.0,6.0,07-31,-0.1377116839090998
07-17,0.9271278381347656,2.7696952819824148,-1.7700653076171875,2.9946746826171875,1.8631591796875,-1.4742431640625,-2.9497451782226562,-3.5392227172851562,-6.5219650268554545,4.141914367675781,2.287384033203139,-1.4571762084960938,6.0,6.0,08-01,-0.22737185160318832
07-18,0.5714588165283203,2.761419296264645,-1.9189949035644531,2.3005752563476562,0.1956634521484375,-2.3083038330077983,-2.0821533203125,-4.252655029296875,-7.2466278076171875,3.740173339843736,0.3796234130859375,1.0111083984375,7.0,5.0,08-02,-0.5707260767618818
07-19,1.5825138092041016,3.0305252075195312,-2.2721214294433594,-1.7025032043457031,0.5691757202148438,-1.9476165771484375,-2.127838134765625,-3.437316894531264,-7.9901199340820455,3.1949386596679545,-0.11679840087890625,-1.17962646484375,4.0,8.0,08-03,-1.0330656369527216
07-20,1.8182849884033203,2.682767868041992,-3.2465171813964844,-2.5275650024414062,0.3156890869140625,-4.684196472167969,-2.25567626953125,-5.8739776611328125,-0.4799652099609375,4.524559020996094,0.4282989501953125,-1.7248306274414062,5.0,7.0,08-04,-0.9185940424601237
07-21,2.553598403930664,2.161119461059574,-3.123138427734382,-1.174285888671882,1.3473052978515625,-4.6706695556640625,-0.31049346923828125,-3.9468994140624716,-0.15056610107421875,5.088928222656236,-1.245880126953125,-2.7557754516601562,4.0,8.0,08-05,-0.5188964207967119
07-22,2.51364898681641,2.020353317260742,-2.680614471435554,-1.3576431274414134,1.169464111328125,-4.278488159179702,-1.41552734375,-3.0759811401367188,0.771736145019517,4.696731567382798,-2.705902099609361,-3.8560867309570312,5.0,7.0,08-06,-0.6831924120585157
07-23,1.8542613983154297,1.337245941162113,-2.5146560668945384,-0.6766395568847727,1.2272796630859375,-5.455146789550781,0.8766937255859375,-2.093902587890611,-0.6775970458984517,6.2559127807617045,-7.7868118286132955,0.8227691650390625,6.0,6.0,08-07,-0.5692159334818555
07-24,1.8182945251464844,1.1095409393310547,-4.625114440917962,0.5849647521972585,1.92987060546875,-5.017860412597656,3.0502090454101562,-2.3070220947265767,-0.35761260986328125,4.084526062011719,-6.930244445800781,1.0904159545898438,7.0,5.0,08-08,-0.4641693433125826
07-25,1.7183856964111328,0.8487148284912109,-4.540016174316406,1.7592506408691406,1.0494232177734375,-4.4993667602539205,3.8356246948242188,-2.0012588500976562,-1.8539886474609233,0.6504669189453125,-5.1392974853515625,1.4175338745117188,7.0,5.0,08-09,-0.562877337137858
07-26,1.5489673614501953,0.7861251831054652,-5.574869155883789,1.5152091979980398,1.7697753906250142,-4.409210205078125,2.9009780883789062,-1.7402191162109375,-2.7344512939453267,-1.348762512207017,-4.94464111328125,1.1994476318359375,6.0,6.0,08-10,-0.9193042119344073
07-27,1.5651035308837926,0.6295051574707067,-3.0295257568359375,0.5591888427734304,-0.03556060791015625,-4.816322326660156,1.7188796997070455,-1.2217788696289062,-2.198150634765625,-0.1817474365234375,-5.42156982421875,3.9985122680664062,5.0,7.0,08-11,-0.7027888298034656
07-28,1.2212677001953125,0.4335422515869176,-4.659723281860352,0.3103485107421804,0.5670242309570312,-3.5044784545898438,0.04683685302734375,-0.35898590087892046,-2.0851974487304688,-0.46871185302734375,-1.7325592041015625,7.6562347412109375,6.0,6.0,08-12,-0.21453348795573066
07-29,1.5132179260253906,-0.5137348175048828,-4.510793685913086,0.42445755004883523,0.504547119140625,-2.3158340454101705,-3.4759674072265625,0.3544464111327983,-1.35113525390625,-0.04596710205078125,-2.5244293212890625,10.972145080566392,5.0,7.0,08-13,-0.08075396219889619
07-30,0.6554489135742188,-0.7828407287597692,-4.38316535949707,0.18308639526367188,0.4016571044921875,-1.9050521850585938,-3.7784652709960938,0.3914947509765625,-3.2792816162109233,-1.7273330688476562,-5.758110046386719,13.262489318847642,5.0,7.0,08-14,-0.5600059827168785
07-31,0.419677734375,-1.4659557342529297,-3.5902023315429688,0.5525588989257884,1.3067245483398438,1.9533920288085938,-3.6506271362304688,0.43798828125,-3.8463821411132812,-3.9332809448241903,-3.7020492553710938,13.807693481445298,6.0,6.0,08-15,-0.14253854751586736
08-01,-0.3076438903808594,-1.5494194030761719,-3.525909423828125,0.43520355224610086,0.10100555419921875,1.9398651123046875,-3.18487548828125,-0.25954437255857954,-1.9849777221679545,-2.3038864135742188,-4.833656311035156,14.07534790039061,4.0,8.0,08-16,-0.11654090881347479
08-02,-0.1583995819091797,-1.7747516632080078,-1.9296493530273438,1.0354804992675781,0.27884674072265625,0.9345245361328267,-3.6522216796875,1.0855178833007812,-2.6610565185546875,-1.7387313842773438,-3.3736343383789205,11.903831481933594,5.0,7.0,08-17,-0.004186948140462239
08-03,-0.6908454895019496,-1.2358837127685582,-2.9297599792480327,0.3544769287109375,0.48786163330078125,0.7354812622070455,-2.5709304809570312,-0.2607727050781392,-0.45557403564453125,-3.29791259765625,-0.249176025390625,12.073173522949219,4.0,8.0,08-18,0.1633448600769055
08-04,-1.4281902313232457,-1.078680038452152,-0.776439666748054,0.048892974853515625,-1.1189956665039062,1.0521316528320455,-1.7594833374023438,-0.10346984863279829,-0.7755584716797017,-2.6952896118164062,-0.8357467651367045,11.60697174072267,3.0,9.0,08-19,0.17801189422607658
08-05,-1.4642219543457031,-1.0223197937011719,-0.8615379333496094,0.3166046142578125,-1.1993484497070312,2.817199707031264,-1.5211181640625,-0.40923309326171875,-0.8979034423828125,-1.859405517578125,0.2396392822265767,7.541603088378906,4.0,8.0,08-20,0.13999652862549064
08-06,-1.1011886596679688,-0.9597301483154261,1.007284164428711,0.4087677001953125,-1.7848815917968608,2.8996810913085938,-2.4832839965820312,-0.8277740478515625,-1.8997802734375,-1.3597946166992188,1.10003662109375,7.709877014160156,5.0,7.0,08-21,0.22576777140299628
08-07,-1.117324829101566,-1.051519393920902,-1.088724136352539,-0.7767868041992188,-0.67401123046875,3.0579681396484233,-1.3011856079101705,-0.6603622436523438,-2.4668807983398295,0.24318695068359375,-2.0203170776367188,4.9108123779296875,3.0,9.0,08-22,-0.2454287211100278
08-08,-0.6695899963378906,-1.7442054748535192,-1.7445392608642578,-1.5974464416503835,-1.214080810546875,1.7461242675781108,-3.7661361694335938,0.232513427734375,-0.9546356201171733,2.2194137573242188,-5.3182830810546875,2.8887100219726562,4.0,8.0,08-23,-0.8268462816874184
08-09,-0.7825355529785192,-1.8234825134277415,-3.587631225585934,-0.14043807983399148,-1.1516036987304688,2.216552734375,-6.17608642578125,0.781272888183608,1.1058425903320312,1.3355026245117188,-4.5264129638671875,2.490264892578125,5.0,7.0,08-24,-0.8548962275187174
08-10,-0.2178211212158203,-1.8068027496337855,-0.8229656219482386,0.10093307495117188,-0.995361328125,2.668937683105483,-8.613502502441406,1.6275939941406392,2.1738739013671733,3.0168685913085938,-1.808616638183608,2.4803085327148438,6.0,6.0,08-25,-0.1830461819966628
08-11,-0.4033641815185547,-1.1850681304931605,-1.2944564819335938,0.39936447143553977,-0.5311508178710938,2.4291839599609517,-11.133415222167969,1.5345993041992472,2.7409744262695312,4.3427658081054545,-2.3951797485351705,0.18926239013673296,6.0,6.0,08-26,-0.44220701853434036
08-12,-0.5001754760742188,-0.7135391235351527,-1.3587493896484375,-0.5046844482421946,0.4017333984375,3.0308456420898295,-11.893974304199219,2.2321319580078267,1.011329650878892,3.545295715332017,-5.875534057617202,-1.1654510498046733,5.0,7.0,08-27,-0.982564290364586
08-13,-0.8712730407714844,-0.48820686340331676,-2.027423858642578,-0.4344673156738281,-1.1114120483398438,2.0130233764648438,-9.54815673828125,1.7950210571289205,1.0869445800781108,4.361976623535156,-5.787536621093736,1.1355590820312642,5.0,7.0,08-28,-0.8229959805806452
08-14,-0.3388271331787145,-0.5716609954833949,-2.3746166229248047,0.39499664306639914,-2.0576934814453125,1.660186767578125,-10.629447937011719,2.1298446655273438,1.0963973999023153,4.1121826171875,-2.7471237182617188,0.9662170410156392,6.0,6.0,08-29,-0.6966287295023618
08-15,0.3105945587158203,-0.4965572357177699,-1.8345470428466797,-0.23697280883789773,-1.3435592651367045,1.343536376953125,-10.226272583007812,1.1997680664062358,1.1436614990234517,2.7286224365234375,-0.576805114746108,1.0259857177734375,6.0,6.0,08-30,-0.5802121162414554
08-16,0.8954792022705043,0.24619483947753906,0.12430191040038352,-0.1448211669921946,-1.2632064819335795,0.6649703979492045,-8.311119079589844,3.673736572265611,0.11341094970701704,3.6125640869140625,-1.6521911621093892,1.8627243041991903,8.0,4.0,08-31,-0.01482963562012459
08-17,1.1980056762695348,-0.9430389404296804,0.5057830810546946,-0.2369842529296946,-0.46869659423828125,0.6649703979492045,-7.468101501464844,3.4319305419921875,1.068023681640625,3.1129531860351562,-2.5320587158203125,3.1875457763671733,7.0,5.0,09-01,0.12669436136881362
08-18,0.988250732421875,-0.5925331115722692,2.648937225341804,0.2413787841796804,-0.46869659423828125,0.7554321289062358,-8.503532409667969,1.9624404907226562,1.6351242065429545,1.8543243408203125,-2.5320587158203125,1.703346252441392,8.0,4.0,09-02,-0.025632222493493433
08-19,0.2621898651123047,1.0724048614501989,3.3047523498535227,0.2413787841796804,-0.27675628662110796,0.556396484375,-10.217071533203125,1.0695648193359375,1.342132568359375,1.8543243408203125,-1.4468994140625,5.339141845703125,9.0,3.0,09-03,0.25846322377522696
08-20,0.3146324157714915,1.1516819000244212,3.279018402099613,-0.2940368652343679,-1.2319335937499858,0.5021286010742472,-5.809532165527344,0.6231307983398295,1.342132568359375,0.893524169921875,0.479034423828125,7.709884643554702,9.0,3.0,09-04,0.7466387748718318
08-21,-0.2500820159912074,1.3144149780273438,3.279018402099613,1.1190948486328125,-0.8481063842773295,-0.701164245605483,-3.3721160888671875,0.6231307983398295,1.8241729736328125,-0.5188217163085938,-0.26395416259765625,7.719841003417983,6.0,6.0,09-05,0.8271190325419114
08-22,-0.08873367309569957,1.3144149780273438,2.610355377197255,-1.2639122009277344,-0.5401229858398438,-0.4614105224609517,1.1637496948242188,0.7161483764648295,0.04724884033203125,-0.6917877197265625,1.388214111328125,4.8809280395507955,7.0,5.0,09-06,0.7562576929728172
08-23,-0.08873367309569957,1.6315383911132777,1.0415763854980433,-0.09656143188476562,-1.4730072021484375,-1.2213821411132812,1.1637496948242188,0.5580368041992188,-0.1795654296875,0.7974700927734375,4.868568420410156,4.8809280395507955,7.0,5.0,09-07,0.990218162536622
08-24,-0.016136169433597303,2.40767669677734,0.5614986419677734,-0.1667785644531321,-0.5936965942382812,-1.180671691894517,1.57611083984375,1.143959045410142,0.46312713623046875,-0.01921081542970171,4.252662658691392,1.7033462524414062,7.0,5.0,09-08,0.8443239529927536
08-25,0.2420215606689453,1.3102321624755824,1.6845035552978516,-0.2677268981933594,0.133880615234375,-1.026870727539034,2.0709152221679688,-0.01860809326170454,0.4536743164062642,-0.5092086791992188,6.031936645507798,2.779144287109375,8.0,4.0,09-09,1.073657830556237
08-26,0.6655654907226562,1.577301025390618,1.1444339752197266,1.5886726379394531,-0.455291748046875,-1.1490020751953125,3.0239105224609375,0.9114685058594034,0.04724884033201704,0.8358764648437642,8.417350769042955,1.0359573364257528,10.0,2.0,09-10,1.4702909787495912
08-27,0.5122756958007848,0.834548950195309,-0.20576095581054688,1.6501083374023509,1.7318801879882812,-1.7099533081054688,0.833831787109375,-0.8091506958007528,-0.13232421875,0.3650970458984375,8.896385192871094,4.532287597656264,8.0,4.0,09-11,1.3749354680379273
08-28,0.20974922180175426,1.510528564453118,-0.2786216735839915,3.0281410217285227,3.548561096191392,-1.3480453491210938,-0.009185791015625,-2.139137268066392,-0.529289245605483,2.1329498291015625,8.055641174316406,3.2074661254882812,7.0,5.0,09-12,1.4490631421407043
08-29,0.4275665283203125,1.5981578826904297,-1.0244426727294922,2.7033843994140696,3.6735305786132812,-1.5380401611328125,0.7422027587890625,-6.268623352050753,1.9281387329101562,0.8935165405273438,7.3712997436523295,4.920768737792983,9.0,3.0,09-13,1.2856216430664091
08-30,0.6413593292236328,2.20737266540527,-1.4402008056640696,3.1949195861816264,3.6645965576171733,-1.234947204589858,1.2370376586914062,-4.203887939453125,2.7220916748046875,1.3162765502929545,6.7358322143554545,5.319213867187528,9.0,3.0,09-14,1.6799720128377233
08-31,0.7664031982421875,2.4243659973144567,-0.8143997192382812,2.523456573486321,3.2182540893554545,-1.7054138183594034,1.3103408813476562,-4.389900207519531,0.6994247436523438,1.4315643310546733,7.087776184082017,6.673919677734389,9.0,3.0,09-15,1.6021493275960237
09-01,1.5448970794677734,1.3269309997558558,0.4157676696777486,3.335346221923821,2.5264129638671733,-2.4925308227539205,2.5748825073242188,-4.929344177246094,0.4442291259765625,2.0656967163085795,7.605926513671875,6.1858367919921875,10.0,2.0,09-16,1.717004299163815
09-02,2.210458755493164,1.1308116912841797,1.0415611267089915,4.568550109863281,2.3344650268554545,-2.478942871093764,0.6872634887695312,-5.915199279785156,1.531158447265625,2.949615478515625,8.749748229980469,3.924659729003892,10.0,2.0,09-17,1.727845827738441
09-03,2.3314800262451207,0.6884918212890625,1.200166702270515,4.6826438903808665,3.566444396972642,-1.3616180419921733,0.998809814453125,-6.454620361328125,2.8732986450195312,2.2002029418945455,4.8196868896484375,6.225669860839844,10.0,2.0,09-18,1.814221382141116
09-04,2.016847610473633,1.3978710174560547,1.8088245391845703,4.533439636230476,2.86566162109375,-0.8097305297851562,1.6127471923828125,-5.933784484863281,2.7031707763671875,2.9880523681640625,5.562698364257798,6.404975891113281,10.0,2.0,09-19,2.0958978335062657
09-05,1.8151569366455078,1.6482372283935547,2.331754684448242,3.8093299865722656,3.2316436767578125,-0.9635314941406392,-1.218719482421875,-6.891746520996108,3.175750732421889,2.565277099609375,5.953742980957031,8.018669128417983,9.0,3.0,09-20,1.9562970797220867
09-06,1.5690975189208984,1.5731277465820312,1.9374217987060476,1.8607673645019531,3.8208160400390625,-0.9454421997070312,-1.7776870727539062,-6.082588195800781,3.912994384765625,2.9304046630859233,3.568328857421875,8.227851867675824,9.0,3.0,09-21,1.7162577311197935
09-07,1.7183418273925781,1.8276634216308594,1.0758705139160227,1.7993316650390554,2.7540283203125,-0.34381103515625,-2.9414291381835938,-5.087448120117202,4.536788940429673,3.40118408203125,2.8546676635742188,4.7613906860351705,9.0,3.0,09-22,1.3630482355753568
09-08,1.7344779968261719,1.289373397827152,-0.5572109222412003,0.6363487243652344,2.8343658447265625,-0.5021286010742188,-2.7031936645507812,-2.641380310058608,4.933753967285156,2.84393310546875,4.086479187011719,-0.9064559936523295,7.0,5.0,09-23,0.9206968943278007
09-09,1.4763336181640625,1.1558437347412074,0.18861007690430043,1.1322669982910156,2.0711212158203125,-0.8052139282226562,-4.105140686035156,1.4881057739257528,2.750427246093764,3.6798171997070312,2.6884765625,-4.502410888671875,9.0,3.0,09-24,0.60151974360148
09-10,0.8309345245361364,0.5466289520263672,0.18002510070801137,0.7899436950683594,-0.12943267822265625,-1.890869140625,-6.139396667480469,-0.2790069580078267,2.920562744140639,3.737457275390625,1.0558319091797017,-7.3911209106445455,7.0,5.0,09-25,-0.48070351282755475
09-11,0.7058906555175817,0.1835956573486328,-1.2944755554199219,0.41253662109375,-0.4240264892578125,-0.39804840087889204,-6.212699890136719,0.35343170166015625,2.7031707763672017,0.09607696533203125,-1.4175567626952983,-8.745826721191406,6.0,6.0,09-26,-1.1698276201883913
09-12,0.4598426818847692,-0.07927894592285156,-1.8431129455566406,-0.32476043701170454,0.7900772094726562,0.389068603515625,-3.8668899536132812,0.47434234619142046,2.3345565795898295,-0.4707641601562358,-1.51531982421875,-11.843727111816406,5.0,7.0,09-27,-1.2913304964701309
09-13,0.246057510375973,0.5341091156005859,-0.9644260406494212,-1.7466773986816406,0.982025146484375,0.37548065185546875,-5.543792724609375,0.911468505859375,3.2608261108398438,-2.4595947265625,-2.6591415405273438,-11.2161865234375,6.0,6.0,09-28,-1.5233209927876799
09-14,-0.10487174987792969,0.6008777618408239,-0.6343765258789134,-1.8607711791992259,-0.2499542236328125,-1.0404129028320312,-5.3330535888671875,1.6462020874023438,1.4271926879882812,-1.7101821899414205,1.2709197998046875,-9.921241760253906,4.0,8.0,09-29,-1.325805981953941
09-15,-0.26219367980957387,0.6300868988037109,-2.5375003814697266,-1.7115669250488352,0.6471939086914062,-0.5699920654296875,-8.952537536621094,2.1670608520507812,1.597320556640625,-2.4980316162109375,1.2709197998046875,-8.148162841796875,5.0,7.0,09-30,-1.5306169191996266
09-16,-0.4638748168945277,0.27957916259765625,-3.0604305267333984,-1.4350738525390696,0.031219482421875,-0.479522705078125,-8.356941223144531,3.125022888183608,1.1247406005859233,-3.8431396484375,2.7960205078125,-8.676101684570312,5.0,7.0,10-01,-1.5798751513163252
09-17,-0.4316062927246094,0.3546886444091797,-2.666097640991204,-1.606231689453132,0.7587890625,-2.3025360107421875,-6.203559875488281,2.3158645629882812,1.9375686645507528,-3.708648681640625,1.2709121704101705,-7.142089843750014,5.0,7.0,10-02,-1.4519122441609724
09-18,-0.5808506011962891,0.10015296936035156,-2.3017539978027273,-0.833831787109375,-0.44634246826171875,-5.423828125,-5.039817810058594,0.9114608764648438,1.7579956054687358,-3.3819580078125,-2.502716064453111,-3.675628662109361,3.0,9.0,10-03,-1.784759839375812
09-19,-0.5969867706298828,0.05842208862304332,-3.026132583618157,-1.1454238891601562,-0.6025619506835938,-5.265510559082031,-5.278053283691406,2.12054443359375,2.5141525268554688,-4.6502227783203125,-6.1394805908203125,1.9922180175781392,4.0,8.0,10-04,-1.6682529449462875
09-20,-1.2625446319580078,0.17943191528320312,-3.7891082763671946,-0.7723960876464844,0.16068267822265625,-3.8495941162109375,-3.0422286987304688,2.0275497436523438,3.005645751953125,-6.908050537109375,-4.741477966308594,1.6933822631835938,5.0,7.0,10-05,-1.441558996836345
09-21,-1.3835582733154297,0.020868301391605115,-1.2301673889160156,-0.4300727844238281,1.4372787475585938,-3.8495941162109375,-0.7238998413085938,-0.3813323974609091,3.0906982421875,-6.965690612792969,-3.851837158203139,3.177581787109375,4.0,8.0,10-06,-0.924143791198729
09-22,-1.0406894683837855,0.8011608123779261,1.1401615142822266,-0.08777236938476562,1.3703155517578125,-3.5419845581054688,2.72149658203125,-1.4508895874023438,3.3080902099609375,-3.8047027587890625,-3.6660919189453267,5.0801544189453125,6.0,6.0,10-07,0.0691040356953927
09-23,-0.4114303588867223,1.3811759948730469,1.6887989044189453,0.09215545654296875,3.3387680053710938,-3.1710739135742188,3.1704864501953125,-1.571800231933608,2.930015563964858,-4.064117431640611,-1.6912918090820455,6.205757141113281,7.0,5.0,10-08,0.6581203142801918
09-24,-0.26219177246093395,0.7677879333496094,0.13716506958007812,0.49591064453125,1.9818344116210938,-6.3873748779296875,5.681243896484375,-0.5208358764648438,3.657806396484389,-4.486854553222656,-0.5083694458007812,9.951126098632812,7.0,5.0,10-09,0.8756039937337254
09-25,0.08873748779296875,0.8262023925781214,0.5443706512451172,1.1805381774902273,-0.8168716430664062,-3.5646438598632812,5.4705047607421875,0.0464935302734375,3.8940811157226705,-1.883148193359375,-4.213569641113281,8.656181335449219,8.0,4.0,10-10,0.8524063428243004
09-26,-0.35899925231933594,0.738565444946282,0.44579505920410156,0.4871368408203125,-1.8613052368164062,-4.035064697265625,8.980018615722656,-7.821830749511719,3.903533935546875,-11.3660888671875,-2.0334625244140625,7.1719818115234375,6.0,6.0,10-11,-0.4791433016459153
09-27,0.18555641174316406,1.0139732360839808,0.8229751586914134,0.05704879760742898,-1.245330810546875,-4.491950988769531,10.317855834960938,-7.99853515625,4.1492767333984375,-9.021766662597656,-3.558563232421875,13.198440551757784,7.0,5.0,10-12,0.2857483228047674
09-28,0.39933204650878906,0.7761249542236364,2.0188465118408203,0.22820663452149148,-2.0443115234375,-6.0752105712890625,10.501129150390625,-10.481826782226562,3.3648223876953267,-9.156257629394531,-3.842071533203125,14.084976196289062,7.0,5.0,10-13,-0.018853346506752484
09-29,0.5526084899902273,1.0848979949951207,2.3189010620117188,-0.08338546752928977,-1.040008544921875,-7.197059631347656,10.43701171875,-9.4122314453125,3.5443954467773438,-9.751960754394531,-2.7862319946289062,15.658828735351591,6.0,6.0,10-14,0.27714713414510356
09-30,0.9801902770996094,1.4354133605957067,3.0432796478271484,-0.03950119018555398,-0.13837432861328125,-9.115097045898438,8.695968627929688,-10.621315002441406,1.3326873779296875,-12.845695495605469,0.645225524902358,11.44528198242186,7.0,5.0,10-15,-0.4318280220031741
10-01,2.0047416687011754,1.3144035339355469,3.8919944763183594,-0.5793075561523438,-0.30353546142578125,-6.147605895996094,6.588447570800781,-10.695716857910156,2.268402099609361,-14.08511352539061,0.3323974609374716,12.760139465332003,7.0,5.0,10-16,-0.22089608510335731
10-02,2.1257553100585973,1.6690845489501918,3.8534088134765625,0.6626739501953125,-0.5177764892578125,-4.82672119140625,4.270118713378906,-10.5283203125,2.3629074096679688,-13.508621215820312,3.7149734497070312,11.275939941406222,8.0,4.0,10-17,0.04611857732136807
10-03,1.60943603515625,1.706644058227539,4.727809906005859,0.5310287475585938,-0.12050628662109375,-5.134330749511719,2.5015945434570312,-10.081901550292969,1.11529541015625,-10.136283874511719,4.262435913085923,8.636253356933565,8.0,4.0,10-18,-0.03187704086304066
10-04,1.831293106079098,1.8902492523193324,3.0732707977294886,0.855785369873054,-2.088958740234375,-4.871955871582031,4.2792816162109375,-8.733291625976577,0.66162109375,-9.934524536132827,2.287635803222642,10.777900695800781,8.0,4.0,10-19,0.0023589134216270105
10-05,1.5166606903076136,1.2017593383789098,3.4162006378173757,0.45203018188477273,-0.7543411254882812,-4.270301818847656,5.63543701171875,-8.156669616699219,-0.14179229736328125,-9.511787414550781,3.177284240722642,11.196266174316406,7.0,5.0,10-20,0.3133955001831043
10-06,1.5892696380615234,0.42143058776855824,2.1988754272460866,0.5485801696777415,2.9281082153320312,-1.8184967041015625,7.1290512084960795,-8.956512451171875,-0.3780670166015625,-11.010612487792969,5.406280517578125,9.731979370117216,8.0,4.0,10-21,0.6491572062174494
10-07,1.3472614288330078,1.2142753601074325,2.2974510192871023,0.6012458801269531,3.5083770751953125,2.1532211303710938,6.4784698486328125,-1.0881881713867188,0.226837158203125,-10.174728393554688,8.329376220703125,5.6678619384765625,10.0,2.0,10-22,1.7134550412495935
10-08,0.18151092529296875,0.9388675689697337,1.0287170410156108,0.00439834594725852,6.1597900390625,2.9448776245117188,4.462524414062514,-1.1997909545898438,1.5784378051757812,-7.86883544921875,12.054115295410156,-0.9562683105468466,9.0,3.0,10-23,1.610695362091067
10-09,-0.03226470947265625,1.0265026092529332,1.8173904418945241,0.8733367919921875,7.8737945556640625,3.4741439819335938,4.279251098632827,-1.106781005859375,4.8392486572265625,2.9784317016601562,10.4508056640625,-1.842803955078125,9.0,3.0,10-24,2.885921319325766
10-10,-0.17747879028319957,0.6968517303466797,3.1032981872558523,0.0789947509765554,6.1240692138671875,4.5959930419921875,3.023864746093764,-1.3671951293945312,4.262718200683594,0.9896011352539205,8.612884521484375,-2.0121459960937784,9.0,3.0,10-25,2.3276213010152174
10-11,0.2299213409423828,0.5967102050781179,3.510509490966797,0.7504539489746165,5.222434997558594,7.74444580078125,5.754547119140625,0.8742523193359375,4.754173278808594,1.3451004028320312,5.181427001953111,-2.340866088867216,11.0,1.0,10-26,2.801925818125403
10-12,-0.31059265136718395,0.763614654541005,2.0445556640625,1.2902603149414062,5.499168395996094,8.282760620117188,6.093597412109361,-0.6696624755859375,4.0831069946289205,2.5845184326171733,7.097564697265639,-1.7730712890625,9.0,3.0,10-27,2.9154850641886387
10-13,-0.9801902770996094,0.44232177734375,3.081859588623047,0.45203399658203125,5.949981689453125,8.712493896484375,6.185234069824219,0.37201690673828125,3.9886016845703125,1.5660781860351562,6.227470397949247,-2.231277465820341,10.0,2.0,10-28,2.8138853708902993
10-14,-1.0205192565918004,0.18360519409179332,2.20745849609375,0.45203399658203125,7.04803466796875,6.794502258300781,5.140617370605469,-0.07440185546875,4.300498962402344,7.263542175292983,6.677169799804702,-7.171974182128878,9.0,3.0,10-29,2.6500473022460977
10-15,-1.948272705078125,0.0,3.0089988708496094,0.45203399658203125,6.87841796875,6.735687255859375,4.6457672119140625,-0.13021087646484375,5.198417663574219,6.418052673339844,5.376937866210952,-11.485137939453125,8.0,4.0,10-30,2.0958909988403334
10-16,-1.6336402893066406,-0.045902252197265625,4.753532409667969,-0.789947509765625,8.610282897949219,4.6231536865234375,3.28961181640625,0.641754150390625,4.4989776611328125,4.525299072265625,5.953750610351577,-11.90350341796875,8.0,4.0,10-31,1.8769474029541027
10-17,-1.9039020538330078,-0.11684226989746094,4.942119598388672,-1.250762939453132,3.2093505859375,2.1713485717773438,2.8864288330078267,0.1953125,3.0245285034179688,5.860794067382827,4.633941650390625,-9.074554443359403,8.0,4.0,11-01,1.2148135503133133
10-18,-1.4359970092773402,-0.07511138916015625,2.4346160888671946,-0.8821067810058523,2.6290817260742188,0.39357757568359375,2.8406295776367188,0.29764556884765625,3.1757583618164205,5.860778808593736,1.710845947265625,-6.195793151855497,8.0,4.0,11-02,0.8961604436238598
10-19,-2.2346649169921875,0.37555694580078125,2.468914031982429,-0.28525924682615766,2.2541122436523438,0.5292816162109375,2.8223114013672017,0.16739654541015625,1.521720886230483,3.5548858642577983,1.2709197998046875,-4.582107543945341,9.0,3.0,11-03,0.6552556355794277
10-20,-1.5005359649658168,0.07509613037108664,2.580352783203118,-0.272083282470696,2.664764404296875,5.659088134765625,2.400764465332017,-0.26041412353515625,-1.7390899658202983,3.295471191406236,0.4301605224609375,0.5478515625,8.0,4.0,11-04,1.1567854881286606
10-21,-0.6816902160644531,0.5090789794921768,1.2944450378417898,1.799346923828125,2.7406387329101562,1.9587478637695312,3.252998352050753,0.0,-0.9168090820312358,4.8807830810546875,0.7430038452148438,2.8189849853515625,9.0,3.0,11-05,1.5332940419514947
10-22,-1.218173980712887,0.6092205047607386,0.985828399658196,0.9742774963378906,1.4908447265625,2.1532363891601562,0.2199249267578125,-0.7998504638671875,-0.6899795532226562,5.0441131591796875,2.7569046020507812,-0.8865356445312216,8.0,4.0,11-06,0.8866508801778176
10-23,-0.6776599884033203,0.23368453979492188,1.8259735107421875,2.738494873046875,2.17376708984375,4.681953430175781,-0.11912536621092329,-1.38580322265625,-0.3402709960937642,5.591766357421861,4.3210906982421875,-1.4543304443359375,7.0,5.0,11-07,1.4657950401306141
10-24,-0.22185325622558594,0.7511062622070384,1.7616729736328125,2.6419410705566335,1.7632598876953125,4.252220153808594,-0.0641326904296875,-0.399932861328125,-1.0396881103515625,9.204330444335938,6.051498413085923,1.4742279052734943,8.0,4.0,11-08,2.1812208493550655
10-25,0.3953018188476598,0.9764251708984446,2.730388641357422,2.2823333740234375,0.6652069091796875,5.722381591796875,-0.6597595214843608,2.9111099243164062,-1.3043365478515625,5.591751098632798,5.601799011230469,6.903015136718778,10.0,2.0,11-09,2.651301383972171
10-26,0.4563617706298828,0.9763221740722585,2.1846389770507812,2.23846435546875,1.1249465942382812,6.407691955566406,-0.5218124389648438,2.439910888671875,-2.4101791381835938,6.4372406005859375,5.924407958984361,7.401077270507841,10.0,2.0,11-10,2.7215892473856615
10-27,0.9803600311279297,0.8487396240234375,-1.2682228088378906,1.8171424865722585,-0.29026031494140625,6.775291442871094,-0.7733230590820455,2.1816482543945312,-1.7107391357421875,6.379600524902344,5.9830551147460795,14.975746154785156,8.0,4.0,11-11,2.9915865262349417
10-28,1.7269611358642578,0.8188343048095703,-1.4568099975585938,0.48097991943358664,0.5740890502929688,5.227317810058594,-2.6170806884765625,2.6280899047851562,-0.03780364990234375,6.012893676757827,5.590461730957017,18.097274780273438,9.0,3.0,11-12,3.0871006647745762
10-29,1.3445491790771449,0.7771034240722656,-0.1880645751953125,0.37953948974608664,-1.2238388061523438,6.279800415039048,-2.1207199096679545,2.3862533569335938,-0.5501632690429688,5.086479187011719,4.555259704589844,15.048500061035156,8.0,4.0,11-13,2.6478915214538565
10-30,2.143217086791992,0.7896232604980433,0.15705490112304688,0.41924285888671164,0.6513824462890625,5.526878356933594,-2.1024017333984375,3.8620147705078125,-0.9866561889648438,1.579475402832017,4.6766204833984375,13.434814453125,10.0,2.0,11-14,2.5126055081685363
10-31,1.7156429290771449,0.8274459838867152,0.9723892211914062,0.410419464111321,1.1856918334960938,0.39707183837890625,-1.8641281127929545,2.8346099853515625,-1.176109313964858,-0.30826568603515625,5.586097717285156,7.996063232421875,9.0,3.0,11-15,1.5480774243672677
11-01,1.3289146423339773,0.26861572265625355,1.3944740295410156,-2.1637229919433594,1.1098175048828125,1.8989181518554688,-4.0710067749023295,3.4588775634765625,-1.0634460449218892,-0.8899688720703125,5.27325439453125,5.216064453125,8.0,4.0,11-16,0.9800659815470375
11-02,1.3818321228027273,-0.10251235961914062,0.5202369689941406,-1.338653564453125,0.7928924560546875,2.5025100708007812,-2.5813522338867188,3.9618072509765625,-2.2011642456054688,-1.0532989501953125,2.68255615234375,8.16607666015625,7.0,5.0,11-17,1.0609108606974278
11-03,1.6197624206543004,-0.7446823120117116,-1.3638916015625,-2.1549339294433594,1.2228240966796875,1.8989181518554688,-1.725593566894517,4.669189453125,-2.550872802734361,-0.6113357543945312,2.123107910156236,7.9426116943359375,6.0,6.0,11-18,0.8604253133138041
11-04,1.6796379089355469,-1.0520038604736328,-1.299591064453125,-2.622364044189453,0.9182815551757812,3.40740966796875,-1.6439056396484375,3.683319091796875,-2.3712844848632812,1.0581436157226562,1.8777313232422017,10.976852416992159,7.0,5.0,11-19,1.21768554051717
11-05,0.7571735382080007,-1.277322769165039,-1.4667510986328125,-2.4592018127441406,0.86883544921875,1.7790603637695312,1.268959045410142,2.2509994506835938,-1.7829971313476562,1.1449966430664205,0.5263671875,5.548065185546875,8.0,4.0,11-20,0.5965153376261387
11-06,0.6961135864257777,-1.2647113800048757,-2.4244613647460938,-1.1244735717773366,0.8777847290039062,2.0740585327148438,1.131011962890625,2.4844818115234375,-1.95379638671875,0.7821273803710795,-0.46154022216796875,5.0500030517578125,7.0,5.0,11-21,0.48888317743937143
11-07,-0.14654922485351918,-0.6470603942871023,-2.0405120849609375,-0.26018524169921875,1.1464996337890625,1.7064590454101562,2.2988357543945455,1.1581878662109375,-0.9575119018554688,-1.302757263183608,-2.7677688598632812,1.4000091552734375,5.0,7.0,11-22,-0.0343627929687497
11-08,-0.5658397674560547,-0.7184867858886648,-3.257061004638672,1.7374382019042898,0.2821502685546875,1.9923629760742188,1.508049011230483,1.3543319702148438,-0.7495880126953125,-2.692375183105483,-2.3751754760742188,1.4000091552734375,6.0,6.0,11-23,-0.17368205388387045
11-09,-0.6594753265380859,-0.38235092163085227,-1.5487327575683594,1.8388786315917898,0.01790618896484375,2.9000625610351562,2.657463073730483,0.8406295776367188,0.199249267578125,-1.765960693359375,-2.649993896484375,1.4000091552734375,7.0,5.0,11-24,0.2373070716857922
11-10,-0.17911529541015625,-0.28150558471678977,-2.135425567626953,1.7991752624511648,0.5194931030273438,4.120887756347656,3.9999923706054545,-0.2335052490234375,0.6357421875,0.46320343017578125,-3.4548110961914205,0.4499969482421875,7.0,5.0,11-25,0.47534402211506926
11-11,-0.26460838317871094,-0.9201774597167969,-2.9507598876953125,1.887359619140625,0.7255020141601562,4.679145812988281,3.5494308471679545,0.7938995361328125,0.7495880126953125,1.3606719970703125,-3.7198104858398438,0.6200103759765625,8.0,4.0,11-26,0.542520999908446
11-12,-0.1546936035156179,-0.36134719848633523,-2.5970230102539062,2.6017494201660156,0.7523956298828125,5.296363830566392,5.7747039794921875,0.5323944091796875,0.6831588745117188,1.8238754272460938,-2.4144363403320312,3.4000091552734375,8.0,4.0,11-27,1.2780958811442045
11-13,-0.2076110839843679,-0.39496612548828125,-3.330394744873054,2.451824188232422,-0.19256591796875,4.6156082153320455,4.285049438476577,1.4384002685546875,1.4707107543945312,2.923980712890639,-2.483154296875,0.4499969482421875,7.0,5.0,11-28,0.9189065297444697
11-14,-0.6431922912597656,0.390758514404304,-3.3821754455566406,2.6811141967773366,-0.2015228271484375,5.219200134277358,3.2551651000976562,1.9427642822265625,1.4232635498046875,0.43426513671875,-0.03925323486328125,-1.0,7.0,5.0,11-29,0.8400322596232108
11-15,-0.3093795776367223,0.32352447509766336,-2.070709228515618,2.9324798583984375,0.10301971435546875,4.570213317871108,4.147132873535156,1.0460968017578125,3.7479324340820312,0.5404052734375,0.20612335205075283,-1.0,9.0,3.0,11-30,1.1864032745361326
11-16,-0.8548755645751953,0.9327850341796804,-0.7722015380859375,2.769317626953125,0.2149658203125,5.273666381835952,3.917243957519517,1.5317916870117045,2.846527099609375,0.4535522460937358,0.7753829956054545,-1.0,9.0,3.0,12-01,1.3406796455383259
11-17,-0.7449626922607422,0.7899188995361328,2.1742515563964844,0.8157997131347656,-0.0492706298828125,6.122383117675781,3.705749511718764,-0.6351089477539062,3.0173263549804688,-0.05790710449217329,0.26500701904298296,0.0,7.0,5.0,12-02,1.2835988998413121
11-18,-0.24425315856933238,0.9706153869628906,1.7903022766113281,1.1421241760253906,-0.2642364501953125,5.160209655761719,2.3264617919921733,0.6911849975585938,2.0210418701171875,0.743064880371108,-0.07851409912110796,0.0,8.0,4.0,12-03,1.1881667772928866
11-19,0.435577392578125,1.0420417785644531,2.553882598876953,1.86090087890625,-0.49263763427734375,3.8440628051757812,1.8114776611328125,-0.24283599853515625,1.8692245483398295,1.5729751586914205,-0.2846221923828125,0.0,8.0,4.0,12-04,1.1641705830891926
11-20,0.5292129516601562,1.054645538330071,2.0362014770507812,-0.26899337768553977,-0.2418212890625,4.810745239257827,0.6620635986328125,-0.8873291015625,0.996299743652358,3.3292999267578125,1.432952880859375,0.0,8.0,3.0,12-05,1.1211064656575545
11-21,0.008148193359375,1.1932830810546804,1.3114585876464844,-0.634998321533196,-0.16571044921875,3.5899200439453267,-0.11954498291014204,-1.5037841796875,2.106414794921875,3.6187896728515625,3.356674194335966,0.0,7.0,4.0,12-06,1.0633875528971402
11-22,-0.3826560974121058,1.4495925903320241,1.6824455261230469,-1.7242240905761719,-0.3717193603515625,3.4900588989258097,-1.0758590698241903,-0.58843994140625,1.404296875,-0.5404129028320312,3.621673583984389,0.0,5.0,6.0,12-07,0.5803963343302465
11-23,-0.06105613708496094,1.6932945251464773,2.5323028564453196,-1.7242240905761719,-0.5553512573242188,3.6942901611328267,0.4505767822265625,-1.279632568359375,0.08538818359376421,-0.5404129028320312,1.2857513427734517,0.0,6.0,5.0,12-08,0.46507724126180366
11-24,0.19540023803710582,1.1176567077636648,2.251903533935547,-1.5654754638671875,-1.0793228149414062,3.3039627075195455,-0.45977020263671875,0.0467071533203125,0.08538818359376421,-0.5886459350585938,3.2781524658203125,0.0,7.0,4.0,12-09,0.5488297144571955
11-25,-0.7449607849121094,0.9285812377929545,2.251903533935547,0.08819198608398438,1.6346588134765625,3.376594543457017,-3.4115066528320312,0.0467071533203125,0.32260894775392046,-1.4957580566406392,4.662017822265625,0.0,8.0,3.0,12-10,0.6382532119750953
11-26,0.04478263854979758,0.9285812377929545,0.9145622253417969,-0.7231864929199219,0.707611083984375,3.966621398925753,-4.285064697265611,0.7752456665039062,0.2467041015625,-3.9661865234375,3.209434509277358,0.0,8.0,3.0,12-11,0.1515920956929507
11-27,0.04478263854979758,0.8571586608886719,0.034519195556640625,0.6394233703613423,1.2584686279296875,0.9212875366210795,-4.285064697265611,1.9240875244140767,0.0664215087890625,-2.2581329345703267,3.219245910644517,0.0,9.0,2.0,12-12,0.20184977849324484
11-28,0.004077911376949572,0.9454002380371094,0.5996475219726634,1.3846588134765625,-0.76580810546875,0.9212875366210795,-3.852867126464858,1.8213653564453125,-1.5750885009765625,-4.439064025878906,3.4057388305664205,0.0,7.0,4.0,12-13,-0.12922096252441495
11-29,-0.15875625610351918,1.3025550842285227,-0.26747894287109375,0.8422508239746094,-0.76580810546875,0.4447784423827983,-4.4689712524414205,0.6071090698242472,-1.062705993652358,-4.8347244262695455,3.4057388305664205,0.0,5.0,6.0,12-14,-0.41300106048584073
11-30,-0.3745136260986328,1.0504379272461009,-2.7566375732421875,0.12347412109375,-0.5866622924804688,1.2390060424804688,-6.445960998535156,1.04608154296875,-0.569313049316392,-5.664634704589858,3.73944091796875,0.0,5.0,6.0,12-15,-0.7666068077087397
12-01,-0.08955574035644531,0.6176376342773438,-2.7393836975097727,1.5919075012207031,0.116455078125,-0.02266693115235796,-8.303443908691392,0.86865234375,0.30361175537107954,-6.851593017578139,5.162567138671875,0.0,6.0,5.0,12-16,-0.7788176536560089
12-02,-0.7083263397216797,0.8025436401367116,-2.014640808105476,1.8829689025878906,-0.33588409423828125,-0.46292877197265625,-6.243659973144531,1.485107421875,-1.24298095703125,-9.322021484375,4.4264678955078125,0.0,4.0,7.0,12-17,-0.977779547373455
12-03,-0.12619400024414773,0.5462341308593679,-2.144054412841804,3.9643516540527344,0.33135986328125,-2.995353698730483,-3.7516937255859517,0.1681365966796875,-3.548667907714858,-10.055442810058594,5.192024230957003,0.0,5.0,6.0,12-18,-1.0349416732788164
12-04,-0.4477939605712926,0.90338134765625,-2.178558349609368,4.361232757568352,0.29558563232421875,-0.6580810546875,-5.2781295776367045,0.1027374267578125,-2.3436431884765767,-9.264144897460938,3.92591857910152,0.0,5.0,6.0,12-19,-0.8817912737528522
12-05,-0.4274368286132848,0.6344680786132884,-1.8550071716308594,5.737079620361321,1.545074462890625,-0.26775360107421875,-4.386177062988281,-0.06537628173828125,-0.588279724121108,-8.771980285644517,0.510345458984375,0.0,4.0,7.0,12-20,-0.6612536112467451
12-06,-0.8223133087158168,0.8655548095703196,-2.7221221923828196,3.527790069580078,-1.1689071655273438,-0.26322174072265625,-6.206886291503892,0.0,0.11384582519529829,-9.032531738281236,-0.8735198974609375,0.0,3.0,8.0,12-21,-1.3818593025207504
12-07,-1.0380611419677734,0.8025283813476491,-1.6781387329101562,4.339168548583984,-0.6628341674804688,1.8925323486328267,-7.9999847412109375,-2.3724365234375,0.04743194580078125,-6.562103271484375,-1.305389404296875,0.0,4.0,7.0,12-22,-1.2114405632019036
12-08,-0.24832725524902344,1.109264373779304,-0.20276260375977273,3.2499809265136648,-0.6314773559570312,2.296447753906264,-5.075828552246094,-3.3064346313476705,0.22771453857421875,-6.7840499877929545,-0.5496368408203125,0.0,4.0,7.0,12-23,-0.8262591361999506
12-09,-0.23203849792479758,1.0210227966308665,-0.7678909301757955,4.6522865295410085,-0.040313720703125,1.7745132446289205,-2.56549072265625,-3.2037124633789062,0.4554443359375,-6.166442871093736,-0.5005645751953125,0.0,4.0,7.0,12-24,-0.4644322395324689
12-10,-0.06920433044432883,0.6638679504394531,-0.1552886962890696,4.6522865295410085,-0.326934814453125,3.971130371093764,-1.9493865966796875,-2.596580505371108,0.4554443359375,-6.166442871093736,0.0,0.0,4.0,7.0,12-25,-0.12675905227661075
12-11,0.1465530395507848,0.8487510681152273,-0.1552886962890696,3.624805450439453,1.4106979370117188,3.8440475463867188,0.02760314941404829,-2.596580505371108,0.47442626953125,-6.484886169433594,0.6870269775390625,0.0,8.0,3.0,12-26,0.152263005574541
12-12,-0.3338050842285121,0.9159736633300781,-0.0690155029296875,4.714031219482422,1.6391143798828125,5.1057205200195455,0.9471359252929688,-3.4091873168945455,0.2846527099609659,-7.585014343261719,-0.215911865234375,0.0,6.0,5.0,12-27,0.16614119211832948
12-13,-0.15876007080078125,0.983203887939446,0.9275093078613281,4.202484130859375,2.0914535522460938,5.8818206787109375,2.3080215454101562,-2.2042999267578125,0.02847290039063921,-1.5729827880859375,0.5201873779296875,0.0,8.0,3.0,12-28,1.083925882975261
12-14,-0.048847198486328125,0.7101020812988352,1.6220626831054759,2.1211013793945312,2.31988525390625,5.904541015625,2.4459609985351562,-0.29889678955078125,2.533409118652358,-0.8395614624023438,0.2846374511719034,0.0,8.0,3.0,12-29,1.3961995442708381
12-15,0.3989410400390625,0.7352981567382884,1.1518325805663991,2.0020408630371094,2.5438003540039062,6.117828369140639,1.2413635253906392,-1.3356475830078125,1.3283843994140767,2.0651397705078125,0.10797119140627842,0.0,10.0,1.0,12-30,1.3630793889363666
12-16,0.03256797790527699,1.1554756164550781,0.8282814025878906,1.2876319885253835,2.4094314575195312,7.170715332031236,0.3310089111328125,-1.1675338745117188,0.3415679931640767,4.139907836914048,0.05889892578127842,0.0,10.0,1.0,12-31,1.3823294639587411
12-17,0.42744445800780895,0.9243888854980469,1.5789108276367259,1.2876319885253835,1.8675079345703125,4.629211425781236,2.1517181396484233,-1.447723388671875,0.3415679931640767,4.139907836914048,0.20610046386721592,0.0,10.0,1.0,01-01,1.342222213745117
12-18,0.6431922912597656,0.7773284912109446,1.5789108276367259,0.10143280029297586,1.4510498046875,2.110382080078111,3.9448165893554688,-1.447723388671875,0.9867858886718892,4.371520996093764,1.246490478515625,0.0,10.0,1.0,01-02,1.313682238260908
12-19,0.4600067138671875,0.6260643005371165,2.0965919494628977,1.8256378173828125,1.9526290893554688,1.7064666748046733,3.0804290771484375,-0.8499526977539062,0.48392486572265625,5.597091674804673,1.0502014160156534,0.0,10.0,1.0,01-03,1.5024242401123058
12-20,0.4192943572998047,0.718505859375,1.169097900390625,1.8344459533691406,1.3614654541015625,0.9349212646484375,2.3356094360351562,-0.821929931640625,1.7458648681640625,4.458366394042983,1.0011291503906534,0.0,10.0,1.0,01-04,1.2630642255147333
12-21,0.12619590759277344,0.9285964965820312,1.2769432067871236,2.3327560424804688,1.8630752563476562,0.7034454345703267,1.4620590209960938,-0.5791015625,1.9071731567382812,5.182121276855483,0.4711303710937784,0.0,10.0,1.0,01-05,1.306199550628668
12-22,0.7042465209960902,0.33194732666014914,1.2683067321777415,1.4596138000488281,1.5406112670898438,-0.09076690673828125,-0.7356414794921875,2.1202392578125,1.897682189941392,5.876937866210966,-1.3838653564453125,0.0,8.0,3.0,01-06,1.0824426015218107
12-23,0.5454902648925781,0.46218109130859375,0.772197723388679,1.1068305969238281,1.7511062622070312,-3.4446792602539062,-1.7747039794921875,2.4097976684570312,1.8122863769531108,2.287078857421889,-3.2584991455078125,0.0,8.0,3.0,01-07,0.22242387135823627
12-24,0.822296142578125,0.3697357177734304,0.5780715942382884,1.8653030395507812,-0.02686309814453125,-3.7170028686523438,-3.6045761108398438,1.3263168334960938,1.129127502441392,4.159217834472685,-4.3675918579101705,0.0,7.0,4.0,01-08,-0.12216377258300781
12-26,0.7327384948730469,0.2436981201171804,0.345123291015625,2.42095947265625,0.6225204467773438,-3.4810028076172017,-3.153991699218764,-0.2428436279296875,2.3151779174804545,1.737030029296875,-4.858314514160156,0.0,7.0,4.0,01-10,-0.2765754063924195
12-27,0.8467292785644567,-0.29412841796875,0.1596221923828125,3.6512832641601634,0.7568893432617188,-3.8758468627929545,-4.275840759277358,0.467010498046875,1.6415023803710938,0.07721710205080967,-4.809242248535156,0.0,7.0,4.0,01-11,-0.47123368581135744
12-28,0.7978782653808558,-0.5336265563964844,1.4451942443847656,3.8364715576171875,0.4478302001953125,-1.1708984375,-4.974670410156264,1.6065139770507812,-0.5313491821289062,0.26055145263671875,-4.426460266113281,0.0,6.0,5.0,01-12,-0.27021376291910953
12-29,0.9444351196289062,-0.9159851074218679,1.1259422302246094,2.667888641357422,0.7434158325195312,-2.4916076660155966,-5.63677978515625,1.2329177856445312,-0.19925689697265625,-0.7044677734374716,-4.18109130859375,0.0,5.0,6.0,01-13,-0.617882410685216
12-30,0.6391201019287109,-0.35294342041015625,1.3416328430175781,2.8310508728027344,0.9449539184570312,-2.455284118652358,-4.275848388671875,1.7466278076171875,-1.318878173828125,0.4052886962890767,-4.740547180175781,0.0,6.0,5.0,01-14,-0.43623558680216473
12-31,1.1927509307861364,-0.44538497924803977,0.6384544372558523,2.9765548706054688,-0.850921630859375,-1.887962341308608,-5.3057403564453125,1.2889556884765625,-1.318878173828125,-0.35707855224607954,-4.190933227539091,0.0,4.0,7.0,01-15,-0.6883486111958842
