,2009,2010,2011,2012,2013,2014,2015,2016,2017,2018,2019,2020,ups,downs,end_day_sum,avg
01-02,-1.639999389648434,0.4350013732910085,-0.8400001525879048,1.4399986267089844,0.7949981689453267,0.8799972534179688,-1.2149963378906392,-4.909996032714858,1.6200027465820455,0.1699981689453125,-0.6900024414062358,-0.8600006103515625,6.0,6.0,01-17,-0.4012498855590823
01-03,-1.5049991607666016,0.4350013732910085,-1.0750007629394602,1.1999969482421875,0.69000244140625,0.6449966430664062,1.7450027465820455,-4.909996032714858,1.0699996948242188,-1.5500030517577983,4.569999694824219,1.050003051757841,8.0,4.0,01-18,0.19708363215128819
01-04,-1.5049991607666016,1.0950012207031214,-0.14500045776367188,1.3699989318847656,-0.1699981689453125,1.5899963378906108,1.7450027465820455,-4.3899993896484375,-1.2999954223632812,-2.970001220703125,2.6299972534179688,1.6500091552734375,6.0,6.0,01-19,-0.033332347869873345
01-05,-0.9349994659423899,0.7049999237060547,-0.354999542236321,2.6800003051757812,0.43500518798828125,1.5899963378906108,1.3600006103515767,-6.409996032714858,1.0699996948241903,-4.4199981689453125,2.3000030517578267,1.6500091552734375,8.0,4.0,01-20,-0.027498245239260182
01-06,-1.7999992370605504,1.3200016021728587,-0.404998779296875,2.569999694824226,0.43500518798828125,0.07499694824217329,3.725006103515611,-4.870002746582031,1.1000061035156108,-4.220001220703125,2.3000030517578267,-1.67999267578125,7.0,5.0,01-21,-0.12083133061727036
01-07,-1.7700004577636719,0.6300010681152273,0.2350006103515625,2.7849998474121094,1.8600006103515625,0.5999984741210795,2.1200027465820312,-1.7300033569335938,0.34000396728514204,-0.30999755859375,7.1200027465820455,0.4100036621093466,9.0,3.0,01-22,1.0241676966349242
01-08,-1.8649997711181605,0.6900005340576136,0.10499954223632812,1.7150001525878835,1.25,0.2649993896484375,-0.9250030517577983,-0.9700012207031108,1.1500015258789062,-0.2799987792968892,4.3600006103515625,-2.5200042724609375,7.0,5.0,01-23,0.24791622161865293
01-09,-1.4250011444091797,0.725000381469723,-0.6100006103515625,2.2949981689453125,0.6850051879882812,-1.4850006103515483,0.529998779296875,-0.9300003051757955,2.6500015258789062,-1.44000244140625,2.8499984741210938,-2.5,6.0,6.0,01-24,0.11208311716715465
01-10,-1.0600013732910156,-1.2900009155273402,-0.21500015258789062,1.095001220703125,0.8199996948242188,-1.7099990844726562,0.8899993896484375,-2.529998779296889,3.8499984741210795,0.6399993896484375,-0.599998474121108,-1.92999267578125,5.0,7.0,01-25,-0.16999944051107096
01-11,-1.6450004577636719,-0.8800010681152344,0.6399993896484446,0.9500007629394531,0.654998779296875,-0.29999542236326704,2.5500030517577983,-1.2899932861328267,5.170005798339844,1.370002746582017,0.1900024414062358,-3.05999755859375,7.0,5.0,01-26,0.36250209808349315
01-12,-1.6850013732910156,0.125,0.2849998474121165,0.7099990844726562,1.19000244140625,-0.4349975585937358,0.779998779296875,-4.010002136230483,4.209999084472642,0.7700042724609233,0.09000396728514204,-2.959999084472642,8.0,4.0,01-27,-0.07749938964843928
01-13,-1.4250011444091797,-0.75,1.125,0.9500007629394531,1.4749984741210938,-3.0799942016601562,0.41500091552732954,-0.4700012207031108,4.760002136230469,2.3000030517577983,0.26000213623046875,-3.410003662109361,7.0,5.0,01-28,0.1791672706604004
01-14,-0.5699996948242259,-1.6400012969970703,0.8250007629394531,0.6899986267089844,1.5900039672851562,-3.8499984741210938,-0.5049972534179688,-0.7699966430664205,5.1100006103515625,3.5699996948242188,1.5400009155273438,-6.969993591308565,6.0,6.0,01-29,-0.08166519800821881
01-15,-0.25,-1.2700004577636719,0.7999992370605398,0.3950004577636719,-0.06999969482421875,-4.135002136230469,-2.2299957275390483,0.900001525878892,5.879997253417969,4.8300018310546875,2.6999969482422017,-6.7100067138671875,6.0,6.0,01-30,0.06999937693278054
01-16,-0.2600002288818395,-2.3600025177002024,0.36499786376952414,0.5099983215332102,0.964996337890625,-2.2350006103515625,-4.31999969482419,1.2000045776367045,6.049995422363281,2.9300003051757812,1.94000244140625,-3.9900054931640625,7.0,5.0,01-31,0.06624889373779326
01-17,0.6550006866455043,-2.6100025177002024,0.02000045776366477,0.7150001525878906,-0.875,-3.1399993896484233,-3.209999084472642,0.48999786376953125,6.05999755859375,3.8499984741210938,-2.309997558593764,-5.07000732421875,6.0,6.0,02-01,-0.4520842234293623
01-18,-0.10999870300293324,-2.7750015258789134,0.5449981689453054,-0.15999984741210938,-1.25,-3.4000015258789062,-1.2249984741210938,3.5200042724609517,3.319999694824247,0.31999969482421875,-0.37999725341798296,-2.470001220703125,4.0,8.0,02-02,-0.3387497266133617
01-19,-1.0099983215332031,-2.3550014495849645,1.6100006103515554,1.549999237060554,-1.2700042724609375,-2.6650009155273438,-2.6399993896484517,3.9899978637695312,3.059997558593764,0.29000091552735796,0.7000045776367045,-2.779998779296875,6.0,6.0,02-03,-0.126666863759359
01-20,-1.0549983978271484,-1.595001220703125,1.8950004577636719,0.970001220703125,-2.4500045776367188,-3.8199996948242188,-2.2150039672851705,-0.4799957275390625,1.5599975585937642,1.9500045776367188,1.090003967285142,-6.0500030517578125,5.0,7.0,02-04,-0.8499999046325696
01-21,-1.7299995422363281,0.0550003051757777,1.5,1.2649993896484375,-1.1050033569335795,-6.56500244140625,-0.5650024414062358,3.19000244140625,0.31999969482424717,0.8400039672851705,1.4199981689453125,-4.5500030517578125,7.0,5.0,02-05,-0.49375057220458424
01-22,-1.409999847412113,-0.3549995422363281,0.920001983642571,0.7350006103515625,-1.915000915527358,-4.959999084472656,-1.9500045776367045,1.9499969482421875,0.34000396728517046,-1.1699981689453125,1.9100036621093892,-3.6300048828125,5.0,7.0,02-06,-0.7945833206176743
01-23,-1.3699989318847692,-0.9350013732910156,1.1450004577636648,1.4449996948242188,-2.5200042724609375,-4.834999084472656,-0.18000030517578125,4.0,0.7000045776367188,-5.269996643066406,4.959999084472685,-1.4000015258789205,5.0,7.0,02-07,-0.35499986012776663
01-24,-1.189998626708988,-1.6750011444091797,1.2700004577636648,1.1899986267089773,-2.8249969482421875,-2.190002441406236,-0.18500518798828125,4.589996337890639,-1.8800048828124858,-4.9800033569335795,3.8799972534179688,-0.9499969482422017,4.0,8.0,02-08,-0.41208473841349075
01-25,-0.5949993133544957,-1.3700008392333984,1.2549972534179688,0.9249992370605469,-2.94000244140625,-2.9850006103515625,1.2749938964843892,1.760002136230483,-1.0699996948242045,-6.080001831054702,2.5999984741210938,1.9000015258789062,6.0,6.0,02-09,-0.4437510172526021
01-26,0.1350002288818395,-1.1450004577636683,0.970001220703125,1.3899993896484375,-0.8349990844726562,-2.1350021362304688,1.5199966430664062,-2.9300003051757812,-1.75,-7.3400039672851705,2.400001525878892,1.4000015258789062,6.0,6.0,02-10,-0.6933337847391782
01-27,0.06499862670898793,-0.17499923706055043,1.2849998474121165,1.2750015258788991,-1.0149993896484375,-0.32500457763671875,0.43000030517578125,-1.8100051879882812,-1.9199981689453125,-5.440002441406264,1.150001525878892,-0.34999847412109375,5.0,7.0,02-11,-0.5691671371459984
01-28,-1.7600002288818324,0.37000083923339844,1.6299972534179759,1.0699996948242188,-0.55999755859375,0.75,3.25,-0.75,-1.9300003051757812,-9.26999664306642,1.1600036621093608,-3.1399993896484375,6.0,6.0,02-12,-0.7649993896484389
01-29,-1.0100002288818324,0.5349998474121094,1.1049995422363352,1.279998779296875,-0.8549957275390625,0.9800033569335938,1.2549972534179688,-3.7800064086914205,-1.9000015258789205,-7.199996948242173,0.23999786376953125,-1.4700012207031108,6.0,6.0,02-13,-0.9016671180725089
01-30,-0.1100006103515625,0.11499977111816051,1.6199989318847656,0.6800003051757812,-1.8899993896484233,0.5449981689452983,2.6699981689453267,-4.25,-1.4899978637695312,-4.3699951171875,2.559997558593764,-0.75,6.0,6.0,02-14,-0.38916667302449337
01-31,-0.06500053405761719,0.11499977111816051,2.0499992370605398,0.75,0.6200027465820312,1.6999969482421733,2.2450027465820455,-4.25,0.7999954223632812,-4.1700057983398295,2.4499969482422017,2.5200042724609375,9.0,3.0,02-15,0.397082646687827
02-01,-0.06500053405761719,0.3549995422363246,1.2399978637695455,-0.17000198364257812,-0.724998474121108,4.4449996948242045,2.2450027465820455,-6.319999694824219,1.0100021362304545,-1.3000030517578267,2.1200027465820312,1.0200042724609375,7.0,5.0,02-16,0.3212504386901829
02-02,-0.2850017547607422,0.21000099182129262,1.5999984741210938,0.06999969482422586,0.08499908447267046,4.4449996948242045,4.6500015258789205,-1.2600021362304688,0.9199981689453125,0.7099990844726562,1.6299972534179545,1.0200042724609375,10.0,2.0,02-17,1.1495828628540048
02-03,-0.3950004577636719,1.1049995422363281,1.5499992370605469,-0.6399993896484304,0.08499908447267046,5.180000305175767,4.935005187988281,-1.489997863769517,0.5599975585937642,4.339996337890625,1.6299972534179545,-0.8799972534179688,8.0,4.0,02-18,1.3316666285196959
02-04,-1.0450000762939453,2.0400009155273473,1.4249992370605469,-0.46999740600584516,0.02999877929688921,5.8299942016601705,4.2000045776367045,-0.6999969482422017,1.5800018310546875,4.339996337890625,1.0,-2.3799972534179688,8.0,4.0,02-19,1.3208336830139176
02-05,-1.7849998474121058,1.735000610351566,1.3050003051757812,-0.46999740600584516,0.5100021362304688,4.68499755859375,2.9350051879882812,2.1299972534179545,1.5800018310546875,4.209999084472642,2.0999984741210795,-5.529998779296875,9.0,3.0,02-20,1.1170838673909487
02-06,-2.514999389648441,2.0650005340576207,1.3050003051757812,0.26000213623047586,-1.3099975585937358,4.069999694824219,2.690002441406264,5.349998474121094,1.8499984741210938,2.2000045776367188,2.6300048828125,-4.840003967285156,9.0,3.0,02-21,1.1462508837382028
02-07,-2.5849990844726562,2.2150001525878906,1.6800003051757812,0.4250030517578196,-3.2300033569335938,2.2600021362304688,4.7099990844726705,5.0400009155273295,2.3600006103515625,1.2700042724609517,4.889999389648423,-3.0900039672851562,9.0,3.0,02-22,1.3287502924601242
02-08,-2.914999008178711,2.3999996185302734,1.7049980163574219,0.18000030517578125,-3.6850051879882812,1.56500244140625,4.339996337890625,5.979995727539048,2.9000015258789062,5.319999694824247,4.8799972534179545,-1.3700027465820312,9.0,3.0,02-23,1.774998664855957
02-09,-3.295000076293949,1.4549999237060582,0.2849998474121094,-0.11499786376953836,-3.9200057983398438,2.410003662109375,4.909996032714844,5.730003356933608,2.6800003051758097,3.25,5.019996643066392,-1.529998779296875,8.0,4.0,02-24,1.4066664377848326
02-10,-3.1549997329711914,0.8500003814697301,-0.4849967956542969,0.4850006103515554,-4.635002136230469,2.970001220703139,4.125,3.5300064086914205,2.2699966430664205,1.6399993896484517,5.4099960327148295,-1.9799957275390625,8.0,4.0,02-25,0.9187505245208772
02-11,-2.440000534057617,0.9349994659423864,-0.914997100830071,0.3600006103515554,-3.5149993896484233,1.6800003051757955,4.2750015258789205,6.410003662109375,2.0,1.8799972534179688,6.720001220703111,-6.6800003051757955,8.0,4.0,02-26,0.8925005594889338
02-12,-2.469999313354492,0.8699989318847692,-0.9699974060058665,0.55999755859375,-3.074996948242216,2.5050048828125284,1.3199996948242188,3.9000015258789062,1.7900009155273295,3.4799957275390625,4.709999084472656,-12.730003356933608,8.0,4.0,02-27,-0.009166558583580139
02-13,-2.114999771118164,0.3400001525878942,-1.270000457763679,0.2949981689453125,-3.2150039672851705,2.9500045776367188,-0.5500030517578267,2.059997558593736,2.5,2.970001220703111,3.5800018310546875,-11.370002746582031,7.0,5.0,02-28,-0.318750540415451
02-14,-1.2000007629394496,-0.17999839782714488,-0.5299987792968821,1.210002899169929,-2.1699981689453125,2.115005493164034,-0.09000396728514204,3.3899993896484375,0.879997253417983,-1.0100021362304545,4.9099960327148295,-11.060005187988281,5.0,7.0,02-29,-0.31125052769978784
02-15,-1.4700002670288068,0.060001373291015625,0.014999389648430395,1.4949989318847585,-2.3649978637695312,3.2700042724609233,-0.005004882812485789,4.5400009155273295,0.9300003051757812,-3.75,3.05999755859375,-10.240005493164062,7.0,5.0,03-01,-0.3716671466827415
02-16,-1.6600008010864205,0.4800014495849574,-0.479999542236321,-0.07500076293945312,-0.5250015258789205,3.5500030517578125,-0.2350006103515625,2.9099960327148295,1.5200042724609375,-3.720001220703139,3.4399948120117188,-15.740005493164062,5.0,7.0,03-02,-0.8779175281524686
02-17,-2.1700000762939418,0.39499855041503906,-0.7199974060058665,-0.43500137329102273,-0.5250015258789205,5.6150054931640625,0.9249954223632955,4.5800018310546875,0.9199981689452983,-2.9599990844726705,3.2399978637695312,-14.880004882812486,6.0,6.0,03-03,-0.5012505849202494
02-18,-2.145000457763672,0.4149990081787074,-1.0649986267089915,-0.3600006103515625,-0.45000457763671875,5.2350006103515625,-0.8500061035156392,4.639999389648452,0.29000091552734375,-4.290000915527344,4.029998779296889,-14.020004272460923,5.0,7.0,03-04,-0.7141680717468247
02-19,-1.255000114440918,0.22999954223632457,0.47500228881834516,0.345001220703125,-0.06000518798829546,6.56500244140625,-0.0800018310546875,3.700004577636733,-0.6200027465820455,-5.150001525878906,2.6299972534179688,-15.129997253417969,6.0,6.0,03-05,-0.6958334445953396
02-20,-0.87499904632568,0.43499946594237926,1.3400001525878906,0.2649993896484375,2.3550033569335938,5.394996643066406,-0.6500015258789062,2.6100006103515625,-0.9400024414062358,-2.6399993896484233,1.010002136230483,-11.400001525878906,7.0,5.0,03-06,-0.25791684786478325
02-21,-0.07999992370605469,0.42000007629394176,0.7550010681152273,-0.17499923706053977,2.684997558593764,4.834999084472642,-0.575004577636733,3.5800018310546733,-1.8000030517577983,-0.5500030517578267,0.42000579833984375,-10.950004577636719,6.0,6.0,03-07,-0.11958408355713157
02-22,-1.3000001907348633,0.6100006103515625,0.22999954223632102,-0.6949996948242116,1.5649948120117188,5.509994506835923,-0.5200042724609517,5.769996643066392,-2.029998779296889,-0.8400039672851562,-0.8899993896484375,-7.30999755859375,5.0,7.0,03-08,0.008331855138138167
02-23,-0.8299999237060547,1.0499992370605433,1.1399993896484375,-0.8249969482421946,2.574996948242216,5.809997558593736,-2.260002136230483,8.5,4.230003356933594,-2.44000244140625,-1.7699966430664205,-12.6199951171875,6.0,6.0,03-09,0.21333360671996862
02-24,-1.489999771118164,0.4150009155273402,1.0500030517578125,-0.5599975585937571,2.5849990844726705,5.775001525878892,-2.2400054931640767,5.830001831054702,3.5200042724609233,-2.5100021362304688,-2.4800033569335938,-13.819999694824205,6.0,6.0,03-10,-0.32708311080932706
02-25,0.3549995422363281,1.3199996948242188,0.3100013732910156,-1.194999694824233,3.5199966430664205,4.764999389648423,-4.0,5.269996643066392,4.380004882812486,-2.1299972534179688,-2.690002441406264,-12.21999359130858,7.0,5.0,03-11,-0.19291623433431346
02-26,0.7349996566772479,1.0799999237060582,-0.16499710083007102,0.0,2.5500030517578267,2.1899948120117188,-5.3300018310546875,4.1199951171875,0.48000335693357954,0.12000274658203125,-0.1699981689453267,-7.109992980957031,7.0,5.0,03-12,-0.12499928474426285
02-27,0.9250001907348615,0.6599998474121165,-0.9650001525878835,-0.08500289916992898,2.2399978637695312,1.7600021362304688,-5.100006103515611,5.75,-0.3600006103515767,1.150001525878892,-1.0199966430664062,-6.6199951171875,6.0,6.0,03-13,-0.13874999682108635
02-28,1.4349994659423828,0.45499992370605824,-0.43999862670897727,0.07999801635742188,3.4300003051757812,-0.30500030517578125,-6.260002136230469,6.3800048828125,0.25,3.629997253417983,-0.6399993896484375,-7.479995727539077,7.0,5.0,03-14,0.044583638509115474
02-29,0.0,0.0,0.0,1.529998779296882,0.0,0.0,0.0,8.480003356933608,0.0,0.0,0.0,-8.33999633789064,2.0,1.0,03-15,0.13916714986165424
03-01,2.1499996185302734,0.890001296997081,0.04999923706053977,0.5099983215332031,3.3550033569335795,0.07500457763671875,-4.0,5.1599960327148295,-1.55999755859375,3.9300003051757812,-1.4300003051757955,-15.409996032714858,8.0,4.0,03-16,-0.5233325958251998
03-02,1.4799995422363281,0.9449996948242223,-0.604999542236321,0.5900001525878906,2.9650039672851562,-1.0749969482421875,-4.894996643066406,5.4300003051757955,1.6600036621093892,4.790000915527344,-0.029998779296875,-11.119995117187528,7.0,5.0,03-17,0.011251767476400628
03-03,1.5699996948242188,0.8500003814697301,-2.1100006103515696,1.029998779296868,3.3199996948242188,-1.2399978637695312,-2.2299957275390625,6.309997558593764,1.9800033569335795,2.279998779296861,-1.6800003051757812,-21.970001220703125,7.0,5.0,03-18,-0.9908331235249858
03-04,1.5250005722045898,1.4950008392333949,-1.5250015258789062,1.009998321533196,2.8550033569335938,-2.1149978637695312,-4.040000915527358,4.1200027465820455,2.840003967285142,1.519996643066392,-1.3300018310546875,-25.339996337890625,7.0,5.0,03-19,-1.5820826689402294
03-05,3.255001068115238,1.3050003051757741,-1.0,0.9849967956542898,2.44000244140625,-0.7899932861328125,-2.904998779296875,3.239997863769517,2.4200057983398438,2.1699981689452983,0.1999969482422017,-29.730003356933594,8.0,4.0,03-20,-1.5341663360595723
03-06,2.7850008010864293,1.1750011444091726,-0.17999649047851562,2.0249977111816406,2.709999084472642,-2.4899978637695312,-1.1650009155273438,6.029998779296861,3.2900009155273153,-1.8499984741210938,0.34999847412110796,-28.52999877929689,7.0,5.0,03-21,-1.3208329677581838
03-07,2.745000839233402,0.5949993133544993,-0.029998779296875,1.6899986267089915,2.7699966430664062,-2.4550018310546875,-1.3249969482421875,5.529998779296861,4.790000915527344,-1.1699981689453125,0.9800033569335938,-24.490005493164062,7.0,5.0,03-22,-0.8641668955485023
03-08,2.799999237060547,0.6900005340576172,-0.13500213623046164,0.5999984741210866,1.8349990844726562,-2.5699996948242188,-3.05999755859375,7.3799972534179545,-2.3499984741210938,-1.4500045776367045,1.1900024414062642,-20.850006103515625,6.0,6.0,03-23,-1.3266676266988107
03-09,2.604999542236328,1.2750015258789134,0.01999664306640625,0.6850013732910156,1.6149978637695312,-2.779998779296861,-1.6149978637695312,7.55999755859375,1.3199996948242188,-3.7000045776367045,-0.48000335693357954,-17.69000244140625,7.0,5.0,03-24,-0.9320844014485635
03-10,2.155000686645508,1.1750011444091761,0.9150009155273438,0.5250015258789062,-0.24500274658204546,-2.590003967285142,-0.6200027465820312,6.92999267578125,2.160003662109375,-2.5100021362304545,1.3399963378906392,-29.480003356933594,7.0,5.0,03-25,-1.6870848337809223
03-11,1.8400001525878906,1.0699996948242188,0.3899993896484375,-0.06499862670898438,-0.904998779296875,-2.149993896484361,0.15500640869142046,4.829994201660142,1.5699996948242188,-5.150001525878892,-4.6100006103515625,-14.919998168945312,6.0,6.0,03-26,-1.4954160054524717
03-12,1.2700004577636683,0.634998321533196,0.220001220703125,0.2800025939941406,-2.625,-2.1700057983398295,-3.6199951171875,5.099998474121108,1.9400024414062642,-6.9799957275390625,-4.090003967285142,-4.19000244140625,6.0,6.0,03-27,-1.1858332951863568
03-13,1.9400005340576136,0.4700012207031179,0.4200019836425781,0.5500030517578054,-3.7400054931640767,-2.25,-2.7249984741210938,4.4000015258789205,1.1100006103515625,-4.1399993896484375,-2.970001220703125,-8.48000335693358,6.0,6.0,03-28,-1.2845832506815595
03-14,1.9700012207031214,0.10000228881835227,0.8000030517578196,1.029998779296882,-4.095001220703139,-2.0849990844726562,-3.80999755859375,4.209999084472685,2.089996337890625,-3.1299972534179688,0.40000152587890625,3.2900009155273438,8.0,4.0,03-29,0.06416734059651841
03-15,2.885000228881836,0.7900009155273366,1.289997100830071,0.5699996948242188,-3.630004882812514,-2.7750015258789062,-4.3899993896484375,4.639999389648423,0.9300003051757812,-2.3699951171875,0.0500030517578125,7.340003967285156,8.0,4.0,03-30,0.4441669782002731
03-16,1.9300003051757812,0.5600013732910156,2.5349998474121094,0.595001220703125,-3.5300064086914205,-3.2150039672851562,-3.55999755859375,3.9599990844726562,2.149993896484361,-3.0199966430664062,-0.8699951171875142,2.5800018310546875,7.0,5.0,03-31,0.009583155314124051
03-17,1.4499988555908239,0.07500076293946023,4.384998321533203,0.15999984741210938,-3.8400039672851562,-2.5750045776367188,-1.384994506835909,2.5,1.2799987792968892,-1.30999755859375,0.7700042724609233,3.2999954223632812,8.0,4.0,04-01,0.40083297093709636
03-18,0.9549999237060511,0.6550025939941335,4.2350006103515625,0.615001678466804,-3.5800018310547017,-2.25,-2.0500030517578125,3.0,0.1999969482421875,-3.25,1.9200057983398438,10.680000305175781,8.0,4.0,04-02,0.9275002479553208
03-19,2.185001373291012,0.5600013732910156,3.6850013732910085,0.670001983642571,-3.3549957275390625,0.7399978637695312,-0.31500244140625,3.0100021362304688,-0.339996337890625,-1.6200027465820312,3.3199996948242188,3.3300018310546875,8.0,4.0,04-03,0.9891675313313787
03-20,2.380001068115231,0.28499984741210227,3.325000762939446,1.875,-3.659996032714858,1.259994506835909,-1.7600021362304688,2.5999984741210795,-0.48999786376953125,-5.589996337890611,3.4199981689452983,0.1699981689453125,8.0,4.0,04-04,0.3179165522257425
03-21,1.235000610351559,-0.04000091552735796,3.2700004577636648,0.7700004577636719,-2.2849960327148295,1.0699996948241903,-0.44499969482421875,4.220001220703125,0.5999984741210938,-3.7699966430664205,1.94000244140625,7.3899993896484375,8.0,4.0,04-05,1.1629174550374304
03-22,2.5249996185302734,0.509998321533196,4.20000076293946,1.3600006103515625,-1.625,2.024993896484361,-0.9849929809570312,2.350006103515611,0.5199966430664062,-0.5199966430664205,7.889999389648452,8.230003356933594,9.0,3.0,04-06,2.206667423248289
03-23,3.780000686645508,0.43499755859375,4.034999847412109,1.0149993896484375,-0.5849990844726562,2.0799942016601705,-1.4249954223632812,2.2900009155273438,0.37999725341795454,1.30999755859375,7.520004272460923,7.930000305175781,10.0,2.0,04-07,2.3970831235249825
03-24,3.840000152587894,1.0849990844726634,3.865001678466797,0.13499832153320312,0.00499725341796875,2.274993896484361,-0.635002136230483,3.130004882812486,1.2099990844726562,-1.1399993896484375,7.940002441406236,4.579994201660156,10.0,2.0,04-08,2.1908324559529584
03-25,2.95999908447266,1.3799972534179616,3.4850006103515554,-0.7450027465820312,-1.0800018310546875,0.10000610351561079,1.219993591308608,2.6800003051757812,1.1800003051757812,-0.26000213623046875,7.900001525878892,5.379997253417969,9.0,3.0,04-09,2.016665776570636
03-26,2.0450000762939453,0.6899986267089773,3.5150032043457102,0.4399986267089844,-1.294998168945284,1.0449981689453125,2.4150009155273295,2.6800003051757812,1.4499969482421875,-2.5400009155273438,6.040000915527344,1.3299942016601562,10.0,2.0,04-10,1.4845827420552584
03-27,3.0,0.8449974060058523,3.345001220703132,-0.7449989318847727,-0.38500213623046875,3.0800018310546875,1.584999084472642,1.2099990844726562,2.2300033569335795,-2.3000030517578125,4.1999969482421875,6.089996337890625,9.0,3.0,04-11,1.846249262491859
03-28,2.965000152587887,1.0849990844726562,2.9799995422363352,-1.345001220703125,0.3600006103515767,2.44000244140625,0.8199996948241903,2.4300003051757812,0.8199996948242188,0.3899993896484375,3.1800003051757812,5.1699981689453125,11.0,1.0,04-12,1.7745831807454417
03-29,3.0,1.4599990844726562,2.1750030517578196,-0.5750007629394602,0.25,1.1149978637695312,1.924995422363267,1.1100006103515625,0.29000091552735796,-2.3199996948242188,2.029998779296861,7.430000305175781,10.0,2.0,04-13,1.490832964579263
03-30,4.050001144409173,1.4199981689453125,-1.0849990844726634,-0.6300010681152273,0.25,-1.75,2.5049972534179545,1.0400009155273295,0.8299942016601705,1.019996643066392,0.6800003051757812,11.25,9.0,3.0,04-14,1.6316657066345186
03-31,4.1149997711181605,1.9650001525878977,-1.470001220703125,-1.5699996948242188,1.7249984741210938,-2.8199996948242188,2.0250015258789062,2.7400054931640767,0.9799957275390767,1.019996643066392,0.29999542236328125,10.080001831054688,9.0,3.0,04-15,1.590832869211834
04-01,2.3299999237060547,1.5050010681152344,-1.4150009155273438,-0.4249992370605469,1.0449981689453125,-4.040000915527344,1.75,1.1200027465820312,0.9799957275390767,1.7799987792968608,1.3799972534179688,12.900001525878906,9.0,3.0,04-16,1.5758328437805176
04-02,1.1949996948242152,1.2950019836425781,-2.1100006103515696,-0.9799995422363281,-1.125,-4.364997863769517,1.8450012207031392,2.040000915527358,-0.02000427246092329,1.739997863769517,2.230003356933608,7.75,7.0,5.0,04-17,0.7912502288818398
04-03,-0.06000137329101918,1.2950019836425781,-2.0,0.6100006103515625,0.9150009155273295,-4.419998168945327,1.5250015258789205,2.319999694824247,-0.660003662109375,1.589996337890625,3.8199996948242188,8.050003051757812,8.0,4.0,04-18,1.0820833841959645
04-04,0.08499908447264914,1.4050025939941477,-1.9199981689453196,2.2099990844726562,-0.75,-4.614997863769517,1.5250015258789205,3.159996032714858,0.6200027465820312,2.2900009155273438,3.4000015258789062,1.850006103515625,9.0,3.0,04-19,0.7716677983601917
04-05,0.9200000762939418,1.1200027465820384,-2.479999542236328,1.0900001525878906,0.33499908447265625,-2.2700042724609375,1.2649993896484375,4.319999694824219,-0.26000213623048296,1.5200042724609233,3.44000244140625,2.2700042724609375,9.0,3.0,04-20,0.9391671816507955
04-06,0.5100002288818324,1.2999992370605327,-1.6350021362304688,2.1100006103515625,0.47499847412107954,-0.7200012207031392,1.1949996948242188,4.470001220703111,-0.26999664306640625,3.8000030517577983,4.0,6.6800003051757955,9.0,3.0,04-21,1.8262502352396597
04-07,0.1949996948242152,1.4800033569336009,-1.4650001525878906,2.1100006103515625,4.5999984741210795,3.1949996948242188,1.3899993896484233,5.459999084472656,-1.0500030517577983,3.5800018310546733,2.9899978637695312,0.01000213623046875,10.0,2.0,04-22,1.8745832443237285
04-08,0.3850002288818324,1.279998779296882,-1.0999984741210938,3.375,5.0699996948242045,2.0199966430664062,0.45999908447267046,4.239997863769531,-0.7900009155273438,0.029998779296875,5.459999084472656,-5.339996337890625,9.0,3.0,04-23,1.2574995358784997
04-09,-0.4449996948242152,0.9049987792968821,-0.9000015258789134,3.520000457763672,5.450004577636719,0.33499908447265625,-0.9700012207031108,4.3899993896484375,0.5800018310547017,-0.739997863769517,2.959999084472642,-7.099998474121094,7.0,5.0,04-24,0.6654170354207384
04-10,-0.5249996185302699,0.799999237060554,-0.20000076293946023,4.460002899169915,5.069999694824219,3.1699981689453125,-1.5500030517577983,-1.4199981689452983,0.15000152587889204,-1.480003356933608,2.720001220703139,-3.6100006103515625,6.0,6.0,04-25,0.6320830980936695
04-11,-0.5249996185302699,0.6800003051757812,-0.15000152587891336,3.729999542236328,3.68499755859375,4.239997863769531,-1.5950012207031108,1.5100021362304545,1.9500045776367188,-3.5100021362304688,2.1200027465820312,-3.6100006103515625,7.0,5.0,04-26,0.7104166348775225
04-12,-0.8400001525878871,1.1899986267089844,-0.16500091552733664,3.6699981689453125,4.364997863769531,3.8700027465820312,-1.8549957275390767,-0.34000396728514204,5.7600021362304545,-2.160003662109389,1.0400009155273438,-3.160003662109375,6.0,6.0,04-27,0.9479160308837876
04-13,0.1649990081787145,0.6949996948242188,0.8500022888183594,4.224998474121094,6.7699966430664205,2.9749984741210795,-3.1399993896484375,-0.6800003051757955,6.060005187988281,-2.1200027465820455,0.1699981689453125,-0.9400024414062642,8.0,4.0,04-28,1.2524994214375782
04-14,-0.05000114440917258,-0.27500152587890625,0.5550003051757741,3.634998321533203,7.735000610351577,2.209999084472642,-3.5550003051757955,-1.520004272460966,5.090003967285156,-3.8899993896484517,-0.94000244140625,3.2099990844726562,6.0,6.0,04-29,1.0170826911926223
04-15,-0.5999984741210902,0.09499740600585227,0.47499847412109375,4.159999847412109,6.744995117187514,1.470001220703125,-3.2550048828125284,-2.3600006103515767,5.090003967285156,-4.0699996948242045,1.3399963378906392,3.0099945068359233,8.0,4.0,04-30,1.0083319346110011
04-16,-0.9950008392333949,0.37999725341796164,1.1049995422363281,4.380001068115234,6.235000610351577,0.6849975585937642,-2.2900009155273438,-2.760002136230483,5.900001525878906,-3.7999954223632812,-1.2900009155273438,6.979995727539048,7.0,5.0,05-01,1.2108327547709143
04-17,-0.5850009918212855,-0.1399993896484304,1.375,3.4500007629394602,7.370002746582031,-2.9200057983398295,-2.220001220703125,-2.9800033569335938,4.4499969482421875,-7.200004577636733,0.1100006103515625,2.5699996948241903,6.0,6.0,05-02,0.2733321189880362
04-18,0.46500015258789773,0.5200004577636861,1.6399993896484375,4.284999847412109,2.2750015258789062,-1.459999084472642,-2.7549972534179688,-5.3600006103515625,4.720001220703139,-6.270004272460923,-4.3899993896484375,4.779998779296861,7.0,5.0,05-03,-0.12916660308837477
04-19,0.4300003051757848,0.08500289916992898,0.4949989318847585,3.095001220703132,1.8050003051757812,-1.459999084472642,-3.05999755859375,-5.310005187988281,4.470001220703125,-3.9300003051757812,-1.769996643066392,-0.26999664306640625,6.0,6.0,05-04,-0.45166587829589516
04-20,0.41500091552735086,0.43499755859375,-1.220001220703125,2.9500007629394602,0.8249969482421875,-1.9499969482421875,-1.5649948120117188,-6.569999694824219,2.8299942016601562,-3.160003662109389,-1.769996643066392,-3.0999984741210938,5.0,7.0,05-05,-0.9900000890096017
04-21,1.4300003051757812,-1.0099983215332173,-2.125,3.090000152587905,2.464996337890625,-0.6800003051757812,-1.0100021362304688,-1.670005798339858,3.259994506835966,-3.1699981689452983,-0.4799957275390341,-1.1800003051757812,4.0,8.0,05-06,-0.09000078837076349
04-22,0.8449993133544957,-1.3899993896484446,-1.5200004577636719,3.0949974060058665,4.364997863769531,-0.2350006103515625,-2.409996032714858,-4.600006103515611,1.1899948120117188,-3.9199981689452983,0.3899993896484375,-1.8000030517578125,5.0,7.0,05-07,-0.49916791915893405
04-23,1.239999771118164,-1.8999977111816477,-1.5200004577636719,2.329998016357429,3.4799957275390625,-0.41500091552734375,-1.9150009155273295,-4.010002136230469,1.8799972534179545,-2.4799957275390483,-1.3300018310547017,-1.7199935913085938,4.0,8.0,05-08,-0.5300002098083496
04-24,0.2350006103515625,-1.625000000000007,-1.595001220703118,2.450000762939453,4.120002746582031,2.115005493164091,-0.6299972534179688,-4.019996643066406,2.5499954223632812,0.44000244140625,-2.1800003051757812,-3.9399948120117045,6.0,6.0,05-09,-0.17333189646402639
04-25,0.9500007629394496,-2.9850006103515625,-1.5200004577636719,1.170001983642571,4.114997863769531,2.8800048828125284,0.599998474121108,-4.2900009155273295,-2.3899993896484375,-1.1999969482421733,-1.5100021362304688,-7.1999969482421875,5.0,7.0,05-10,-0.9483327865600536
04-26,-0.149999618530277,-3.4650001525878906,-1.345001220703125,0.3600006103515696,5.105003356933594,3.635002136230483,2.029998779296889,-6.1100006103515625,-2.6300048828125,-0.6499938964844034,-3.790000915527358,-5.6399993896484375,4.0,8.0,05-11,-1.0541663169860849
04-27,0.3450012207031179,-0.9350013732910227,-0.9099998474121094,0.1399993896484446,4.05999755859375,2.404998779296875,4.099998474121108,-4.259994506835923,-3.44000244140625,-0.9199981689453267,-3.0900039672851562,-4.019996643066406,5.0,7.0,05-12,-0.5437501271565749
04-28,0.14999961853027344,-1.7449989318847656,-2.075000762939446,0.3500022888183594,3.4499969482421875,2.5749969482422017,3.285003662109389,-5.349998474121094,-1.9899978637695312,1.1700057983398438,-4.230003356933608,-1.0699996948242045,6.0,6.0,05-13,-0.45666615168253283
04-29,-0.21500015258789773,-1.799999237060554,-2.3400001525878835,0.24500274658202414,3.5550003051757812,3.2050018310546875,1.1600036621093892,-2.970001220703125,-1.6100006103515625,0.23000335693360796,-4.8700027465820455,-8.249999999999986,5.0,7.0,05-14,-1.138332684834797
04-30,-1.0799999237060547,-1.3650016784667969,-2.0699996948242045,-0.024997711181640625,3.035003662109375,2.055000305175753,1.9199981689453267,-3.8199996948242045,-2.0,-5.449996948242173,-6.25,-6.590003967285156,3.0,9.0,05-15,-1.8033331235249814
05-01,-1.0650005340576207,-1.8199996948242188,-2.209999084472649,-1.9599990844726491,5.805000305175781,1.9599990844726562,0.42499542236329546,-3.75,-2.339996337890611,-3.9499969482421875,-3.910003662109361,-3.7600021362304688,3.0,9.0,05-16,-1.3812502225240026
05-02,-2.3050003051757812,-2.249999999999993,-2.8299980163574148,-2.5050010681152415,3.9950027465820312,0.69000244140625,0.1849975585937642,-4.540000915527315,-1.4899978637695312,-2.6800003051757812,-4.819999694824247,-2.5900039672851562,3.0,9.0,05-17,-1.7616666158040346
05-03,-2.045000076293949,-3.095001220703132,-1.7399978637695312,-2.7249984741210938,2.095001220703125,0.33499908447265625,1.8850021362304688,-1.339996337890625,-1.7899932861328267,-1.4599990844726562,-5.689994812011719,-0.8600006103515625,3.0,9.0,05-18,-1.3691649436950704
05-04,-2.1499996185302734,-1.1749992370605398,-1.4850006103515625,-1.9599990844726562,2.3550033569335938,-0.629997253417983,3.3349990844726562,-1.579994201660142,-4.409996032714844,-2.9000015258789062,-4.349998474121108,0.089996337890625,3.0,9.0,05-19,-1.2383322715759284
05-05,-0.8449993133544957,-0.920001983642571,-0.579998016357429,-2.575000762939453,1.8950042724609375,-0.2649993896484375,4.674995422363281,-2.19000244140625,-5.0799942016601705,-2.7099990844726562,-3.3700027465820312,3.5800018310546875,3.0,9.0,05-20,-0.698749701182049
05-06,-0.6350002288818395,-0.19499969482421875,-0.654998779296875,-4.025001525878906,3.5400009155273438,0.28499603271484375,3.970001220703139,-1.9199981689453267,-2.9499969482421875,-1.7999954223632812,-4.5200042724609375,4.4199981689453125,4.0,8.0,05-21,-0.3737498919169111
05-07,0.8850002288818359,0.2849998474121094,-1.0999984741210938,-4.670001983642571,1.9199981689453125,-1.5250015258789205,2.0099945068359375,-1.0500030517577983,-3.0400009155273438,-1.2600021362304545,-6.720001220703139,5.6299972534179545,5.0,7.0,05-22,-0.7195849418640142
05-08,0.38999938964844105,-1.3649978637695241,-1.1749992370605469,-3.4850006103515554,1.9000015258789062,0.44499969482421875,-0.06000518798828125,-1.8000030517577983,-1.6999969482421875,-1.6500015258789062,-5.019996643066406,4.009994506835923,4.0,8.0,05-23,-0.7925004959106431
05-09,0.9799995422363281,-2.764997482299794,-1.6149978637695312,-3.340000152587905,1.81500244140625,0.27500152587889204,0.7999954223632812,-1.2300033569335795,-1.4300003051757812,-4.210006713867173,-4.399993896484361,5.5699996948242045,5.0,7.0,05-24,-0.7958334287007641
05-10,0.9799995422363281,-2.1999988555908168,-2.55999755859375,-2.4650001525878977,1.7099990844726562,-1.1200027465820312,0.7999954223632812,-2.3000030517578125,-1.150001525878892,-3.4000015258789062,-3.7599945068359233,5.5699996948242045,4.0,8.0,05-25,-0.8245838483174633
05-11,0.24499893188476918,-2.4500007629394496,-2.029998779296882,-2.194999694824233,2.1699981689453125,-1.1200027465820312,0.9499969482421733,0.34000396728517046,-0.5199966430664205,2.279998779296875,-2.7699966430664062,4.6699981689453125,6.0,6.0,05-26,-0.035833358764650804
05-12,0.470001220703125,-2.70999908447266,-1.1899986267089844,-1.1599998474121236,2.1699981689453125,-1.5299987792968892,2.3499984741210795,0.8300018310547017,-0.18000030517580967,-0.26000213623046875,-2.7699966430664062,8.550003051757812,5.0,7.0,05-27,0.3808339436848908
05-13,1.5650005340576207,-2.4599990844726634,-0.5699996948242188,-1.1599998474121236,1.8249969482421875,0.5650024414062642,0.6600036621093608,1.620002746582017,-1.040000915527358,-0.26000213623046875,-4.430000305175781,15.760002136230469,6.0,6.0,05-28,1.006250540415442
05-14,0.7000007629394567,-1.6149978637695241,-0.6450004577636719,0.539997100830071,0.01000213623046875,0.7799987792968892,0.1699981689453125,0.15999603271484375,-1.040000915527358,-0.470001220703125,-3.809997558593764,16.37999725341797,7.0,5.0,05-29,0.929999351501464
05-15,0.8050003051757812,-2.1300010681152344,-0.6450004577636719,0.5,0.43000030517578125,2.809997558593764,-1.279998779296875,0.15999603271484375,-1.0699996948242188,0.37000274658203125,-4.430000305175753,15.430000305175781,7.0,5.0,05-30,0.9124997456868525
05-16,-0.13500022888183594,-2.1300010681152344,-0.7600021362304688,1.6749992370605469,0.7750015258789062,2.4449996948242188,-0.8949966430664062,-0.4600067138671733,-0.17000579833985796,-2.4599990844726562,-5.739997863769531,10.5,4.0,8.0,05-31,0.22041591008504233
05-17,0.0049991607666015625,-0.5150032043457102,0.19000244140625,1.7050018310546804,-0.8699951171875,2.1050033569335938,-0.55499267578125,1.5899963378906108,1.0,-2.9800033569335938,-4.589996337890625,10.790000915527344,7.0,5.0,06-01,0.6562511126200334
05-18,0.1949996948242152,-0.779998779296875,-0.19000244140625,2.350002288818345,0.0200042724609375,2.4800033569335938,-1.0199966430664062,1.2900009155273438,0.970001220703125,-3.5199966430664205,-0.5599975585937358,9.819999694824219,7.0,5.0,06-02,0.9212516148885076
05-19,0.6900005340576207,-0.9099998474121094,-1.0849990844726634,1.3600006103515554,-0.375,2.785003662109375,-0.48000335693360796,2.3400039672851562,-0.37000274658203125,-3.5999984741210938,-0.5,10.15000152587892,5.0,7.0,06-03,0.8337505658467602
05-20,0.06500053405761363,1.5850009918212926,-0.645000457763679,1.9500007629394602,-1.7249984741210938,3.3199996948242188,-0.339996337890625,1.7700042724609375,-0.05999755859375,-4.1100006103515625,-3.089996337890611,11.52999877929689,6.0,6.0,06-04,0.8541679382324242
05-21,0.2849998474121058,1.0200023651123153,0.04999923706053977,-0.29000091552734375,-1.9000015258789062,2.2750015258789062,0.3800048828125284,1.5500030517578125,2.7400054931640625,-3.019996643066392,-1.220001220703125,16.590003967285156,8.0,4.0,06-05,1.538335005442305
05-22,-0.01500129699706676,1.600002288818363,-0.24500274658203125,-0.7450027465820241,-1.9950027465820312,3.754997253417983,0.40000152587892046,1.7699966430664205,4.0,-0.40999603271484375,3.2299957275390625,15.5,7.0,5.0,06-06,2.2370823224385625
05-23,-0.21000099182129262,1.215000152587887,-0.8650016784667969,-0.9050025939941264,-3.43499755859375,2.5,1.635002136230483,1.2399978637695312,1.6600036621093608,-0.20999908447265625,5.529998779296875,11.680000305175781,7.0,5.0,06-07,1.6529167493184413
05-24,-0.01000022888183949,0.13000106811523082,-0.9150009155273438,-1.1949996948242116,-3.4199981689453125,2.870002746582017,1.0250015258789205,0.3600006103515625,1.4399948120117188,1.4300003051757812,4.599998474121094,11.120002746582045,8.0,4.0,06-08,1.4529169400533053
05-25,0.010000228881832385,-0.8500003814697195,-0.8250007629394531,-0.6850013732910085,-3.6699981689453125,2.5149993896484375,0.9550018310546733,-0.5500030517578125,0.9399948120117188,0.529998779296875,4.839996337890611,13.949996948242202,7.0,5.0,06-09,1.429998715718587
05-26,-0.3649997711181676,0.13500022888183238,-1.3250007629394531,-1.6450004577636648,-3.029998779296875,3.404998779296861,0.6900024414062358,3.25,0.6100006103515767,2.8899993896484375,5.479995727539034,13.400001525878906,8.0,4.0,06-10,1.9579165776570602
05-27,0.8549995422363317,-1.5899982452392543,-1.6750030517578125,-1.2599983215332031,-1.2050018310546875,3.495002746582017,0.05500030517578125,2.349998474121108,1.3699951171875,2.0499954223632812,6.479995727539034,9.069999694824219,8.0,4.0,06-11,1.6662487983703596
05-28,0.5799999237060547,-1.0799999237060582,-2.125,-0.7099990844726562,-1.529998779296875,2.7750015258789062,1.0299987792968608,3.2699966430664205,1.4399948120117188,3.1100006103515625,6.8799972534179545,6.400001525878906,8.0,4.0,06-12,1.6699994405110663
05-29,0.38999938964844105,-0.31500053405762074,-1.7199974060058665,-1.5699996948242188,-2.600006103515625,2.3000030517577983,1.495002746582017,2.75,3.4499969482421875,2.8899993896484375,9.669998168945312,7.370002746582031,8.0,4.0,06-13,2.0091665585835745
05-30,-0.3950004577636719,0.3899993896484375,-2.2949981689453125,0.9449996948242259,-2.6800003051757812,1.995002746582017,1.4250030517577983,1.5599975585937358,3.6599960327148438,2.0999984741210938,9.75,5.669998168945298,9.0,3.0,06-14,1.843749682108557
05-31,-0.29500007629394176,1.1199989318847727,-2.4300003051757812,-0.7649993896484446,-1.3300018310546875,1.6350021362304545,2.480003356933608,0.01000213623045454,5.209999084472656,2.380004882812486,12.33999633789061,-3.8100051879882812,7.0,5.0,06-15,1.3787500063578255
06-01,-0.45499992370605824,0.7649993896484375,-0.6300010681152273,1.4750022888183594,-2.095001220703125,0.625,2.1100006103515625,-0.9000015258789062,2.339996337890625,1.2900009155273153,9.209999084472642,-1.740005493164091,7.0,5.0,06-16,0.9995824495951279
06-02,-0.8250007629394496,0.42499923706053977,-1.0999984741210938,2.0700035095214844,0.06500244140625,0.9700012207031392,1.3050003051757812,-1.5799942016601562,1.0800018310546875,0.870002746582017,9.1300048828125,-4.3199996948242045,8.0,4.0,06-17,0.6741685867309579
06-03,-0.7649993896484375,1.2900009155273438,-0.4799995422363281,1.9950027465820241,-0.654998779296875,0.6500015258789205,1.0049972534179545,-1.049995422363267,3.1399993896484375,1.529998779296875,8.770004272460923,-6.919998168945298,7.0,5.0,06-18,0.7091677983601894
06-04,-0.8799991607666016,2.375,-0.06499862670898438,3.1850013732910156,1.2750015258789062,-0.6750030517578267,2.2849960327148295,-1.5,2.9599990844726562,2.9499969482421733,3.220001220703125,-6.25,7.0,5.0,06-19,0.7399996121724411
06-05,-0.8999996185302734,3.0100002288818324,0.005001068115234375,2.8950004577636648,3.2900009155273438,0.2200012207031108,2.3549957275390767,-1.1600036621093892,2.8000030517578125,2.5,2.3300018310546875,-9.079994201660156,9.0,3.0,06-20,0.6887505849202453
06-06,-0.5249996185302734,2.820001602172855,0.3250007629394531,2.1850013732910085,1.4499969482421875,-0.6699981689453125,2.619995117187514,0.05999755859373579,2.730003356933608,0.1999969482421733,2.670005798339858,-8.52999877929686,9.0,3.0,06-21,0.4445835749308289
06-07,-0.6750011444091832,3.070001602172855,-0.125,1.7299995422363281,-0.375,-0.7600021362304688,3.759994506835966,0.6500015258789062,2.9300003051757812,2.0500030517578125,1.670005798339858,-8.980003356933594,7.0,5.0,06-22,0.4120833079020218
06-08,-0.7350006103515625,2.3399982452392614,1.6400032043457031,1.1800003051757812,-0.0500030517578125,-0.9449996948242188,3.25,-2.8899993896484375,2.7600021362304688,0.9899978637695312,1.2700042724609375,-9.680000305175781,7.0,5.0,06-23,-0.07249975204467744
06-09,-1.9300003051757884,1.8150005340576207,1.2399978637695455,2.0400009155273438,-2.095001220703125,-0.26999664306640625,3.5449981689453125,-2.620002746582017,0.75,1.2099990844726562,0.8000030517577983,-7.75,7.0,5.0,06-24,-0.27208344141642166
06-10,-1.8700008392333984,0.8899993896484446,1.8149986267089915,0.22999954223632812,-2.6850051879882812,-0.715003967285142,2.349998474121108,-1.4300003051757528,0.5400009155273438,0.37000274658201704,1.6800003051757812,-5.349998474121108,7.0,5.0,06-25,-0.34791739781697234
06-11,-1.2399997711181712,0.15999984741210938,1.9500007629394602,1.115001678466804,-2.6100006103515625,-1.2850036621093608,0.9749984741210795,0.11999511718752842,0.43000030517578125,1.4899978637695312,0.0500030517578125,2.3199996948241903,9.0,3.0,06-26,0.2895827293396002
06-12,-1.0799999237060547,0.5149993896484446,1.5850028991699148,-1.4099998474121094,-1.55999755859375,0.44499969482421875,1.345001220703125,3.529998779296889,0.5400009155273438,1.5800018310546875,-0.7200012207031108,0.25,8.0,4.0,06-27,0.41833384831746656
06-13,-0.5049991607666051,-0.4799995422363281,1.660003662109375,0.464996337890625,-3.1350021362304688,0.09999847412107954,2.5400009155273438,-4.959999084472642,-0.75,2.529998779296889,-1.3800048828125,-1.3199996948242472,5.0,7.0,06-28,-0.4362505276997899
06-14,-0.06999969482421875,-0.5599994659423793,0.7299995422363281,0.8600006103515696,-2.4150009155273438,0.7249984741210795,2.309997558593736,-8.389999389648452,-1.010002136230483,1.1500015258789062,-1.0200042724609233,-0.43000030517579546,5.0,7.0,06-29,-0.6766673723856647
06-15,-0.2049999237060547,-1.345001220703125,2.2449989318847656,-0.3299980163574219,-3.5550003051757812,-0.2200012207031392,2.5800018310547017,-6.060005187988281,-0.25,-0.26999664306639204,0.5999984741210938,-1.0599975585937642,3.0,9.0,06-30,-0.6558334032694498
06-16,0.3950004577636719,-2.770000457763672,2.5149993896484375,-0.6499977111816406,-3.5400009155273438,0.5149993896484233,-1.0199966430664062,-4.470001220703139,-0.09000396728515625,0.1100006103515625,0.9599990844726562,-0.8199996948242472,5.0,7.0,07-01,-0.7387501398722378
06-17,0.3299999237060547,-2.8750019073486435,2.1949996948242188,-0.6399993896484375,-4.849998474121094,3.819999694824247,-1.9499969482421875,-5.690002441406264,-0.04000091552734375,0.720001220703125,1.779998779296875,1.1899948120117188,6.0,6.0,07-02,-0.5008338292439776
06-18,0.4800014495849645,-3.1250019073486435,1.8549995422363281,0.6700019836425852,-4.06500244140625,2.6350021362304688,-3.089996337890639,-5.9300003051757955,-1.4599990844726562,-1.2699966430664062,3.9499969482421733,1.6399993896484517,6.0,6.0,07-03,-0.6424996058146183
06-19,0.5400009155273438,-3.199998855590824,1.8549995422363281,-0.029998779296867895,-2.8649978637695312,2.8199996948242188,-2.5800018310546733,-5.9300003051757955,-1.4599990844726562,-0.3999938964843608,2.9699935913085795,2.339996337890639,5.0,7.0,07-04,-0.49500004450479995
06-20,1.120000839233402,-3.199998855590824,2.6800003051757812,-0.6700019836425781,-0.5,2.1449966430664062,-3.4499969482421875,-4.269996643066406,-0.8199996948242188,-2.4599990844726562,2.899993896484389,2.3899993896484517,5.0,7.0,07-05,-0.3445835113525367
06-21,1.05999946594239,-2.8799991607666016,2.05999755859375,1.229999542236321,0.09000396728515625,2.245002746582017,-1.6699981689453125,-3.540000915527358,-0.06999969482421875,-2.3000030517577983,2.0199966430664062,2.6800003051757812,7.0,5.0,07-06,0.07708326975504438
06-22,0.245000839233402,-2.4850006103515625,1.875,0.34499740600584516,1.2000045776367188,1.9700012207031108,-2.2599945068359375,-5.159996032714858,0.1100006103515625,-3.4199981689453125,1.1899948120117188,5.400001525878906,8.0,4.0,07-07,-0.08249902725220053
06-23,0.7550010681152379,-2.2699985504150426,2.75,1.7749977111816335,1.4550018310546875,2.8950042724609233,-3.19000244140625,-8.25,0.0,-3.1100006103515625,2.1800003051757812,6.189994812011719,7.0,5.0,07-08,0.09833319981892726
06-24,-0.6750011444091726,-0.020000457763671875,2.6749992370605398,2.079998016357429,2.8700027465820312,2.6750030517577983,-2.910003662109361,0.23999786376953125,-0.1399993896484375,-2.3000030517577983,1.05999755859375,6.540000915527358,7.0,5.0,07-09,1.007915973663333
06-25,-1.010000228881836,0.05999946594237926,2.775001525878899,2.1199989318847656,2.6999969482421875,1.1650009155273438,-4.639999389648423,4.279998779296889,-0.7699966430664205,-2.1100006103515625,0.11000061035154829,3.7000045776367188,8.0,4.0,07-10,0.6983337402343741
06-26,-0.875,0.09000015258789062,3.2050018310546946,0.26500320434571023,3.7649993896484375,2.6200027465820312,-4.910003662109389,4.339996337890639,0.18000030517578125,-1.910003662109375,0.4100036621093608,4.3300018310546875,9.0,3.0,07-11,0.9591668446858724
06-27,-1.0200004577636719,0.6800003051757812,2.5800018310546946,-0.6700019836425781,3.5049972534179688,1.8850021362304688,-1.8800048828125,7.629997253417983,0.4900054931640767,-0.3099975585937642,-0.4799957275390625,2.529998779296889,7.0,5.0,07-12,1.2450002034505239
06-28,-0.875,0.8650016784667969,0.904998779296875,-1.3100013732910227,4.814994812011719,-1.1649932861328267,-2.3400039672851562,6.050003051757798,-0.09999847412109375,-1.970001220703125,-1.2999954223632812,1.1399993896484517,5.0,7.0,07-13,0.3929169972737612
06-29,-0.9600009918212926,1.389999389648441,0.3549995422363281,-2.6200027465820455,3.7999954223632812,-1.379997253417983,-0.0800018310546875,6.209999084472685,2.1899948120117188,0.01999664306640625,-3.2199935913085795,3.099998474121108,7.0,5.0,07-14,0.7337489128112816
06-30,-0.16500091552734375,2.4600009918212926,-0.43000030517578125,-1.9099998474121165,4.7949981689453125,-1.0599975585937642,1.80999755859375,5.319999694824219,1.8799972534179688,1.0699996948242188,-2.6299972534179545,3.3199996948241903,7.0,5.0,07-15,1.2049997647603325
07-01,0.17500114440917258,1.7349987030029226,-0.9599990844726562,-2.0199966430664062,4.644996643066406,-0.4349975585937358,1.1100006103515625,4.950004577636719,1.2299957275390625,1.1599960327148438,-1.5899963378906108,5.370002746582031,8.0,4.0,07-16,1.2808338801066093
07-02,1.9749984741210973,1.9749984741210866,-0.7799987792968821,-0.6800003051757812,3.9550018310546875,-1.375,1.0699996948242188,6.819999694824219,1.7900009155273438,1.3099975585937358,-0.37999725341796875,6.550003051757827,8.0,4.0,07-17,1.8525002797444652
07-03,1.539999008178711,1.9799976348876847,-1.520000457763679,-1.375,2.625,-2.1850051879882812,1.8800048828125,5.979995727539048,2.190002441406236,0.37000274658204546,-1.2300033569335938,5.740005493164091,8.0,4.0,07-18,1.3329165776570635
07-05,3.125,0.9499988555908168,-1.3899993896484446,-0.6499977111816406,2.220001220703125,-1.2950057983398295,-3.279998779296875,6.650001525878892,2.2699966430664205,3.940002441406236,-1.3499984741210938,5.380004882812528,7.0,5.0,07-20,1.3808337847391778
07-06,3.270000457763672,0.7950000762939382,-1.6350021362304545,-0.6899986267089773,1.81500244140625,-0.34000396728514204,-3.2999954223632955,5.4099960327148295,3.5499954223632955,3.75,0.23000335693360796,2.0,8.0,4.0,07-21,1.237916469573977
07-07,4.415000915527344,0.7849998474121094,-2.010002136230476,0.4099998474121094,3.3850021362304688,0.5849990844726705,-4.2099990844726705,7.0,2.5999984741210938,2.8300018310546875,0.6200027465820455,0.970001220703125,10.0,2.0,07-22,1.4483337402343757
07-08,4.305000305175781,0.27500152587890625,-1.3850021362304759,4.294998168945305,2.9650039672851562,0.9749984741210938,-4.8899993896484375,3.7099990844726562,2.6199951171875,2.470001220703125,1.1300048828125284,3.69000244140625,10.0,2.0,07-23,1.6800003051757824
07-09,4.319999694824219,0.09000015258789062,-0.45999908447265625,5.239997863769524,1.5999984741210938,1.1449966430664062,-4.5500030517578125,3.4199981689453125,-4.260002136230469,1.0800018310546875,1.009994506835966,6.599998474121094,9.0,3.0,07-24,1.2695817947387713
07-10,4.405000686645511,0.5100021362304652,-0.14499664306640625,4.305000305175781,1.5450057983398438,1.4599990844726562,-6.810005187988281,1.9799957275390625,-4.610000610351548,-0.3899993896484233,3.5499954223632812,4.6399993896484375,8.0,4.0,07-25,0.869999726613365
07-11,3.5900001525878906,1.110000610351559,-0.664997100830071,3.840000152587905,-0.47499847412109375,1.1399993896484375,-8.44000244140625,1.0400009155273438,-5.5800018310546875,2.3000030517577983,2.0999984741210938,2.3000030517578267,8.0,4.0,07-26,0.18833382924397934
07-12,4.45000076293945,1.935001373291005,-0.6499977111816406,3.4149971008300852,-0.3249969482421875,1.1599960327148295,-10.90000152587892,-2.1100006103515767,-4.7299957275390625,5.44000244140625,1.05999755859375,1.450004577636733,7.0,5.0,07-27,0.01625061035155954
07-13,4.495000839233402,1.434997558593743,-1.6700019836425781,2.0750007629394602,0.0449981689453125,1.0149993896484375,-13.279998779296875,-2.709999084472642,-5.650001525878906,5.290000915527358,0.3899993896484375,1.1800003051758097,8.0,4.0,07-28,-0.6154170036315868
07-14,4.340000152587898,2.1400032043457102,-1.7249984741210938,2.6800003051757955,0.8699951171875,0.43999481201171875,-15.220001220703125,-2.5400009155273295,-6.050003051757798,6.9099960327148295,0.43000030517578125,-1.4899978637695312,7.0,5.0,07-29,-0.7679176330566371
07-15,3.225000381469723,2.1199989318847514,-2.3349990844726562,3.0500030517578196,0.05999755859375,1.5550003051757812,-10.060005187988281,-3.1800003051757812,-6.209999084472656,8.29000091552733,0.23000335693357954,-7.040000915527358,7.0,5.0,07-30,-0.8579166730244999
07-16,1.3050003051757741,3.1899986267089773,-1.8549995422363281,4.145000457763679,3.1650009155273438,-0.3999938964843608,-3.25,-3.2100067138671733,-6.80999755859375,7.06999969482419,0.5800018310546875,-4.849998474121108,6.0,6.0,07-31,-0.07666619618733901
07-17,1.1599998474121023,3.344997406005856,-2.079998016357422,3.4300003051757955,2.095001220703125,-1.6350021362304688,-3.2300033569335795,-3.8199996948242045,-6.930000305175781,4.329994201660142,2.3499984741210938,-1.4699935913085795,6.0,6.0,08-01,-0.2045838038126601
07-18,0.7150001525878835,3.33499908447266,-2.2550010681152344,2.634998321533196,0.220001220703125,-2.5600051879882812,-2.279998779296875,-4.590003967285142,-7.699996948242202,3.910003662109375,0.3899993896484375,1.0200042724609375,7.0,5.0,08-02,-0.59666665395101
07-19,1.979999542236321,3.659999847412106,-2.6699981689453196,-1.950000762939446,0.6399993896484375,-2.160003662109375,-2.3300018310546875,-3.709999084472642,-8.489997863769531,3.3400039672851562,-0.12000274658204546,-1.1900024414062358,4.0,8.0,08-03,-1.0833336512247718
07-20,2.27499961853027,3.240001678466797,-3.8149986267089844,-2.8950004577636648,0.35500335693359375,-5.194999694824219,-2.470001220703139,-6.339996337890639,-0.5100021362304688,4.730003356933594,0.4400024414062358,-1.7399978637695312,5.0,7.0,08-04,-0.9937488238016797
07-21,3.1949996948242188,2.6099967956542898,-3.670001983642578,-1.345001220703118,1.5149993896484375,-5.180000305175781,-0.3399963378906108,-4.2599945068359375,-0.1600036621093892,5.319999694824219,-1.2799987792968892,-2.7800064086914205,4.0,8.0,08-05,-0.53125063578288
07-22,3.145000457763672,2.4399986267089844,-3.1500015258789134,-1.5550003051757812,1.31500244140625,-4.745002746582017,-1.5499954223632812,-3.3199996948242188,0.8199996948242188,4.909996032714844,-2.779998779296889,-3.8899993896484375,5.0,7.0,08-06,-0.6966667175292974
07-23,2.3199996948242223,1.6149978637695384,-2.9550018310546875,-0.7750015258789062,1.3799972534179688,-6.049995422363281,0.9599990844726705,-2.2599945068359375,-0.720001220703125,6.539993286132827,-8.0,0.8300018310546875,6.0,6.0,08-07,-0.5929171244303353
07-24,2.27499961853027,1.3400001525878977,-5.435001373291016,0.670001983642571,2.1699981689453125,-5.565002441406264,3.339996337890625,-2.4899978637695312,-0.37999725341795454,4.2699966430664205,-7.1199951171875,1.1000061035156108,7.0,5.0,08-08,-0.48541625340779654
07-25,2.14999961853027,1.0250015258789134,-5.335002899169929,2.0149993896484304,1.1800003051757812,-4.9899978637695455,4.1999969482421875,-2.1599960327148438,-1.970001220703125,0.6800003051757812,-5.279998779296875,1.4300003051757812,7.0,5.0,08-09,-0.5879165331522644
07-26,1.6749992370605398,0.6750030517578196,-6.819999694824219,1.4399986267089844,1.9899978637695312,-4.8899993896484375,2.8199996948242188,-2.279998779296889,-3.3499984741210938,-1.410003662109375,-5.080001831054673,1.209999084472642,6.0,6.0,08-10,-1.168333689371746
07-27,1.6949996948242188,0.48499679565428977,-3.845001220703118,0.345001220703125,-0.04000091552734375,-5.674995422363281,1.529998779296875,-1.7199935913085795,-2.779998779296861,-0.1900024414062358,-5.569999694824219,3.4799957275390625,5.0,7.0,08-11,-1.023749987284339
07-28,1.2700004577636719,0.25,-5.745002746582024,0.06000137329100852,0.3300018310546875,-4.224998474121094,-0.30999755859375,-0.790000915527358,-2.6599960327148295,-0.48999786376951704,-1.779998779296875,7.1599960327148295,5.0,7.0,08-12,-0.5774993896484375
07-29,1.635000228881836,-0.8849983215332031,-5.569999694824212,0.19000244140625,0.26000213623046875,-2.9050064086914205,-4.159996032714844,-0.01999664306642046,-1.8799972534179545,-0.5299987792968608,-3.0999984741210938,10.479995727539062,4.0,8.0,08-13,-0.5404159228006993
07-30,0.5599994659423899,-1.2099990844726491,-5.420001983642571,-0.08499908447266336,0.14499664306640625,-2.4499969482421875,-4.489997863769531,0.02000427246092329,-3.9199981689453125,-2.279998779296861,-6.409996032714858,12.790000915527315,4.0,8.0,08-14,-1.0624988873799666
07-31,0.26499938964844105,-2.0349998474121094,-4.494998931884766,0.3400001525878906,1.1599960327148438,1.8249969482421733,-4.3499984741210795,0.06999969482420454,-4.519996643066406,-4.5800018310546875,-4.3000030517578125,13.33999633789061,6.0,6.0,08-15,-0.6066675186157248
08-01,-0.6450004577636683,-2.1350021362304616,-4.420001983642571,0.21000289916991477,-0.19499969482421875,1.8099975585937358,-3.8400039672851705,-0.6800003051757955,-2.5500030517577983,-2.8800048828125,-5.4499969482421875,13.610000610351562,3.0,9.0,08-16,-0.5970843633015965
08-02,-0.4599990844726598,-2.4050025939941406,-2.549999237060547,0.8950004577636719,0.00499725341796875,0.6949996948241903,-4.350006103515639,0.7699966430664205,-3.2699966430664205,-2.2900009155273438,-3.9499969482421875,11.43000030517581,5.0,7.0,08-17,-0.4566672643025731
08-03,-1.1199989318847656,-1.7549972534179616,-3.720001220703125,0.11500167846679688,0.23999786376953125,0.4750061035156108,-3.1700057983398438,-0.6800003051757812,-0.9300003051757955,-3.9199981689453267,-0.7399978637695312,11.60000610351564,4.0,8.0,08-18,-0.3004156748453794
08-04,-2.034999847412113,-1.5699996948242116,-1.1899986267089844,-0.2350006103515625,-1.55999755859375,0.8250045776367188,-2.279998779296861,-0.5100021362304688,-1.270004272460966,-3.2900009155273438,-1.3399963378906108,11.129997253417969,2.0,10.0,08-19,-0.277083079020182
08-05,-2.079999923706051,-1.5,-1.289997100830071,0.06999969482421875,-1.6500015258789062,2.779998779296889,-2.0199966430664062,-0.8400039672851562,-1.4000015258789205,-2.4199981689453125,-0.23999786376953125,7.029998779296861,3.0,9.0,08-20,-0.2966666221618655
08-06,-1.3649997711181605,-1.1500015258789062,1.1750030517578125,0.17499923706054688,-2.3050003051757812,2.870002746582017,-2.7099990844726562,-0.8900070190429688,-2.4599990844726562,-1.9000015258789062,0.6399993896484517,7.199996948242202,5.0,7.0,08-21,-0.06000057856241714
08-07,-1.3850002288818395,-1.259998321533196,-1.2699966430664062,-1.1799964904785156,-1.05999755859375,3.3799972534179688,-1.4199981689453125,-0.7100067138671875,-3.05999755859375,-0.2299957275390625,-2.559997558593764,4.930000305175781,2.0,10.0,08-22,-0.4854156176249195
08-08,-0.8299999237060547,-2.0900001525878906,-2.0349998474121094,-1.8199996948242188,-1.3600006103515625,1.9300003051757812,-4.1100006103515625,0.25,-1.0100021362304688,1.8300018310546875,-5.9500045776367045,2.9000015258789205,4.0,8.0,08-23,-1.0245836575825986
08-09,-0.9699993133544957,-2.18499755859375,-4.184997558593757,-0.15999984741212359,-1.2900009155273438,2.4500045776367188,-6.739997863769517,0.8399963378906108,1.1699981689452983,1.3899993896484375,-4.630004882812486,2.5,5.0,7.0,08-24,-0.9841666221618673
08-10,-0.2700004577636719,-2.164997100830071,-0.9599990844726634,0.11500167846678977,-1.1149978637695312,2.9500045776367188,-9.400001525878906,1.75,2.299995422363267,3.1399993896484375,-1.8500061035155966,2.4900054931640767,6.0,6.0,08-25,-0.2512496312459292
08-11,-0.5,-1.4200019836425781,-1.5100021362304688,0.4550018310546804,-0.595001220703125,2.6850051879882812,-12.150001525878892,1.6500015258789205,2.899993896484361,4.519996643066406,-2.4500045776367045,0.19000244140625,6.0,6.0,08-26,-0.5187508265177391
08-12,-0.6199989318847692,-0.8549995422363352,-1.5849990844726634,-0.575000762939446,0.45000457763671875,3.3499984741210795,-12.979995727539077,2.4000015258789205,1.0699996948241903,3.6899948120117188,-6.0100021362304545,-1.1699981689452983,5.0,7.0,08-27,-1.0695829391479512
08-13,-1.0799999237060511,-0.5849990844726562,-2.365001678466797,-0.4949989318847656,-1.2449951171875,2.225006103515639,-10.419998168945312,1.9300003051757812,1.150001525878892,4.540000915527358,-5.9199981689453125,1.1399993896484375,5.0,7.0,08-28,-0.9270819028218572
08-14,-0.4200000762939453,-0.6850013732910156,-2.770000457763672,0.4499969482421804,-2.3050003051757812,1.8349990844726705,-11.599998474121108,2.2900009155273438,1.1600036621093608,4.279998779296861,-2.80999755859375,0.969993591308608,6.0,6.0,08-29,-0.800417105356854
08-15,0.3850002288818395,-0.595001220703125,-2.140003204345703,-0.2700004577636719,-1.5050048828125,1.4850006103515625,-11.16000366210939,1.2900009155273438,1.2099990844726705,2.8400039672851705,-0.5900039672851705,1.0299987792968892,6.0,6.0,08-30,-0.6683344841003404
08-16,1.1099987030029297,0.2949981689453196,0.14500045776367898,-0.16500091552734375,-1.4150009155273438,0.7350006103515625,-9.069999694824247,3.9499969482421875,0.12000274658204546,3.7600021362304688,-1.69000244140625,1.8700027465820312,8.0,4.0,08-31,-0.029583454132080078
08-17,1.4849987030029297,-1.1299972534179688,0.5900001525878906,-0.2700004577636719,-0.5250015258789062,0.7350006103515625,-8.15000152587892,3.69000244140625,1.129997253417983,3.2400054931640625,-2.5900039672851705,3.200004577636733,7.0,5.0,09-01,0.11708370844523112
08-18,1.2250003814697195,-0.7099990844726562,3.089996337890625,0.2749977111816406,-0.5250015258789062,0.834999084472642,-9.279998779296875,2.1100006103515483,1.7299957275390767,1.9300003051757812,-2.5900039672851705,1.7099990844726705,8.0,4.0,09-02,-0.01666784286499201
08-19,0.3250007629394531,1.2850036621093892,3.854999542236328,0.2749977111816406,-0.30999755859375,0.6149978637695455,-11.150001525878906,1.1499938964843608,1.4199981689453267,1.9300003051757812,-1.480003356933608,5.3600006103515625,9.0,3.0,09-03,0.27291584014892695
08-20,0.38999938964844105,1.3800010681152486,3.8249969482421875,-0.33500289916991477,-1.3799972534179688,0.5550003051757812,-6.3400039672851705,0.6699981689452983,1.4199981689453267,0.9300003051757812,0.48999786376954546,7.740005493164077,9.0,3.0,09-04,0.778749465942386
08-21,-0.3099994659423828,1.5750007629394602,3.8249969482421875,1.2749977111816406,-0.9499969482421875,-0.7750015258789062,-3.6800003051757812,0.6699981689452983,1.9300003051757812,-0.5400009155273438,-0.26999664306642046,7.75,6.0,6.0,09-05,0.8749998410542789
08-22,-0.11000061035155895,1.5750007629394602,3.0449981689453125,-1.440002441406243,-0.6049957275390625,-0.5100021362304688,1.269996643066392,0.7700042724609375,0.04999542236328125,-0.7200012207031392,1.4199981689453125,4.900001525878906,7.0,5.0,09-06,0.8037494023640942
08-23,-0.11000061035155895,1.9549980163574219,1.2150001525878906,-0.1100006103515696,-1.6500015258789062,-1.3499984741210795,1.269996643066392,0.599998474121108,-0.18999481201171875,0.8300018310546875,4.9799957275390625,4.900001525878906,7.0,5.0,09-07,1.028333028157553
08-24,-0.020000457763668322,2.885002136230476,0.654998779296875,-0.19000244140625,-0.6650009155273438,-1.3050003051757528,1.7200012207031108,1.230003356933608,0.48999786376954546,-0.02000427246095171,4.349998474121094,1.7099990844726562,7.0,5.0,09-08,0.9033327102661165
08-25,0.2999992370605469,1.5699996948242259,1.9650001525878835,-0.30500030517577414,0.15000152587890625,-1.1349945068359233,2.259994506835966,-0.01999664306640625,0.4799957275390767,-0.5299987792968608,6.1699981689453125,2.7900009155273438,8.0,4.0,09-09,1.1412499745686915
08-26,0.8249988555908203,1.8899993896484446,1.3350028991699148,1.8100013732910227,-0.5100021362304688,-1.2700042724609375,3.3000030517578125,0.9800033569335938,0.04999542236329546,0.8700027465820455,8.610000610351562,1.0400009155273153,10.0,2.0,09-10,1.577500184377035
08-27,0.6350002288818395,1.0,-0.23999786376954546,1.8800010681152415,1.94000244140625,-1.8899993896484517,0.909996032714858,-0.8699951171875,-0.1399993896484233,0.3800048828125284,9.099998474121108,4.549995422363281,8.0,4.0,09-11,1.4379172325134322
08-28,0.2600002288818395,1.80999755859375,-0.32500076293946023,3.450000762939453,3.975006103515625,-1.4899978637695312,-0.01000213623046875,-2.2999954223632955,-0.5600051879882812,2.2199935913085795,8.239997863769531,3.2199935913085795,7.0,5.0,09-12,1.5408323605855268
08-29,0.5299987792968786,1.914997100830071,-1.1949996948242259,3.0800018310546946,4.114997863769531,-1.6999969482421875,0.80999755859375,-6.739997863769531,2.0400009155273438,0.92999267578125,7.540000915527344,4.939994812011719,9.0,3.0,09-13,1.3554156621297198
08-30,0.7950000762939489,2.644996643066399,-1.6800003051757812,3.6399993896484304,4.1049957275390625,-1.3649978637695312,1.3499984741210938,-4.519996643066392,2.8800048828124716,1.3699951171875,6.8899993896484375,5.339996337890611,9.0,3.0,09-14,1.7874992688496876
08-31,0.9499988555908239,2.904998779296875,-0.9499969482421804,2.875,3.6049957275390625,-1.8850021362304688,1.4300003051757812,-4.7199935913085795,0.7399978637695455,1.4899978637695312,7.25,6.6999969482421875,9.0,3.0,09-15,1.6991661389668815
09-01,1.9149990081787074,1.589996337890618,0.4850006103515625,3.799999237060547,2.8299942016601562,-2.7550048828125,2.8100051879882812,-5.3000030517578125,0.4700012207031392,2.1500015258789205,7.779998779296875,6.210006713867216,10.0,2.0,09-16,1.8320829073588092
09-02,2.7399997711181605,1.3549995422363281,1.2150001525878906,5.2050018310546875,2.6149978637695312,-2.7399978637695312,0.75,-6.3600006103515625,1.6199951171875284,3.069999694824247,8.949996948242173,3.9399948120116903,10.0,2.0,09-17,1.8633322715759286
09-03,2.8899993896484375,0.8249969482421804,1.4000015258789062,5.334999084472656,3.9949951171875,-1.5049972534179545,1.089996337890625,-6.940002441406264,3.040000915527358,2.290000915527358,4.930000305175781,6.24999237060544,10.0,2.0,09-18,1.9666652679443353
09-04,2.5,1.6749992370605398,2.1100006103515625,5.165000915527344,3.2099990844726562,-0.8949966430664205,1.7600021362304545,-6.380004882812528,2.8600006103515625,3.1100006103515625,5.69000244140625,6.429992675781222,10.0,2.0,09-19,2.269583066304517
09-05,2.25,1.9750022888183523,2.720001220703125,4.340000152587891,3.6199951171875,-1.06500244140625,-1.3300018310546875,-7.410003662109389,3.3600006103515625,2.6699981689453125,6.090003967285156,8.049995422363267,9.0,3.0,09-20,2.1058324178059866
09-06,1.9449996948242223,1.8850021362304616,2.2600021362304688,2.1199989318847727,4.279998779296875,-1.0449981689453125,-1.94000244140625,-6.540000915527358,4.139999389648423,3.0500030517577983,3.6500015258789062,8.260002136230483,9.0,3.0,09-21,1.8387505213419575
09-07,2.130001068115231,2.190002441406243,1.2549972534179759,2.049999237060554,3.0849990844726562,-0.37999725341796875,-3.2099990844726705,-5.470001220703111,4.799995422363281,3.5400009155273153,2.9199981689452983,4.779998779296889,9.0,3.0,09-22,1.4741662343343078
09-08,2.14999961853027,1.5450019836425781,-0.6499977111816406,0.7249984741211009,3.1750030517578125,-0.5550003051757812,-2.9500045776367045,-2.840003967285142,5.220001220703139,2.9600067138671733,4.180000305175753,-0.9099960327148295,7.0,5.0,09-23,1.0041673978169774
09-09,1.8299999237060582,1.3850021362304688,0.220001220703125,1.2900009155273509,2.3199996948242188,-0.8900070190429688,-4.479995727539048,1.5999984741210938,2.909996032714858,3.8300018310546875,2.75,-4.519996643066406,9.0,3.0,09-24,0.6870834032694532
09-10,1.029998779296875,0.6550025939941406,0.20999908447265625,0.8999977111816406,-0.1450042724609375,-2.0900039672851562,-6.6999969482421875,-0.3000030517578267,3.089996337890611,3.8900070190429688,1.0800018310546875,-7.419998168945298,7.0,5.0,09-25,-0.48333358764648554
09-11,0.875,0.220001220703125,-1.5100021362304616,0.4699974060058594,-0.47499847412109375,-0.44000244140625,-6.779998779296875,0.37999725341795454,2.8600006103515767,0.10000610351561079,-1.4499969482421875,-8.779998779296875,6.0,6.0,09-26,-1.2108329137166347
09-12,0.5699996948242223,-0.095001220703125,-2.1500015258789062,-0.3699989318847656,0.8850021362304688,0.43000030517578125,-4.220001220703125,0.5099945068359233,2.470001220703139,-0.48999786376953125,-1.5499954223632812,-11.890007019042997,5.0,7.0,09-27,-1.3250004450480164
09-13,0.30500030517578836,0.6399993896484375,-1.125,-1.9900016784667969,1.0999984741210938,0.4149932861328125,-6.0500030517578125,0.9799957275390625,3.4500045776367188,-2.559997558593764,-2.7199935913085795,-11.260009765625014,6.0,6.0,09-28,-1.5679178237915046
09-14,-0.12999916076660156,0.720001220703125,-0.7400016784667969,-2.1199989318847656,-0.279998779296875,-1.1500015258789062,-5.82000732421875,1.7699966430664205,1.5099945068359233,-1.779998779296875,1.3000030517578125,-9.960006713867216,4.0,8.0,09-29,-1.390001455942792
09-15,-0.3250007629394496,0.7550010681152344,-2.9599990844726562,-1.9500007629394531,0.7249984741210938,-0.6300048828125,-9.769996643066406,2.3300018310547017,1.6899948120117188,-2.5999984741210795,1.3000030517578125,-8.180000305175767,5.0,7.0,09-30,-1.6345834732055626
09-16,-0.5749988555908203,0.33499908447265625,-3.5699996948242188,-1.6349983215332031,0.035003662109375,-0.5299987792968892,-9.120002746582031,3.3600006103515625,1.1899948120117188,-4.0,2.8600006103515625,-8.709991455078097,5.0,7.0,10-01,-1.6966659228006986
09-17,-0.5349998474121129,0.4249992370605469,-3.1100006103515625,-1.8300018310546875,0.8499984741210938,-2.5449981689452983,-6.769996643066406,2.4899978637695312,2.0499954223632955,-3.8600006103515625,1.3000030517578267,-7.1699981689453125,5.0,7.0,10-02,-1.5587501525878873
09-18,-0.7200012207031214,0.11999893188476562,-2.6850013732910156,-0.9499969482421946,-0.5,-5.995002746582031,-5.499999999999986,0.9799957275390767,1.8600006103515767,-3.5199966430664062,-2.559997558593736,-3.6899948120117188,3.0,9.0,10-03,-1.9299996693928991
09-19,-0.7399997711181605,0.06999969482421875,-3.529998779296875,-1.3050003051757955,-0.6750030517578125,-5.819999694824219,-5.759994506835952,2.279998779296875,2.660003662109375,-4.840003967285142,-6.279998779296861,2.0,4.0,8.0,10-04,-1.8283330599466956
09-20,-1.5649986267089773,0.214996337890625,-4.4199981689453125,-0.8800010681152415,0.18000030517578125,-4.254997253417969,-3.319999694824247,2.180000305175753,3.180000305175753,-7.189994812011719,-4.849998474121108,1.6999969482421875,5.0,7.0,10-05,-1.585416158040373
09-21,-1.715000152587887,0.024997711181640625,-1.4350013732910156,-0.48999786376953125,1.6100006103515625,-4.254997253417969,-0.7899932861328267,-0.40999603271485796,3.270004272460966,-7.25,-3.9399948120117188,3.1899948120117188,4.0,8.0,10-06,-1.01583194732666
09-22,-1.2899990081787145,0.9599990844726562,1.3300018310546733,-0.09999847412110086,1.535003662109375,-3.9149932861328267,2.9699935913085795,-1.55999755859375,3.5,-3.959999084472642,-3.75,5.099998474121094,6.0,6.0,10-07,0.06833410263061197
09-23,-0.5100002288818324,1.6550025939941335,1.970001220703118,0.10499954223632102,3.7399978637695312,-3.5049972534179545,3.4599990844726562,-1.6899948120117188,3.099998474121108,-4.2300033569335795,-1.7299957275390483,6.2300033569335795,7.0,5.0,10-08,0.7162508964538595
09-24,-0.3250007629394531,0.920001983642571,0.15999984741209516,0.56500244140625,2.220001220703125,-7.05999755859375,6.199996948242202,-0.55999755859375,3.8699951171875,-4.6700057983398295,-0.5200042724609375,9.99000549316402,7.0,5.0,10-09,0.8991664250691702
09-25,0.10999870300293679,0.9900016784667898,0.634998321533196,1.345001220703125,-0.9150009155273438,-3.94000244140625,5.970001220703139,0.05000305175779829,4.1199951171875,-1.9599990844726562,-4.310005187988281,8.690002441406222,8.0,4.0,10-10,0.8987495104471813
09-26,-0.4449996948242152,0.8850021362304688,0.5200004577636648,0.5550003051757812,-2.0849990844726562,-4.459999084472656,9.799995422363295,-8.409996032714844,4.1299972534179545,-11.830001831054673,-2.0800018310546875,7.2000045776367045,6.0,6.0,10-11,-0.5183331171671552
09-27,0.23000144958495738,1.2150001525878906,0.960002899169929,0.06499862670898438,-1.3950042724609375,-4.965003967285156,11.259994506835938,-8.599998474121108,4.3899993896484375,-9.389999389648423,-3.6399993896484375,13.250007629394545,7.0,5.0,10-12,0.2816665967305516
09-28,0.49500083923339844,0.9300003051757812,2.354999542236328,0.26000213623046875,-2.2900009155273438,-6.715003967285156,11.459999084472656,-11.26999664306642,3.5600051879882812,-9.52999877929686,-3.9300003051757955,14.140007019042983,7.0,5.0,10-13,-0.044582207997639976
09-29,0.6849994659423828,1.2999992370605469,2.7050018310546804,-0.0950012207031179,-1.1650009155273438,-7.9550018310546875,11.389999389648438,-10.119995117187528,3.75,-10.150001525878906,-2.849998474121108,15.720001220703097,6.0,6.0,10-14,0.2679168383280377
09-30,1.2150001525878906,1.7199974060058665,3.5499992370605398,-0.04500198364257102,-0.154998779296875,-10.075004577636733,9.489997863769531,-11.419998168945327,1.410003662109375,-13.370002746582045,0.6599960327148295,11.490005493164091,7.0,5.0,10-15,-0.4608338673909523
10-01,2.4849987030029297,1.5750007629394602,4.540000915527337,-0.6599998474121023,-0.339996337890625,-6.7949981689453125,7.190002441406264,-11.5,2.4000015258789062,-14.660003662109375,0.3399963378906108,12.80999755859375,7.0,5.0,10-16,-0.21791664759317975
10-02,2.6350002288818395,2.0,4.494998931884766,0.7550010681152415,-0.5800018310546875,-5.334999084472656,4.659996032714844,-11.31999969482419,2.5,-14.05999755859375,3.7999954223632812,11.319999694824219,8.0,4.0,10-17,0.07249943415324218
10-03,1.9949989318847692,2.045001983642571,5.5149993896484375,0.6049995422363281,-0.13500213623046875,-5.675003051757798,2.7300033569335938,-10.840003967285142,1.1800003051757955,-10.550003051757812,4.3600006103515625,8.669998168945312,8.0,4.0,10-18,-0.008334159851070963
10-04,2.270000457763672,2.2649993896484304,3.5849990844726562,0.9750022888183594,-2.339996337890625,-5.385002136230483,4.670005798339858,-9.389999389648423,0.6999969482421733,-10.33999633789061,2.339996337890611,10.82000732421875,8.0,4.0,10-19,0.014167785644530658
10-05,1.8799991607666016,1.4399986267089773,3.9850006103515696,0.5149993896484304,-0.845001220703125,-4.720001220703139,6.150001525878892,-8.770004272460923,-0.15000152587892046,-9.89999389648436,3.25,11.240005493164062,7.0,5.0,10-20,0.33958355585733874
10-06,1.970001220703118,0.5049972534179759,2.5649986267089844,0.625,3.279998779296875,-2.010002136230483,7.779998779296875,-9.630004882812472,-0.40000152587892046,-11.459999084472642,5.529998779296861,9.77000427246098,8.0,4.0,10-21,0.7104158401489293
10-07,1.6700000762939418,1.4549980163574219,2.6799964904785156,0.68499755859375,3.9300003051757812,2.3799972534179688,7.06999969482419,-1.1700057983398295,0.23999786376951704,-10.59000396728517,8.520004272460938,5.690002441406278,10.0,2.0,10-22,1.8799986839294418
10-08,0.2249984741210973,1.125,1.1999969482421804,0.005001068115234375,6.900001525878906,3.2549972534179688,4.870002746582031,-1.2900009155273295,1.6699981689453267,-8.19000244140625,12.330001831054688,-0.9600067138671875,9.0,3.0,10-23,1.7616656621297222
10-09,-0.04000091552734375,1.2299995422363281,2.1199989318847585,0.9949989318847656,8.819999694824219,3.8400039672851562,4.6699981689453125,-1.1899948120117188,5.1200027465820455,3.100006103515611,10.689994812011719,-1.850006103515625,9.0,3.0,10-24,3.125416755676269
10-10,-0.220001220703125,0.8349990844726562,3.6199989318847585,0.09000015258789062,6.8600006103515625,5.0800018310546875,3.3000030517578125,-1.4700012207031392,4.510002136230483,1.0299987792968608,8.80999755859375,-2.020004272460909,9.0,3.0,10-25,2.535416285196941
10-11,0.2849998474121094,0.7150001525878906,4.095001220703125,0.8549995422363281,5.849998474121094,8.560005187988281,6.2800064086914205,0.9399948120117188,5.029998779296861,1.4000015258789205,5.3000030517578125,-2.350006103515568,11.0,1.0,10-26,3.0800002415974994
10-12,-0.38500022888183594,0.9150009155273438,2.3849983215332102,1.4699974060058594,6.159996032714844,9.15499877929689,6.650001525878892,-0.7200012207031108,4.319999694824219,2.69000244140625,7.260002136230469,-1.7799987792968466,9.0,3.0,10-27,3.1766664187113487
10-13,-1.2150001525878906,0.5300025939941335,3.595001220703125,0.5149993896484375,6.665000915527344,9.630004882812486,6.75,0.3999938964843608,4.220001220703125,1.6299972534179688,6.370002746582031,-2.2400054931640625,10.0,2.0,10-28,3.0708332061767547
10-14,-1.264999389648441,0.21999740600585938,2.575000762939453,0.5149993896484375,7.894996643066406,7.5100021362304545,5.6100006103515625,-0.0800018310546875,4.5500030517578125,7.55999755859375,6.8300018310546875,-7.1999969482421875,9.0,3.0,10-29,2.8933334350585924
10-15,-2.4150009155273438,0.0,3.5100021362304688,0.5149993896484375,7.7050018310546875,7.444999694824219,5.0699996948242045,-0.14000701904296875,5.5,6.680000305175781,5.5,-11.530006408691406,8.0,4.0,10-30,2.31999905904134
10-16,-2.0249996185302734,-0.055000305175774145,5.545001983642578,-0.9000015258789062,9.644996643066392,5.1100006103515625,3.5900039672851705,0.6899948120117188,4.760002136230469,4.709999084472656,6.090003967285142,-11.950004577636719,8.0,4.0,10-31,2.100833098093668
10-17,-2.360000610351559,-0.1399993896484304,5.765003204345703,-1.4249992370605398,3.595001220703125,2.4000015258789062,3.1500015258789062,0.20999908447267046,3.2000045776367188,6.0999984741210795,4.740005493164077,-9.110008239746122,8.0,4.0,11-01,1.343750635782878
10-18,-1.7800006866455078,-0.09000015258788352,2.8400001525878906,-1.0049972534179688,2.9449996948242188,0.43500518798828125,3.0999984741210938,0.31999969482419033,3.3600006103515625,6.099998474121108,1.75,-6.220001220703153,8.0,4.0,11-02,0.9795835812886526
10-19,-2.7700004577636683,0.4500007629394531,2.8800010681152344,-0.3250007629394531,2.5250015258789062,0.5850067138671733,3.0800018310547017,0.18000030517575283,1.6100006103515483,3.6999969482421875,1.3000030517578125,-4.600006103515653,9.0,3.0,11-03,0.717917124430333
10-20,-1.8599987030029297,0.09000015258789062,3.009998321533203,-0.30999755859375,2.9850006103515625,6.2550048828125,2.6200027465820455,-0.28000640869142046,-1.8400039672851705,3.42999267578125,0.4400024414062642,0.5499877929687216,8.0,4.0,11-04,1.2574985822041806
10-21,-0.8449993133544922,0.6100006103515625,1.5099983215332031,2.0500030517578054,3.0699996948242188,2.165000915527358,3.5500030517577983,0.0,-0.970001220703125,5.079994201660142,0.7600021362304545,2.8300018310546875,9.0,3.0,11-05,1.6508336067199678
10-22,-1.5100002288818395,0.7299995422363281,1.1499977111816406,1.1100006103515625,1.6700057983398438,2.3799972534179688,0.23999786376951704,-0.8600006103515625,-0.7299957275390625,5.25,2.8199996948242188,-0.8899993896484375,8.0,4.0,11-06,0.9466668764750148
10-23,-0.8400001525878942,0.279998779296875,2.1300010681152344,3.1199989318847656,2.4350051879882812,5.175003051757798,-0.12999725341795454,-1.489997863769517,-0.3600006103515625,5.819999694824247,4.4199981689453125,-1.460006713867159,7.0,5.0,11-07,1.5916668574015356
10-24,-0.274999618530277,0.8999977111816335,2.055000305175774,3.010002136230476,1.6699981689453125,4.699996948242202,-0.06999969482421875,-0.43000030517575283,-1.1000061035156108,9.580001831054688,6.19000244140625,1.4799957275390625,8.0,4.0,11-08,2.309165795644128
10-25,0.4899997711181605,1.1699981689453125,3.1850013732910156,2.3100013732910156,0.44000244140625,6.324996948242202,-0.720001220703125,3.1299972534179688,-1.3800048828125,5.819999694824219,5.730003356933594,6.929992675781222,10.0,2.0,11-09,2.7858322461446114
10-26,0.2950000762939453,0.8949966430664062,2.259998321533196,2.259998321533196,0.9550018310546875,6.744995117187514,-0.9300003051757812,2.220001220703111,-2.549995422363267,6.6999969482421875,6.060005187988281,7.429992675781222,10.0,2.0,11-10,2.6949992179870583
10-27,0.9349994659423864,0.7450027465820241,-1.7550010681152344,1.779998779296875,-0.625,7.149993896484403,-1.1999969482421875,1.94000244140625,-1.8099975585937358,6.6399993896484375,6.12000274658206,14.479995727539062,8.0,4.0,11-11,2.8666666348775287
10-28,1.860000610351559,0.7099990844726562,-1.9750022888183594,0.2649993896484375,0.34000396728515625,5.440002441406264,-3.209999084472642,2.4199981689452983,-0.04000091552732954,5.779998779296875,5.209999084472628,17.610008239746094,9.0,3.0,11-12,2.86750062306722
10-29,1.3850002288818395,0.6599998474121094,-0.49500274658203125,0.14999771118163352,-1.674995422363267,6.604995727539048,-2.6699981689453125,2.160003662109389,-1.0300064086914205,4.819999694824219,4.149993896484418,14.54998779296875,8.0,4.0,11-13,2.384164651234948
10-30,2.375,0.6749992370605469,-0.095001220703125,0.19499969482421875,0.42499542236326704,5.774993896484403,-2.6500015258789205,3.740005493164091,-1.4900054931640625,1.1800003051757812,4.269996643066406,12.92999267578125,9.0,3.0,11-14,2.2774979273478215
10-31,1.8449993133544922,0.720001220703125,0.8499984741210938,0.18499755859375,1.0199966430664205,0.10499572753907671,-2.3899993896484375,2.6399993896484517,-1.6899948120117188,-0.7799987792968608,5.200004577636733,7.470001220703153,9.0,3.0,11-15,1.2645834287007733
11-01,1.3699989318847656,0.05500030517578125,1.345001220703125,-2.745002746582017,0.9349975585937642,1.7649993896484375,-4.790000915527344,3.3100051879882812,-1.5699996948242188,-1.3899993896484233,4.880004882812543,4.690002441406278,8.0,4.0,11-16,0.6545839309692477
11-02,1.4349994659423828,-0.3899993896484375,0.3250007629394531,-1.8050003051757741,0.5799942016601705,2.430000305175753,-3.1699981689453125,3.850006103515639,-2.7700042724609375,-1.5600051879882812,2.2300109863281534,7.640014648437528,7.0,5.0,11-17,0.7329182624816948
11-03,1.7250003814697266,-1.154998779296875,-1.8650016784667969,-2.7350006103515554,1.05999755859375,1.7649993896484375,-2.240005493164034,4.6100006103515625,-3.1399993896484375,-1.099998474121108,1.660003662109375,7.410003662109375,6.0,6.0,11-18,0.49958340326945166
11-04,1.7999992370605504,-1.5249977111816335,-1.7900009155273366,-3.2649993896484375,0.719993591308608,3.4300003051757812,-2.1500015258789062,3.5500030517577983,-2.9499969482421875,0.6300048828124858,1.410003662109375,10.460006713867159,7.0,5.0,11-19,0.8600012461344381
11-05,0.6599998474121129,-1.7949981689453125,-1.9850006103515625,-3.0799980163574148,0.6649932861328267,1.625,1.0200042724609375,2.0100021362304688,-2.329994201660142,0.7200012207031108,0.02999877929684658,5.010009765625,8.0,4.0,11-20,0.21250152587890594
11-06,0.8549995422363281,-1.5049972534179688,-3.095001220703125,-1.569999694824233,0.9799957275390483,2.285003662109375,1.2300033569335938,2.2600021362304688,-2.5099945068359375,0.3399963378906392,-0.9800109863281534,4.510009765625,7.0,5.0,11-21,0.23333390553791963
11-07,-0.1800003051757848,-0.7699966430664062,-2.6500015258789062,-0.2949981689453196,1.279998779296875,1.8800048828124858,2.5,0.840003967285142,-1.4599990844726705,-1.8300018310546733,-3.330001831054716,1.4000091552734375,5.0,7.0,11-22,-0.21791521708171135
11-08,-0.6949996948242223,-0.8549995422363352,-3.7749977111816335,1.970001220703118,0.31499481201171875,2.1949996948242045,1.6399993896484517,1.4500045776367188,-1.240005493164091,-2.790000915527358,-2.419998168945284,1.4000091552734375,6.0,6.0,11-23,-0.23374938964843958
11-09,-0.8099994659423864,-0.4550018310546804,-1.7949981689453125,2.085002899169922,0.01999664306640625,3.1949996948242045,2.8899993896484517,0.900001525878892,0.20999908447267046,-1.8300018310547017,-2.699996948242216,1.4000091552734375,7.0,5.0,11-24,0.25916751225789064
11-10,-0.2200012207031179,-0.33499908447265625,-2.4750022888183594,2.0400009155273366,0.5800018310546875,4.540000915527315,4.3499984741210795,-0.25,0.6699981689453125,0.4799957275390483,-3.5199966430664347,0.4499969482421875,7.0,5.0,11-25,0.5258328119913666
11-11,-0.3250007629394496,-1.095001220703125,-3.420001983642578,2.1399993896484375,0.80999755859375,5.1550064086914205,3.8600006103515625,0.8500061035156392,0.7899932861328267,1.409996032714858,-3.789993286132841,0.6200103759765625,8.0,4.0,11-26,0.583751042683922
11-12,-0.19000053405761363,-0.43000030517578125,-3.0100021362304688,2.9500007629394602,0.8400039672851705,5.835006713867173,6.279998779296861,0.5699996948242472,0.719993591308608,1.8899993896484375,-2.4599990844726562,3.4000091552734375,8.0,4.0,11-27,1.366250832875573
11-13,-0.2550010681152308,-0.470001220703125,-3.8600006103515625,2.7800025939941335,-0.2149963378906392,5.084999084472685,4.6599960327148295,1.5399932861328267,1.5499954223632955,3.029998779296861,-2.5300064086914347,0.4499969482421875,7.0,5.0,11-28,0.9804147084554021
11-14,-0.7900009155273402,0.4650001525878906,-3.920001983642578,3.0400009155273366,-0.22499847412110796,5.75,3.5400009155273153,2.0799942016601562,1.5,0.45000457763670454,-0.03999328613278408,-1.0,7.0,5.0,11-29,0.9041671752929661
11-15,-0.3800010681152344,0.384998321533196,-2.3999977111816406,3.325000762939453,0.11500549316403408,5.034996032714858,4.5100021362304545,1.1199951171875,3.9499969482421875,0.55999755859375,0.21000671386721592,-1.0,9.0,3.0,11-30,1.2858333587646478
11-16,-1.0499992370605469,1.1100006103515625,-0.8950004577636719,3.1399993896484304,0.24000549316403408,5.80999755859375,4.2600021362304545,1.6399993896484375,3.0,0.470001220703125,0.7900085449219318,-1.0,9.0,3.0,12-01,1.459584554036459
11-17,-0.9149990081787109,0.9399986267089844,2.520000457763672,0.924999237060554,-0.05500030517579546,6.745002746582031,4.029998779296861,-0.6800003051757812,3.1800003051757955,-0.05999755859376421,0.2700042724609375,0.0,7.0,5.0,12-02,1.4083339373270654
11-18,-0.2999992370605504,1.154998779296875,2.075000762939453,1.2949981689453196,-0.2949981689453267,5.684997558593764,2.529998779296889,0.7399978637695455,2.1300048828125284,0.7700042724609233,-0.08000183105465908,0.0,8.0,4.0,12-03,1.3087501525878968
11-19,0.5349998474121094,1.240001678466804,2.9599990844726562,2.109996795654304,-0.549995422363267,4.235000610351548,1.9699935913085795,-0.26000213623045454,1.9700012207031392,1.6300048828124858,-0.2899932861327841,0.0,8.0,4.0,12-04,1.2958339055379267
11-20,0.6499996185302734,1.2550010681152344,2.3600006103515625,-0.30500030517576704,-0.26999664306640625,5.299995422363267,0.7199935913085795,-0.9500045776367188,1.0500030517578267,3.450004577636733,1.4599990844726562,0.0,8.0,3.0,12-05,1.2266662915547701
11-21,0.010000228881832385,1.4200019836425852,1.5200004577636719,-0.7200012207031179,-0.18500518798828125,3.9549942016601562,-0.1300048828125,-1.6100006103515483,2.220001220703139,3.75,3.4200057983398438,0.0,7.0,4.0,12-06,1.1374993324279818
11-22,-0.46999931335449574,1.7250022888183594,1.9500007629394531,-1.9550018310546946,-0.41500091552734375,3.8449935913085795,-1.1699981689453267,-0.6300048828125284,1.4800033569335938,-0.55999755859375,3.69000244140625,0.0,5.0,6.0,12-07,0.6241666475931748
11-23,-0.07499885559082742,2.0149993896484375,2.9350013732910227,-1.9550018310546946,-0.6200027465820312,4.069999694824219,0.48999786376953125,-1.3699951171875,0.09000396728514204,-0.55999755859375,1.3100051879882812,0.0,6.0,5.0,12-08,0.5275009473164859
11-24,0.24000167846679332,1.3299980163574219,2.6100006103515625,-1.7750015258788991,-1.2050018310546875,3.6399993896484233,-0.5,0.05000305175782671,0.09000396728514204,-0.6099929809570312,3.3400039672851562,0.0,7.0,4.0,12-09,0.6008345286051423
11-25,-0.9149990081787109,1.1049995422363352,2.6100006103515625,0.09999847412110086,1.8249969482421875,3.720001220703111,-3.7099990844726562,0.05000305175782671,0.34000396728514204,-1.5499954223632812,4.74999237060544,0.0,8.0,3.0,12-10,0.6937502225240048
11-26,0.054998397827144885,1.1049995422363352,1.05999755859375,-0.8199996948242045,0.790000915527358,4.370002746582031,-4.659996032714858,0.8300018310546875,0.26000213623046875,-4.109992980957031,3.2699890136718466,0.0,8.0,3.0,12-11,0.1791669527689607
11-27,0.054998397827144885,1.0199966430664062,0.03999710083007102,0.7249984741210938,1.405006408691392,1.0149993896484233,-4.659996032714858,2.0600051879882812,0.06999969482421875,-2.340003967285142,3.2799987792969034,0.0,9.0,2.0,12-12,0.22250000635782788
11-28,0.00499916076659801,1.125,0.6949996948242259,1.5699996948242188,-0.8549957275390767,1.0149993896484233,-4.189994812011719,1.9500045776367045,-1.6599960327148438,-4.599998474121094,3.4700012207031534,0.0,7.0,4.0,12-13,-0.12291510899861742
11-29,-0.19499969482421875,1.5499992370605469,-0.3100013732910156,0.9550018310546804,-0.8549957275390767,0.4900054931640341,-4.8600006103515625,0.6500015258789062,-1.1200027465820455,-5.010002136230469,3.4700012207031534,0.0,5.0,6.0,12-14,-0.43624941507975556
11-30,-0.46000099182128906,1.25,-3.1949996948242188,0.14000320434569602,-0.6549987792968892,1.365005493164034,-7.009994506835923,1.120002746582017,-0.5999984741210938,-5.870002746582031,3.8099975585937784,0.0,5.0,6.0,12-15,-0.8420821825663266
12-01,-0.1100006103515625,0.7350006103515625,-3.1750030517578125,1.805000305175767,0.12999725341796875,-0.02499389648438921,-9.02999877929689,0.9300003051757955,0.31999969482421875,-7.099998474121108,5.2599945068359375,0.0,6.0,5.0,12-16,-0.8550001780192092
12-02,-0.8699989318847621,0.9549980163574148,-2.335002899169922,2.134998321533196,-0.375,-0.5100021362304545,-6.789993286132827,1.589996337890625,-1.3099975585937642,-9.659996032714858,4.5099945068359375,0.0,4.0,7.0,12-17,-1.0550003051757846
12-03,-0.15500068664550426,0.6499977111816406,-2.4850006103515625,4.494995117187479,0.3699951171875142,-3.299995422363267,-4.080001831054673,0.18000030517579546,-3.7399978637695455,-10.419998168945327,5.290000915527344,0.0,5.0,6.0,12-18,-1.0995837847391756
12-04,-0.5500011444091726,1.0750007629394531,-2.5249977111816406,4.944999694824226,0.3300018310546875,-0.7250061035156392,-5.739997863769531,0.11000061035157671,-2.470001220703139,-9.60000610351564,4.0,0.0,5.0,6.0,12-19,-0.9291672706604016
12-05,-0.5250015258789027,0.7550010681152344,-2.1499977111816406,6.505001068115234,1.7249984741210795,-0.29500579833984375,-4.769996643066392,-0.06999969482420454,-0.6200027465820455,-9.090003967285142,0.519989013671875,0.0,4.0,7.0,12-20,-0.667918205261229
12-06,-1.0100002288818324,1.0300025939941335,-3.155002593994155,4.00000381469728,-1.3050003051757955,-0.29000091552735796,-6.75,0.0,0.11999511718752842,-9.360000610351562,-0.8899993896484091,0.0,3.0,8.0,12-21,-1.4675002098083476
12-07,-1.2750015258789027,0.9550018310546875,-1.9449996948242188,4.920001983642585,-0.7400054931640767,2.084999084472642,-8.699996948242173,-2.5400009155273438,0.0500030517578125,-6.8000030517578125,-1.3300018310546875,0.0,4.0,7.0,12-22,-1.2766669591267907
12-08,-0.30500030517578125,1.3200035095214844,-0.23499679565428977,3.6850051879882955,-0.7050018310546875,2.529998779296889,-5.519996643066406,-3.5400009155273295,0.2400054931640625,-7.029998779296875,-0.5599975585937784,0.0,4.0,7.0,12-23,-0.8433316548665347
12-09,-0.28499984741210227,1.2150001525878906,-0.8899993896484446,5.275001525878906,-0.04500579833982954,1.9550018310546733,-2.7900009155273153,-3.430000305175753,0.48000335693359375,-6.3899993896484375,-0.5099945068359375,0.0,4.0,7.0,12-24,-0.45124944051106297
12-10,-0.08500099182128551,0.7900009155273438,-0.17999649047851562,5.275001525878906,-0.3650054931640341,4.375,-2.1199951171874716,-2.779998779296861,0.48000335693359375,-6.3899993896484375,0.0,0.0,4.0,7.0,12-25,-0.08333253860473011
12-11,0.1800003051757848,1.0100021362304688,-0.17999649047851562,4.109996795654297,1.5749969482422017,4.235000610351577,0.02999877929688921,-2.779998779296861,0.5,-6.720001220703125,0.6999969482421591,0.0,8.0,3.0,12-26,0.22166633605957298
12-12,-0.40999984741210227,1.0900001525878906,-0.07999801635742188,5.345001220703132,1.8300018310546875,5.625,1.0299987792968892,-3.6500015258789062,0.3000030517577983,-7.8600006103515625,-0.22000122070315342,0.0,6.0,5.0,12-27,0.2500003178914376
12-13,-0.1949996948242152,1.1700019836425781,1.075000762939446,4.765003204345703,2.3349990844726562,6.480003356933594,2.5099945068359233,-2.3600006103515625,0.029998779296875,-1.6300048828125,0.5299987792968466,0.0,8.0,3.0,12-28,1.2258329391479454
12-14,-0.05999946594237926,0.8449974060058594,1.8800010681152344,2.4050064086914205,2.590003967285142,6.504997253417983,2.6599960327148438,-0.31999969482421875,2.6699981689452983,-0.8700027465820312,0.2899932861327841,0.0,8.0,3.0,12-29,1.5495826403299946
12-15,0.4899997711181605,0.875,1.3349990844726562,2.2700042724609233,2.840003967285142,6.739997863769531,1.349998474121108,-1.4300003051757812,1.400001525878892,2.1399993896484517,0.1100006103515625,0.0,10.0,1.0,12-30,1.5100003878275539
12-16,0.0400009155273402,1.375,0.9599990844726562,1.459999084472642,2.690002441406236,7.900001525878906,0.3600006103515625,-1.25,0.3600006103515625,4.290000915527358,0.05999755859377842,0.0,10.0,1.0,12-31,1.5204168955485036
12-17,0.5249996185302699,1.0999984741211009,1.8300018310546946,1.459999084472642,2.0849990844726562,5.100006103515639,2.3400039672851705,-1.5500030517578125,0.3600006103515625,4.290000915527358,0.20999145507815342,0.0,10.0,1.0,01-01,1.4791665077209528
12-18,0.7900009155273402,0.9249992370605469,1.8300018310546946,0.11499786376954546,1.6200027465820455,2.325004577636733,4.290000915527344,-1.5500030517578125,1.040000915527358,4.530006408691392,1.270004272460909,0.0,10.0,1.0,01-02,1.432084719340008
12-19,0.5650005340576172,0.7449989318847656,2.4300003051757955,2.0699996948242045,2.1800003051757812,1.8800048828124858,3.3499984741210938,-0.9100036621093608,0.5100021362304545,5.8000030517578125,1.0700073242187784,0.0,10.0,1.0,01-03,1.6408343315124523
12-20,0.5149993896484375,0.8549995422363281,1.3549995422363352,2.0800018310546733,1.5200042724609233,1.0299987792968892,2.5399932861328125,-0.8799972534179545,1.839996337890625,4.620002746582017,1.0200042724609375,0.0,10.0,1.0,01-04,1.3745835622151688
12-21,0.1550006866455078,1.1049995422363352,1.4799995422363281,2.6450042724609233,2.0800018310546875,0.7749938964844034,1.589996337890625,-0.6200027465820455,2.0100021362304545,5.370002746582017,0.480010986328125,0.0,10.0,1.0,01-05,1.4225007692972802
12-22,0.8649997711181641,0.3950004577636719,1.470001220703125,1.6549987792968608,1.720001220703125,-0.10000610351559658,-0.8000030517578267,2.2699966430664062,2.0,6.090003967285142,-1.4099884033203125,0.0,8.0,3.0,01-06,1.1795837084452299
12-23,0.6700000762939453,0.5499992370605469,0.895000457763679,1.2549972534179688,1.9550018310546875,-3.795005798339858,-1.9300003051757528,2.5799942016601705,1.9100036621093608,2.3700027465820312,-3.319992065429716,0.0,8.0,3.0,01-07,0.26166677474975525
12-24,1.010000228881836,0.44000244140625,0.6700019836425781,2.1149978637695312,-0.02999877929686079,-4.095001220703139,-3.9199981689453125,1.4199981689453125,1.19000244140625,4.310005187988281,-4.449996948242159,0.0,7.0,4.0,01-08,-0.11166556676228605
12-26,0.8999996185302734,0.29000091552734375,0.40000152587889914,2.7449951171875,0.6949996948242188,-3.8349990844726562,-3.4300003051757812,-0.26000213623046875,2.44000244140625,1.8000030517578125,-4.9499969482421875,0.0,7.0,4.0,01-10,-0.26708300908406635
12-27,1.0399990081787145,-0.34999847412109375,0.18500137329101562,4.1399993896484375,0.845001220703125,-4.2700042724609375,-4.650001525878906,0.5,1.730003356933608,0.0800018310546875,-4.899993896484403,0.0,7.0,4.0,01-11,-0.4708326657613127
12-28,0.9799995422363281,-0.6349983215332031,1.6749992370605469,4.3499984741210795,0.5,-1.290000915527358,-5.410003662109389,1.720001220703125,-0.55999755859375,0.26999664306640625,-4.509994506835909,0.0,6.0,5.0,01-12,-0.24249998728434363
12-29,1.1599998474121094,-1.0900001525878906,1.3050003051757741,3.024993896484375,0.8300018310546733,-2.7450027465820312,-6.130004882812486,1.3199996948241903,-0.20999908447265625,-0.7300033569335938,-4.259994506835909,0.0,5.0,6.0,01-13,-0.627084096272787
12-30,0.7850017547607422,-0.4199981689453196,1.5550003051757741,3.2099990844726562,1.0550003051757812,-2.7050018310546875,-4.649993896484361,1.8699951171874716,-1.3899993896484375,0.4199981689453125,-4.830001831054659,0.0,6.0,5.0,01-14,-0.42500003178914386
12-31,1.465000152587887,-0.5299987792968821,0.7399978637695312,3.375,-0.950004577636733,-2.0799942016601562,-5.7699966430664205,1.3799972534179545,-1.3899993896484375,-0.37000274658203125,-4.2700042724609375,0.0,4.0,7.0,01-15,-0.7000004450480187
