,2009,2010,2011,2012,2013,2014,2015,2016,2017,2018,2019,2020,ups,downs,end_day_sum,avg
01-02,-8.44999885559082,4.099998474121094,-0.799999237060554,2.180000305175774,6.720001220703125,-2.6199951171875,-2.8600006103515483,4.080001831054688,4.220001220703125,3.05999755859375,12.709999084472654,-17.290000915527347,7.0,5.0,03-17,0.4208337465922038
01-03,-7.1100006103515625,4.259998321533203,-0.799999237060554,2.180000305175774,6.75,-1.889999389648452,-0.9899978637695456,4.470001220703125,4.220001220703125,3.089996337890625,13.960006713867172,-26.16000366210937,7.0,5.0,03-18,0.1650002797444614
01-04,-5.529998779296875,4.259998321533203,-0.5,2.5,5.94000244140625,-1.0299987792968892,-0.6499977111816548,4.470001220703125,2.75,4.1399993896484375,12.639999389648438,-17.600006103515593,7.0,5.0,03-19,0.9491666158040364
01-05,-5.529998779296875,4.299999237060547,-0.4900016784667898,2.790000915527344,6.6100006103515705,-1.6399993896484375,-0.6499977111816548,4.8800048828125,3.6100006103515625,3.049995422363281,11.650001525878892,-17.300003051757802,7.0,5.0,03-20,0.9400002161661783
01-06,-4.469997406005851,3.479999542236328,0.5299987792968679,2.740001678466797,7.450000762939446,-1.6399993896484375,0.04000091552734375,6.080001831054688,4.339996337890625,2.5800018310546875,12.0,-17.300003051757802,9.0,3.0,03-21,1.3191668192545578
01-07,-2.8199996948242223,3.060001373291016,1.6100006103515696,2.6100006103515554,7.450000762939446,-1.9499969482421875,-0.6399993896484517,7.129997253417969,3.089996337890625,2.389999389648437,12.0,-16.160003662109375,8.0,4.0,03-22,1.4808330535888647
01-08,-4.190000534057616,2.909999847412095,1.4700012207031319,2.4899978637695384,4.930000305175766,-3.549995422363267,-2.8800010681152344,7.5,3.1699981689453125,2.389999389648437,10.430000305175797,-14.34000396728517,8.0,4.0,03-23,0.8608330090840658
01-09,-1.7300014495849574,3.139999389648437,1.5400009155273509,2.4899978637695384,5.079998016357422,-3.0,-2.0800018310546733,8.25,3.1699981689453125,3.1999969482421875,12.05999755859375,-22.15000152587889,8.0,4.0,03-24,0.8308320045471227
01-10,-1.9400005340576207,2.34000015258789,1.5400009155273509,2.3299980163574294,5.3600006103515705,-3.8600006103515625,-1.8700027465820312,8.25,4.029998779296875,2.290000915527344,9.25,-31.86000061035156,8.0,4.0,03-25,-0.3450004259745265
01-11,-1.470001220703125,2.34000015258789,1.1599998474121094,2.200000762939453,4.959999084472656,-2.9699935913085795,-2.390003204345703,8.25,4.120002746582031,0.5199966430664062,9.779998779296891,-28.139999389648448,8.0,4.0,03-26,-0.13666661580403527
01-12,-1.470001220703125,2.3199996948242188,0.930000305175774,2.819999694824212,5.420001983642571,-3.55999755859375,-2.390003204345703,8.230003356933606,3.290000915527344,1.6500015258789062,11.48000335693358,-26.01999664306642,8.0,4.0,03-27,0.2250010172526012
01-13,-1.5,1.950000762939453,0.7900009155273509,3.4399986267089844,5.420001983642571,-3.55999755859375,-2.1899986267089844,9.229995727539047,3.1200027465820312,1.840003967285156,11.55999755859375,-26.01999664306642,8.0,4.0,03-28,0.34000078837076586
01-14,1.9200000762939415,2.34000015258789,0.43000030517576704,3.1100006103515625,5.420001983642571,-4.680000305175781,-1.6199989318847798,8.639999389648438,3.7300033569335938,1.840003967285156,11.55999755859375,-25.949996948242173,9.0,3.0,03-29,0.5616676012674944
01-15,1.009998321533196,3.329998016357422,-0.25,3.2599983215331965,5.100002288818351,-4.310001373291023,-0.5999984741211009,10.239997863769533,3.700004577636719,1.840003967285156,10.709999084472644,-20.51000213623045,8.0,4.0,03-30,1.1266667048136365
01-16,0.5100002288818359,2.85000228881836,0.549999237060554,3.2599983215331965,5.270000457763672,-3.730003356933608,-0.7700004577636577,10.389999389648438,3.700004577636719,1.840003967285156,11.48000335693358,-24.220001220703125,9.0,3.0,03-31,0.92750056584676
01-17,2.039999008178711,2.85000228881836,0.549999237060554,3.2599983215331965,5.30999755859375,-1.1399993896484233,-0.6899986267089844,10.610000610351562,3.700004577636719,1.5200042724609375,10.459999084472656,-16.839996337890625,9.0,3.0,04-01,1.802500883738201
01-18,1.9899997711181605,2.85000228881836,0.549999237060554,2.8199996948242188,4.6399993896484455,-0.1199951171875,-0.6899986267089844,10.610000610351562,3.3799972534179688,2.590003967285156,10.019996643066419,-16.089996337890607,9.0,3.0,04-02,1.8791673978169796
01-19,1.9899997711181605,2.85000228881836,1.4600028991699148,2.4000015258788987,5.209999084472656,-0.029998779296875,-0.6899986267089844,10.610000610351562,4.2599945068359375,-0.6800003051757812,10.779998779296891,-19.419998168945302,8.0,4.0,04-03,1.5616669654846205
01-20,1.9899997711181605,2.930000305175781,2.539997100830085,3.450000762939453,4.6199989318847665,-0.029998779296875,-0.6899986267089844,10.580001831054688,4.80999755859375,2.0999984741210938,11.029998779296891,-19.419998168945302,9.0,3.0,04-04,1.9924998283386253
01-21,2.3899974822997976,3.430000305175781,3.1300010681152344,3.679996490478516,4.6199989318847665,-0.029998779296875,-0.6899948120117116,12.389999389648438,4.290000915527344,2.25,11.029998779296891,-19.419998168945302,9.0,3.0,04-05,2.25583346684774
01-22,2.8599987030029226,3.5999984741210938,2.920001983642585,3.679996490478516,4.6199989318847665,-0.30999755859375,-1.5599975585937569,10.660003662109377,3.6300048828125,2.25,11.029998779296891,-19.519996643066406,9.0,3.0,04-06,1.9883341789245608
01-23,2.839998245239247,3.680000305175781,2.9000015258789062,3.679996490478516,4.859996795654291,-0.26000213623046875,-0.3799972534179759,10.879997253417967,3.6300048828125,2.1100006103515625,10.720001220703141,-23.18000030517581,9.0,3.0,04-07,1.7899998029073043
01-24,1.3299999237060511,3.84000015258789,2.9000015258789062,3.819999694824226,3.990001678466797,0.9399948120117044,-0.6599998474121094,11.120002746582033,2.540000915527344,2.2000045776367188,11.610000610351562,-16.360000610351562,10.0,2.0,04-08,2.272500514984129
01-25,1.3299999237060511,3.84000015258789,2.990001678466797,3.0300025939941406,4.360000610351555,2.449996948242209,-0.3500022888183594,11.120002746582033,3.0999984741210938,-0.9300003051757812,11.59999847412108,-15.369995117187473,9.0,3.0,04-09,2.2641669909159368
01-26,1.3299999237060511,3.900001525878906,2.099998474121086,2.1899986267089915,5.3999977111816335,2.8399963378906317,-0.3500022888183594,7.4900054931640625,2.840003967285156,0.7600021362304688,10.280006408691419,-15.369995117187473,10.0,2.0,04-10,1.9508344332377152
01-27,0.9600009918212856,3.9799995422363215,1.6700019836425852,1.870002746582017,6.209999084472656,2.8399963378906317,0.529998779296875,7.099998474121094,3.4499969482421875,4.989997863769531,11.160003662109391,-15.369995117187473,11.0,1.0,04-11,2.449166774749758
01-28,0.5799999237060547,5.0,2.2399978637695237,1.2099990844726634,6.209999084472656,2.5699996948242188,1.2400016784667969,6.69000244140625,4.180000305175781,4.519996643066406,11.160003662109391,-14.84999847412108,11.0,1.0,04-12,2.5625001589457215
01-29,2.0599994659423864,5.529998779296875,1.3199996948242043,1.770000457763672,5.330001831054688,2.3499984741210938,0.4900016784667969,4.459999084472656,4.180000305175781,4.519996643066406,11.099998474121108,-11.830001831054672,11.0,1.0,04-13,2.6066660881042494
01-30,2.0299987792968683,5.5900001525878915,1.55999755859375,1.770000457763672,5.6199989318847665,0.5100021362304545,0.31999969482421875,5.279998779296875,4.180000305175781,4.55999755859375,11.70000457763672,-9.270004272460938,11.0,1.0,04-14,2.8208328882853166
01-31,2.010000228881836,6.2199974060058665,1.55999755859375,1.4800033569335866,5.370002746582017,1.3900032043457031,-0.2400016784667969,5.8800048828125,3.949996948242188,5.279998779296888,11.18999481201172,-13.160003662109391,10.0,2.0,04-15,2.577499548594156
02-01,2.3700008392333918,6.2199974060058665,0.9300003051757956,0.9599990844726562,3.1599998474121094,4.610000610351578,-0.5400009155273438,5.8800048828125,2.290000915527344,5.910003662109375,10.339996337890641,-13.220001220703109,10.0,2.0,04-16,2.4091668128967334
02-02,2.3700008392333918,5.6999969482421955,1.0699996948242188,1.2800025939941406,3.650001525878906,4.610000610351578,-0.5400009155273438,6.870002746582031,2.470001220703125,8.509994506835952,9.770004272460953,-16.309997558593732,10.0,2.0,04-17,2.4541672070821168
02-03,2.319999694824212,6.349998474121094,1.829998016357429,0.7700004577636719,2.799999237060547,4.610000610351578,-0.4700012207031321,5.299995422363281,3.4899978637695312,12.749999999999984,9.770004272460953,-16.309997558593732,10.0,2.0,04-18,2.767499605814617
02-04,0.5100002288818395,7.750000000000008,0.9900016784667968,1.0,2.799999237060547,3.899997711181662,-0.21000289916992895,7.010002136230469,4.220001220703125,12.230003356933596,9.770004272460953,-16.01999664306642,10.0,2.0,04-19,2.8291675249735535
02-05,-0.4099998474121058,7.889999389648437,0.7299995422363352,0.979999542236328,2.459999084472656,4.100002288818345,-0.970001220703132,8.509994506835938,4.200004577636719,12.230003356933596,8.550003051757827,-16.020004272460948,9.0,3.0,04-20,2.6874999999999987
02-06,-2.0300006866455083,7.629997253417977,0.7299995422363352,0.979999542236328,1.6599998474121094,4.069999694824219,-1.5200004577636648,6.4199981689453125,4.200004577636719,11.81999969482422,6.110000610351577,-14.589996337890641,9.0,3.0,04-21,2.123333454132082
02-07,-0.6700000762939524,7.75,0.7299995422363352,1.0400009155273509,2.2100028991699148,3.59000015258789,-0.930000305175767,6.739997863769531,4.819999694824219,10.950004577636703,6.260002136230455,-9.759994506835968,9.0,3.0,04-22,2.7275010744730595
02-08,-0.8900012969970703,7.75,0.3499984741210937,1.3500022888183665,2.950000762939453,4.210002899169922,-0.7700004577636719,6.739997863769531,4.269996643066406,13.060005187988267,7.540000915527344,-9.680000305175751,9.0,3.0,04-23,3.073333581288657
02-09,-0.8900012969970703,7.480003356933594,1.5099983215332031,1.1300010681152344,3.729999542236328,3.789997100830078,-0.7700004577636719,5.359992980957031,4.4199981689453125,12.18999481201172,8.360000610351562,-9.5,9.0,3.0,04-24,3.067498683929444
02-10,0.3199996948242223,8.019996643066401,1.7399978637695457,1.2199974060058594,4.069999694824219,3.789997100830078,-0.8499984741211009,4.3899993896484375,3.5100021362304688,10.580001831054688,8.240005493164034,-9.5,10.0,2.0,04-25,2.9608332316080705
02-11,0.5300006866455078,5.3400001525878915,1.6399993896484446,1.6100006103515696,4.069999694824219,3.3699951171875,-0.740001678466804,5.3600006103515625,4.3000030517578125,10.550003051757812,8.240005493164034,-9.75,10.0,2.0,04-26,2.876667181650796
02-12,0.6800003051757812,5.05999755859375,2.5999984741210938,2.60000228881836,3.790000915527344,3.420001983642585,-0.779998779296875,3.7199935913085938,4.909996032714844,10.550003051757812,7.620002746582018,-9.69000244140625,10.0,2.0,04-27,2.873332977294921
02-13,1.0499992370605469,4.930000305175781,2.8899993896484304,2.60000228881836,3.0,2.720001220703125,-1.7699966430664062,5.980003356933594,4.909996032714844,3.430000305175781,6.6499938964844025,-12.079994201660154,10.0,2.0,04-28,2.025833765665692
02-14,2.0,5.180000305175781,2.8899993896484304,2.6899986267089844,2.3199996948242188,2.1300048828125,-2.4700012207031183,6.010002136230469,5.5099945068359375,2.6199951171875,9.650001525878906,-4.089996337890625,10.0,2.0,04-29,2.869999885559082
02-15,2.790000915527344,5.180000305175781,2.930000305175774,2.09000015258789,2.2399978637695312,2.1399993896484237,-2.700000762939453,6.010002136230469,5.590003967285156,2.290000915527344,9.379997253417985,-4.080001831054702,10.0,2.0,04-30,2.821666717529295
02-16,2.790000915527344,5.180000305175781,3.170001983642585,2.040000915527344,2.3499984741210938,2.4399948120117045,-2.700000762939453,6.010002136230469,6.100006103515625,1.6699981689453125,9.68999481201172,-5.180000305175796,10.0,2.0,05-01,2.7966664632161438
02-17,2.790000915527344,6.260002136230477,2.94000244140625,1.6899986267089844,1.7200012207031319,2.4399948120117045,-2.700000762939453,5.9199981689453125,5.830001831054688,2.4800033569335795,11.259994506835964,-5.180000305175796,10.0,2.0,05-02,2.954166412353516
02-18,3.2300014495849614,5.1399993896484375,3.34000015258789,2.1699981689453125,1.7200012207031319,2.4399948120117045,-3.7600021362304688,2.6999969482421875,5.6100006103515625,1.5,11.259994506835964,-5.180000305175796,10.0,2.0,05-03,2.5141654014587407
02-19,3.2300014495849574,5.54999923706054,3.8899993896484304,2.0299987792968817,1.7200012207031319,2.670005798339858,-1.7899932861327983,3.970001220703125,5.8600006103515625,1.5,11.259994506835964,-7.9300003051757955,10.0,2.0,05-04,2.6633340517679884
02-20,4.0100002288818315,5.299999237060541,3.3999977111816406,2.0299987792968817,3.329998016357422,1.8300018310546733,-2.209999084472656,2.9499969482421875,5.8600006103515625,1.5,10.739997863769515,-8.790000915527344,10.0,2.0,05-05,2.4958326021830217
02-21,5.0399990081787065,4.279998779296869,3.3999977111816406,2.0299987792968817,3.7600021362304688,2.0999984741210938,-3.269996643066392,2.759994506835937,5.8600006103515625,0.9599990844726703,10.729995727539047,-5.1700057983398295,10.0,2.0,05-06,2.7066651980082215
02-22,5.2899990081787065,4.279998779296869,3.3999977111816406,2.3800010681152344,3.25,2.0,-3.1699981689452983,2.759994506835937,7.129997253417969,1.6500015258789205,12.969993591308608,-3.650001525878892,10.0,2.0,05-07,3.190831979115808
02-23,5.2899990081787065,4.4399986267089835,3.549999237060547,0.5600013732910227,4.040000915527344,2.1100006103515767,-3.1699981689452983,2.6899948120117188,7.790000915527344,1.8100051879882808,12.410003662109359,-4.349998474121094,10.0,2.0,05-08,3.0975006421407074
02-24,4.309999465942378,2.9099998474121094,3.80999755859375,0.3600006103515625,4.3600006103515625,2.1100006103515767,-3.2000045776367188,2.149993896484375,8.150001525878906,0.980003356933608,12.430000305175753,-4.349998474121094,10.0,2.0,05-09,2.8349995613098145
02-25,3.5199985504150426,1.979999542236328,4.209999084472656,0.5600013732910156,4.3600006103515625,1.8800048828125,-2.849998474121108,1.94000244140625,8.0,2.180000305175781,12.430000305175753,-2.0800018310546733,10.0,2.0,05-10,3.0108338991800916
02-26,3.7100009918212855,3.6300010681152273,4.2300033569335875,0.490001678466804,4.0,1.7599945068359375,-3.10000228881836,3.220001220703125,8.389999389648438,2.180000305175781,12.680000305175753,0.7900009155273438,11.0,1.0,05-11,3.4983334541320765
02-27,3.0300006866455043,3.180000305175774,3.44000244140625,0.490001678466804,2.5599975585937567,1.079994201660142,-2.8100013732910085,3.3700027465820312,8.389999389648438,3.459999084472656,11.589996337890625,5.129997253417969,11.0,1.0,05-12,3.575832525889078
02-28,4.780000686645508,3.670001983642578,3.44000244140625,0.970001220703132,2.55000305175782,1.3300018310546875,-2.990001678466797,3.1200027465820312,8.360000610351562,4.370002746582031,11.8699951171875,5.2399978637695455,11.0,1.0,05-13,3.892500718434654
02-29,0.0,0.0,0.0,0.7900009155273366,0.0,0.0,0.0,3.1200027465820312,0.0,0.0,0.0,0.3699951171875142,3.0,0.0,05-14,0.3566665649414069
03-01,3.790000915527344,3.670001983642578,4.150001525878906,0.4500007629394602,2.5099983215331956,1.6599960327148438,-2.1699981689453125,2.3300018310546875,6.470001220703125,5.290000915527344,11.990005493164036,-1.160003662109375,10.0,2.0,05-15,3.2483339309692365
03-02,3.790000915527344,3.3699989318847656,5.040000915527352,-0.8699989318847656,2.899997711181648,1.4499969482422017,-2.1699981689453125,3.2199935913085938,6.620002746582031,3.6900024414062638,11.370002746582033,-1.160003662109375,9.0,3.0,05-16,3.104166348775232
03-03,4.049999237060547,2.6300010681152344,3.69000244140625,-1.6099967956542969,3.2699966430664134,1.4499969482422017,-1.55999755859375,1.7700042724609375,6.589996337890625,1.6999969482421875,11.629997253417955,-0.3400039672851705,9.0,3.0,05-17,2.7724994023640943
03-04,4.099998474121089,1.170001983642578,4.979999542236334,-2.069999694824212,3.2699966430664134,1.0299987792968892,-0.410003662109375,1.4000015258789062,7.1399993896484375,3.139999389648437,11.629997253417955,-4.98000335693358,9.0,3.0,05-18,2.533332188924156
03-05,4.840000152587886,0.8800010681152344,4.229999542236328,-2.069999694824212,2.8699989318847656,0.05000305175782671,0.1699981689452983,-0.31999969482421875,6.629997253417969,3.139999389648437,11.769996643066392,-2.4800033569335938,9.0,3.0,05-19,2.4758326212565094
03-06,5.4500007629394505,-0.1399993896484375,5.459999084472656,-0.8800010681152273,2.1899986267089915,0.3899993896484375,1.3900070190429972,-0.470001220703125,6.629997253417969,2.770004272460937,13.620002746582045,-3.150001525878892,8.0,4.0,05-20,2.7716671625773173
03-07,5.960000991821289,-0.20000076293945312,5.459999084472656,-2.04999923706054,2.5400009155273366,0.8999938964843608,1.909996032714829,-0.470001220703125,6.80999755859375,3.1500015258789062,13.90000152587892,2.280006408691392,9.0,3.0,05-21,3.349166393280027
03-08,5.740001678466793,-0.20000076293945312,3.5,-3.5699996948242188,1.8100013732910227,0.25,1.279998779296875,-0.5400009155273438,6.199996948242188,3.6100006103515767,12.56999969482422,2.9600067138671733,9.0,3.0,05-22,2.8008337020874023
03-09,5.740001678466793,0.07999801635742188,3.700000762939453,-2.9799995422363215,1.6400032043457031,0.4599990844726421,1.279998779296875,-1.0,6.510002136230469,3.139999389648437,11.460006713867188,2.9600067138671733,10.0,2.0,05-23,2.7491680781046526
03-10,4.7300014495849565,-1.3899993896484375,4.490001678466791,-3.009998321533203,1.2600021362304688,0.4599990844726421,1.7099990844726562,-0.04000091552734375,6.049995422363281,3.180000305175781,11.1300048828125,0.420005798339858,9.0,3.0,05-24,2.4158342679341627
03-11,4.900001525878904,-1.6500015258789062,3.420001983642585,-2.549999237060547,1.2600021362304688,0.959999084472642,2.0999984741210938,-0.9899978637695312,6.44000244140625,3.30999755859375,11.1300048828125,5.330001831054688,9.0,3.0,05-25,2.8050009409586583
03-12,3.7999992370605504,-1.8300018310546875,3.069999694824233,-2.549999237060547,1.25,0.9799957275390484,1.3599967956542898,1.1399993896484375,6.6399993896484375,3.30999755859375,10.889999389648423,10.68999481201172,10.0,2.0,05-26,3.2291650772094718
03-13,3.2600002288818364,-1.770000457763672,3.659999847412124,-3.3600006103515625,1.279998779296875,1.7699966430664205,1.4000015258789062,1.1100006103515625,6.6399993896484375,3.589996337890625,10.870002746582033,8.709999084472656,10.0,2.0,05-27,3.0966661771138533
03-14,4.259998321533203,-1.4300003051757812,3.659999847412124,-3.4099998474121094,1.2099990844726491,1.4799957275390625,0.18000030517578836,1.1100006103515625,6.8600006103515625,4.019996643066406,10.06999969482422,21.67000579833983,10.0,2.0,05-28,4.139999707539877
03-15,3.329999923706051,-1.4300003051757812,4.3800010681152415,-3.829998016357415,0.520000457763679,0.9899978637695312,0.6900024414062642,0.18999481201171875,6.150001525878906,3.75,9.879997253417985,24.67000579833983,10.0,2.0,05-29,4.107500235239667
03-16,3.329999923706051,-1.770000457763672,4.740001678466803,-4.1300010681152335,0.9099998474121094,1.0,0.6900024414062642,-0.20000457763671875,7.1699981689453125,3.930000305175781,9.19000244140625,24.67000579833983,9.0,3.0,05-30,4.1275003751118975
03-17,2.7400016784667933,-1.9300003051757808,4.569999694824219,-3.8800010681152335,0.7099990844726491,1.0,0.8700027465820455,-0.8300018310546875,7.290000915527344,3.349998474121108,8.989997863769544,16.100006103515597,9.0,3.0,05-31,3.2483336130777998
03-18,0.9099998474121058,-0.279998779296875,4.229999542236328,-4.720001220703119,0.7099990844726491,0.4899978637695455,0.5399971008300781,0.25,6.700004577636719,4.0,8.989997863769544,14.849998474121096,10.0,2.0,06-01,3.055832862854006
03-19,0.9600009918212892,0.04999923706054688,4.409999847412101,-4.720001220703119,0.4599990844726491,1.5100021362304688,0.13000106811523438,-0.1199951171875,7.170005798339844,4.0,9.099998474121106,12.510002136230485,10.0,2.0,06-02,2.9550010363260917
03-20,2.6799983978271413,-0.6299972534179616,3.129997253417976,-4.5300025939941255,0.5900001525878977,1.9299926757812216,0.670001983642571,-0.1699981689453125,7.170005798339844,4.180000305175781,9.56000518798828,18.909996032714826,9.0,3.0,06-03,3.6241666475931775
03-21,2.050001144409169,0.15999984741211648,3.129997253417976,-3.6100006103515696,0.460002899169929,1.75,0.5600013732910156,-0.1699981689453125,8.240005493164062,2.7300033569335938,7.7299957275390625,28.13999938964844,10.0,2.0,06-04,4.264167308807373
03-22,1.989999771118168,0.15999984741211648,3.209999084472664,-3.740001678466797,0.6099967956542969,2.029998779296861,0.75,-0.8600006103515625,9.410003662109377,4.80999755859375,10.199996948242188,29.34999847412109,10.0,2.0,06-05,4.826665719350179
03-23,1.989999771118168,-0.10000228881835938,2.9900016784668035,-4.0699996948242125,0.5800018310546875,1.9799957275390625,0.75,-0.7900009155273438,9.169998168945312,7.090003967285156,11.209999084472642,29.34999847412109,9.0,3.0,06-06,5.012499650319417
03-24,2.3599987030029403,0.6399993896484375,2.020000457763672,-4.5199966430664125,-0.2200012207031179,1.9799957275390625,0.6399993896484375,-0.19000244140625,9.229995727539062,5.709999084472656,12.619995117187473,25.220001220703125,9.0,3.0,06-07,4.624165376027424
03-25,1.9399986267089773,-0.3800010681152344,1.5799980163574148,-3.339996337890625,-0.2200012207031179,2.0099945068359237,0.9399986267089844,-1.220001220703125,8.860000610351562,5.700004577636719,12.619995117187473,21.959999084472656,8.0,4.0,06-08,4.204165776570633
03-26,-0.04000091552734375,-1.0999984741211009,1.9699974060058736,-3.339996337890625,-0.870002746582017,2.9599990844726705,1.299999237060561,-0.8199996948242188,9.06999969482422,5.700004577636719,11.68999481201172,17.200004577636705,7.0,5.0,06-09,3.643333435058597
03-27,0.6500015258789134,-1.5699996948242188,1.6999969482421946,-3.209999084472656,-0.5600013732910085,3.420001983642585,0.5699996948242188,-0.589996337890625,9.06999969482422,5.830001831054688,14.710006713867188,19.580001831054688,8.0,4.0,06-10,4.133334477742515
03-28,2.0699996948242223,-1.950000762939446,1.6999969482421946,-3.0,-0.3499984741210937,2.960006713867216,0.4500007629394389,-0.589996337890625,8.620002746582031,4.8799972534179545,15.729995727539075,11.989997863769533,8.0,4.0,06-11,3.542500178019208
03-29,2.380001068115245,-1.950000762939446,1.779998779296875,-2.5099983215332102,0.2199974060058452,1.0299987792968608,0.5399971008300781,-0.7900009155273438,8.209999084472656,3.830001831054688,16.830001831054688,11.159996032714844,9.0,3.0,06-12,3.394165992736815
03-30,2.380001068115245,-2.120002746582024,1.4700012207031181,-3.0,-0.12000274658203836,0.5,0.5399971008300781,-0.94000244140625,8.790000915527344,5.8899993896484375,14.870002746582033,11.159996032714844,8.0,4.0,06-13,3.2849992116292324
03-31,2.1900024414062536,-0.75,0.2700004577636719,-2.6300010681152277,-0.9200019836425852,0.5,0.7199974060058594,-0.2100067138671875,8.450004577636719,6.220001220703125,13.910003662109391,12.099998474121096,8.0,4.0,06-14,3.320833206176759
04-01,2.9399986267089844,-0.3699989318847727,0.670001983642571,-3.0299987792968683,-0.9200019836425852,-0.4500045776367045,1.12999725341799,-2.30999755859375,9.730003356933594,6.3899993896484375,13.910003662109391,8.040000915527344,7.0,5.0,06-15,2.977500279744469
04-02,1.260002136230476,-0.6699981689453125,0.4599990844726562,-3.0299987792968683,-1.1800003051757812,-1.0400009155273295,1.4300003051757884,-2.470001220703125,9.800003051757812,6.3899993896484375,14.40000152587892,9.209999084472656,7.0,5.0,06-16,2.8800004323323614
04-03,0.4400024414062571,0.5,-0.5499992370605469,-3.2899971008300715,0.6500015258789062,-0.26999664306639204,0.8899955749511648,-2.590003967285156,9.800003051757812,4.760002136230469,13.25,11.220001220703141,8.0,4.0,06-17,2.900834083557132
04-04,0.13000106811524148,0.9900016784667968,-0.5499992370605469,-2.4099998474121165,0.3700027465820313,-0.4000015258789063,1.5200004577636648,-2.590003967285156,9.510002136230467,5.150001525878906,11.989997863769533,6.6299972534179545,8.0,4.0,06-18,2.5283333460489894
04-05,0.290000915527358,0.9900016784667968,-0.970001220703132,-2.0699996948242188,1.0499992370605469,0.910003662109375,1.4299964904785227,-1.4199981689453125,10.150001525878906,4.519996643066406,11.430000305175795,6.150001525878893,9.0,3.0,06-19,2.7050002415974945
04-06,0.290000915527358,0.9099998474121094,-0.8700027465820312,-1.5300025939941264,0.9500007629394532,0.6500015258789062,1.4299964904785227,-1.4800033569335938,9.419998168945312,6.339996337890625,10.5,6.150001525878893,9.0,3.0,06-20,2.7299989064534524
04-07,1.439998626708995,0.5900001525878906,-0.4599990844726491,-1.7200012207031181,0.20999908447265625,0.6500015258789062,1.6999969482421875,-1.0,10.589996337890623,4.349998474121094,10.420005798339856,5.7900009155273295,9.0,3.0,06-21,2.7133331298828147
04-08,0.5300025939941477,0.3300018310546946,0.29000091552733664,-1.9099998474121025,0.20999908447265625,0.2200012207031108,1.8499984741210795,0.26000213623046875,10.0,4.739997863769531,10.420005798339856,2.8799972534179545,11.0,1.0,06-22,2.485000610351561
04-09,-0.5900001525878906,-0.8199996948242188,1.25,-1.9099998474121025,0.15999984741211648,0.44000244140625,1.959999084472656,0.31999969482421875,10.110000610351562,4.739997863769531,11.25,0.3300018310546875,9.0,3.0,06-23,2.2700001398722343
04-10,-0.8299980163574148,-2.009998321533203,1.0400009155273438,-1.0999984741210938,-1.9300003051757808,0.9199981689453124,2.009998321533203,0.9499969482421876,10.110000610351562,1.9199981689453125,10.76999664306642,5.2000045776367045,8.0,4.0,06-24,2.25416660308838
04-11,-0.6399993896484304,-2.4199981689453125,1.0400009155273438,-2.770000457763672,-2.4500007629394456,1.6699981689453267,1.75,0.9499969482421876,10.080001831054688,0.8499984741210938,9.719993591308581,5.090003967285141,8.0,4.0,06-25,1.905832926432292
04-12,-0.6099967956542827,-2.4199981689453125,1.7099990844726634,-2.7799987792968683,-2.069999694824212,0.80999755859375,1.0199966430664062,0.720001220703125,10.589996337890623,-0.06999969482424717,8.47000122070311,3.590003967285142,7.0,5.0,06-26,1.5800002415974916
04-13,-0.6099967956542827,-2.560001373291016,1.200000762939446,-3.3700027465820312,-0.529998779296875,1.1999969482421875,1.0199966430664062,1.9499969482421875,11.0,-0.5699996948242188,11.169998168945328,3.590003967285142,7.0,5.0,06-27,1.957499504089356
04-14,0.240001678466804,-3.399997711181655,0.94000244140625,-3.689998626708984,-0.4300003051757813,1.1999969482421875,1.1499977111816406,-1.6999969482421875,9.870002746582033,-1.599998474121108,9.349998474121081,1.920005798339829,7.0,5.0,06-28,1.1541678110758422
04-15,0.5999984741211009,-3.609996795654297,0.8100013732910156,-3.540000915527344,-0.4300003051757813,0.3600006103515483,1.2799987792968892,-4.650001525878906,9.100006103515623,-2.2099990844726705,9.349998474121081,6.6699981689453125,7.0,5.0,06-29,1.1441669464111308
04-16,3.1300010681152277,-3.609996795654297,2.0299987792968817,-3.540000915527344,-0.9000015258789062,-0.09000396728514204,1.4700050354004048,-3.939994812011719,9.660003662109377,-2.2099990844726705,9.619995117187473,5.870002746582031,6.0,6.0,06-30,1.4575007756551095
04-17,4.1200008392333975,-4.709999084472656,2.450000762939453,-3.770000457763672,0.4000015258789063,0.44000244140625,0.9000015258789062,-2.909996032714844,9.660003662109377,-4.029998779296862,13.850006103515597,6.309997558593763,8.0,4.0,07-01,1.8925016721089678
04-18,4.940000534057622,-5.099998474121094,2.450000762939453,-3.9500007629394465,0.6399993896484375,-0.06999969482421875,0.9599990844726491,-2.909996032714844,9.360000610351562,-2.9000015258789062,16.129997253417972,5.040000915527359,7.0,5.0,07-02,2.049166838328045
04-19,4.940000534057622,-5.099998474121094,1.8700027465820312,-3.490001678466797,0.8699989318847656,0.4300003051757813,0.9599990844726491,-2.7299957275390625,8.939994812011719,-1.4200057983398438,15.339996337890625,5.040000915527359,8.0,4.0,07-03,2.1374993324279794
04-20,4.940000534057622,-4.9599990844726625,1.0400009155273438,-3.84000015258789,0.4900016784667969,0.4300003051757813,0.9599990844726491,-3.049995422363281,8.669998168945312,-1.0600051879882812,15.339996337890625,5.040000915527359,8.0,4.0,07-04,1.999999841054281
04-21,4.159999847412114,-5.080001831054688,0.970001220703118,-2.4799995422363206,0.3400001525878906,0.4300003051757813,1.0499992370605398,0.5499954223632812,8.870002746582031,-0.7600021362304688,14.610000610351562,5.860000610351548,9.0,3.0,07-05,2.3766663869221993
04-22,4.7200012207031135,-5.479999542236321,2.120002746582024,-1.729999542236321,0.3400001525878906,-0.1100006103515625,0.9699974060058664,-0.5100021362304688,8.779998779296875,-0.3600006103515767,14.610000610351562,6.180000305175796,7.0,5.0,07-06,2.460833231608073
04-23,3.7900009155273473,-5.210002899169916,2.0400009155273366,-1.729999542236321,-0.3600006103515625,-0.4599990844726562,0.8500022888183665,-0.29999542236328125,8.989997863769531,-0.3600006103515767,13.48000335693358,9.95000457763672,6.0,6.0,07-07,2.556667645772297
04-24,2.870000839233395,-5.759998321533202,3.04999923706054,-1.5,-0.6199989318847727,-0.3899993896484517,0.5499992370605469,-0.279998779296875,8.989997863769531,0.8099975585937358,15.979995727539075,11.139999389648438,7.0,5.0,07-08,2.9033328692118303
04-25,2.3300018310546875,-4.5900001525878915,3.04999923706054,-2.520000457763672,0.4500007629394602,-0.720001220703125,1.5100021362304688,-0.279998779296875,8.55999755859375,1.3899993896484375,15.160003662109359,2.5699996948242188,8.0,4.0,07-09,2.24250030517578
04-26,2.170001983642578,-4.5900001525878915,2.329998016357422,-3.040000915527344,1.5100021362304616,-0.6600036621093608,0.6499977111816335,-1.19000244140625,7.970001220703125,0.8000030517578125,12.569999694824205,0.3499984741210937,8.0,4.0,07-10,1.5724995930989571
04-27,2.170001983642578,-4.19000244140625,2.209999084472664,-5.0699996948242125,2.450000762939453,-0.5800018310546733,0.6499977111816335,-1.470001220703125,9.29999542236328,1.6399993896484375,12.75,0.3499984741210937,8.0,4.0,07-11,1.6841656366984068
04-28,2.4000015258789062,-3.909999847412109,1.8499984741210935,-5.039997100830072,2.740001678466797,-0.5800018310546733,0.6599998474120952,0.5,8.0,2.6100006103515625,12.260002136230467,1.75,9.0,3.0,07-12,1.936667124430339
04-29,1.6299972534179616,-4.490001678466803,1.020000457763679,-5.279998779296875,2.740001678466797,-0.8000030517578125,0.8600006103515625,4.199996948242188,8.439994812011719,2.180000305175781,12.260002136230467,3.680000305175796,9.0,3.0,07-13,2.2033325831095385
04-30,1.6799983978271449,-3.950000762939453,0.55999755859375,-5.279998779296875,1.9900016784667969,-1.1599960327148438,1.6100006103515625,3.560005187988281,9.25,2.180000305175781,12.34000396728517,7.869995117187513,9.0,3.0,07-14,2.5541672706604026
05-01,2.6299991607666047,-2.9199981689453125,0.4199981689453125,-5.4399986267089835,3.849998474121087,-0.840003967285142,0.20999908447265625,3.3800048828125,9.25,2.139999389648437,11.209999084472642,7.290000915527344,9.0,3.0,07-15,2.5983331998189287
05-02,2.0000019073486435,-2.9899978637695312,0.4199981689453125,-5.479999542236335,4.050003051757805,-0.1399993896484375,-0.02000045776367898,3.3800048828125,8.780006408691406,3.180000305175753,10.410003662109377,9.5,8.0,4.0,07-16,2.7575017611185677
05-03,3.670000076293949,-2.9899978637695312,0.8699989318847727,-4.990001678466797,3.7699966430664062,0.0800018310546875,-0.02000045776367898,4.480003356933594,8.180000305175781,3.75,9.06999969482422,11.090003967285142,9.0,3.0,07-17,3.080000400543212
05-04,3.670000076293949,-2.84000015258789,0.6300010681152344,-4.080001831054695,3.3600006103515625,-0.3899993896484233,-0.02000045776367898,4.6300048828125,8.040000915527344,1.0299987792968608,8.140007019042969,11.090003967285142,8.0,4.0,07-18,2.771667957305906
05-05,3.680000305175781,-1.8400001525878904,1.3100013732910156,-3.770000457763672,3.3100013732910085,-0.3899993896484233,0.9399986267089772,3.8600006103515625,7.879997253417969,1.8399963378906392,8.510002136230469,12.340003967285142,9.0,3.0,07-19,3.139166831970215
05-06,4.170001983642578,-1.529998779296875,0.37000274658202414,-3.2799987792968683,3.3100013732910085,-0.02000427246092329,1.2000045776367188,3.6300048828125,7.2299957275390625,1.8199996948242472,8.510002136230469,12.379997253417955,9.0,3.0,07-20,3.1491673787434915
05-07,4.000000000000004,-0.6199989318847585,1.2900009155273438,-3.2799987792968683,3.2400016784667898,-1.4500045776367188,0.9300003051757812,3.0699996948242188,7.579994201660156,1.8199996948242472,9.55999755859375,13.93000030517578,9.0,3.0,07-21,3.3391660054524777
05-08,4.459999084472661,-1.9000015258789065,0.8199996948242188,-3.4799995422363215,3.3700027465820312,-0.649993896484375,0.7999992370605469,3.75,7.579994201660156,2.8600006103515625,10.370002746582044,11.760002136230467,9.0,3.0,07-22,3.311667124430341
05-09,4.509998321533203,-1.9199981689453125,0.8199996948242188,-3.010002136230476,3.6200027465820312,-1.1899948120117188,0.02000045776366477,3.75,7.609992980957031,3.3700027465820312,10.400001525878906,11.870002746582015,9.0,3.0,07-23,3.320833841959633
05-10,4.6399993896484375,-1.9199981689453125,0.6699981689453196,-3.459999084472656,3.1499977111816406,-3.770000457763672,-0.060001373291022723,3.220001220703125,6.829994201660156,1.9899978637695312,9.56000518798828,12.190002441406234,8.0,4.0,07-24,2.7533330917358385
05-11,4.6399993896484375,-1.9499969482421804,1.5499992370605469,-3.6100006103515554,3.59000015258789,-3.830001831054688,-0.060001373291022723,3.1100006103515625,6.980003356933594,0.8499984741210938,11.709999084472685,12.190002441406234,8.0,4.0,07-25,2.9308334986368836
05-12,4.569999694824219,-0.6399993896484375,0.5699996948242116,-3.5800018310546875,2.720001220703125,-3.830001831054688,-0.5099983215332031,2.8300018310546875,7.029998779296875,1.3799972534179543,10.489997863769544,14.550003051757797,8.0,4.0,07-26,2.9649998346964503
05-13,5.920000076293945,0.4300003051757813,0.4199981689453054,-2.9800033569335938,2.720001220703125,-3.3199996948242188,-1.8700027465820312,2.9799957275390625,6.060005187988281,1.3600006103515483,10.489997863769544,16.020004272460927,9.0,3.0,07-27,3.18583313624064
05-14,5.340002059936528,2.6599998474121165,-0.35999679565428977,-2.9800033569335938,2.4000015258789062,-2.989997863769545,-3.459999084472656,2.9000015258789062,5.430000305175781,1.3600006103515483,10.30999755859375,16.389999389648438,8.0,4.0,07-28,3.0833338101704904
05-15,4.600000381469727,2.09000015258789,-1.4499969482421804,-2.390003204345703,1.670001983642578,-2.480003356933608,-3.81999588012696,2.3199996948242188,5.430000305175781,2.6300048828125,9.680000305175797,18.349998474121094,8.0,4.0,07-29,3.0525005658467617
05-16,3.970001220703125,2.0100021362304688,-1.4499969482421804,-1.4699974060058594,1.3699989318847583,-3.229999542236328,-3.3600044250488423,2.3199996948242188,5.269996643066406,2.529998779296875,10.379997253417956,13.900001525878892,8.0,4.0,07-30,2.6866664886474574
05-17,3.6199989318847727,2.0100021362304688,-0.5299987792968679,0.5100021362304616,1.420001983642578,-3.9999961853027415,0.6899948120117188,4.319999694824219,5.720001220703125,9.610000610351562,11.160003662109359,14.659996032714858,10.0,2.0,07-31,4.099167188008627
05-18,3.6199989318847727,2.920001983642578,-1.9899978637695312,0.779998779296875,1.3299980163574148,-4.519996643066406,0.6899948120117188,4.129997253417969,0.1699981689453125,8.940002441406238,10.76999664306642,14.659996032714858,10.0,2.0,08-01,3.458332379659018
05-19,3.359998703002933,2.7300033569335938,-1.94000244140625,-0.5500030517578196,1.3299980163574148,-4.519996643066406,0.2600021362304972,3.3300018310546875,-1.4300003051757812,8.419998168945298,7.9799957275390625,15.07999420166017,8.0,4.0,08-02,2.837499141693117
05-20,3.939998626708984,4.1699981689453125,-1.520000457763672,-1.3400001525878906,1.3299980163574148,-3.699996948242188,2.040000915527344,2.009994506835937,-0.32999420166015625,8.419998168945298,7.9799957275390625,13.5,8.0,4.0,08-03,3.0416660308837877
05-21,4.179998397827141,4.819999694824227,-1.6400032043457102,-1.3400001525878906,1.3999977111816406,-4.919998168945297,2.8700027465820312,1.8199996948242188,-0.589996337890625,8.419998168945298,7.5399932861328125,10.110000610351575,8.0,4.0,08-04,2.722499370574952
05-22,5.0,4.869998931884759,-1.960002899169929,-1.3699989318847583,3.299999237060547,-4.789997100830084,2.779998779296889,1.8300018310546875,-0.589996337890625,8.470001220703125,4.409996032714859,13.56000518798828,8.0,4.0,08-05,2.9591671625773124
05-23,4.260000228881837,5.029998779296875,-1.960002899169929,-2.479999542236328,3.790000915527351,-4.609996795654303,3.959999084472649,1.8300018310546875,-0.94000244140625,8.890007019042969,5.05999755859375,9.069999694824249,8.0,4.0,08-06,2.6583336194356293
05-24,3.9100017547607417,5.029998779296875,-1.8700027465820384,-1.0,3.75,-4.9799957275390545,4.839996337890619,0.2400054931640625,-1.1399993896484375,10.06999969482422,4.150001525878906,8.809997558593762,8.0,4.0,08-07,2.6508336067199707
05-25,3.9100017547607417,5.3699989318847665,-4.6200027465820455,-0.6300010681152344,3.0,-4.4299964904785165,4.839996337890619,0.4300003051757813,-1.7900009155273438,10.129997253417967,6.819999694824219,8.809997558593762,8.0,4.0,08-08,2.653332551320393
05-26,3.9100017547607417,5.080001831054688,-4.239997863769531,-0.6599998474121094,3.0299987792968683,-4.4299964904785165,4.839996337890619,0.15999603271484375,-1.6300048828125,10.240005493164032,8.760002136230469,8.809997558593762,8.0,4.0,08-09,2.822500069936114
05-27,4.389999389648442,3.8199996948242183,-6.970001220703125,-0.7900009155273438,3.0299987792968683,-4.4299964904785165,3.8899993896484233,-0.970001220703125,-1.8000030517578125,9.650001525878894,8.760002136230469,5.110000610351578,7.0,5.0,08-10,1.9741665522257472
05-28,4.869998931884768,3.909999847412109,-5.909999847412102,-0.7900009155273438,3.0299987792968683,-4.379997253417969,4.3000030517578125,-1.279998779296875,-2.05999755859375,9.650001525878894,8.760002136230469,7.650001525878906,7.0,5.0,08-11,2.3125009536743155
05-29,3.989999771118161,4.1199989318847665,-7.99000167846679,-0.7900009155273438,4.069999694824219,-4.010002136230469,6.1499977111816415,-1.0400009155273438,-2.05999755859375,9.650001525878894,10.170005798339844,5.6100006103515625,7.0,5.0,08-12,2.322500069936116
05-30,3.3500022888183665,2.8099975585937567,-7.99000167846679,-0.03999710083008523,2.879997253417976,-4.4299964904785005,5.279998779296881,-1.0400009155273438,-2.05999755859375,9.94000244140625,7.5699996948242045,5.3199996948242045,7.0,5.0,08-13,1.7991669972737645
05-31,3.540000915527351,2.8099975585937567,-7.99000167846679,-0.779998779296875,3.5,-4.150001525878906,4.87999725341799,-1.0400009155273438,-3.5,10.059997558593738,6.7700042724609375,6.6699981689453125,7.0,5.0,08-14,1.730832735697431
06-01,3.540000915527351,2.8099975585937567,-4.770000457763678,-0.279998779296875,3.5,-3.389999389648437,4.87999725341799,-1.1100006103515625,-4.120002746582031,8.6300048828125,7.19000244140625,6.6699981689453125,7.0,5.0,08-15,1.9624999364217144
06-02,2.849998474121101,2.1300010681152344,-4.170001983642584,-0.25,3.4600028991699285,-3.389999389648437,4.829998016357437,-1.7699966430664062,-3.4199981689453125,8.120002746582031,5.05999755859375,6.019996643066406,7.0,5.0,08-16,1.6225001017252625
06-03,3.1700019836425715,2.05999755859375,-2.730003356933586,0.1399993896484304,3.4600028991699285,-3.1100006103515483,4.889999389648453,-1.6999969482421875,-3.0999984741210938,7.4799957275390625,5.05999755859375,5.239997863769531,8.0,4.0,08-17,1.7383327484130884
06-04,2.6000022888183665,3.4099998474121165,-2.5699996948242188,0.1399993896484304,3.7299995422363352,-3.029998779296875,5.950004577636719,-1.92999267578125,-2.299995422363281,7.4799957275390625,3.3699951171875,6.34999847412108,8.0,4.0,08-18,1.9333340326944988
06-05,2.290000915527344,4.6199989318847665,-2.779998779296875,-0.04000091552733665,3.4200019836425715,-3.2299995422363423,5.8099975585937225,-1.2999954223632812,-2.299995422363281,7.419998168945312,1.200004577636733,4.849998474121094,7.0,5.0,08-19,1.663334210713702
06-06,2.1399993896484446,4.529998779296875,-2.779998779296875,-0.920001983642578,3.0100021362304616,-3.430000305175781,6.080001831054688,-1.2999954223632812,-1.9300003051757808,7.7599945068359375,0.01999664306640625,4.299995422363267,7.0,5.0,08-20,1.4566659927368153
06-07,2.470001220703125,4.529998779296875,-3.099998474121101,-1.3199996948242043,2.240001678466797,-3.1000061035156388,5.3600006103515625,-1.6999969482421875,-3.560005187988281,9.520004272460968,-1.6999969482421875,4.110000610351548,6.0,6.0,08-21,1.1458336512247729
06-08,2.470001220703125,4.549999237060547,-4.479999542236322,-1.8300018310546804,2.1500015258789134,-3.480003356933608,5.3600006103515625,-0.8899993896484375,-3.0999984741210938,9.199996948242188,-4.3400039672851705,4.110000610351548,6.0,6.0,08-22,0.809999465942381
06-09,2.200000762939453,4.2800025939941335,-4.430000305175781,-1.4000015258788991,1.710002899169922,-3.480003356933608,4.959999084472671,-1.0100021362304688,-4.160003662109375,9.470001220703123,-3.8899993896484375,5.220001220703112,6.0,6.0,08-23,0.7891664505004871
06-10,1.9599990844726487,3.460002899169922,-3.710002899169922,-0.9300003051757812,1.710002899169922,-3.3799972534179688,3.830001831054688,-1.0999984741210938,-3.3199996948242188,9.360000610351562,-3.8899993896484375,5.910003662109362,6.0,6.0,08-24,0.8250010808308902
06-11,1.6000022888183594,2.539997100830085,-3.6199989318847656,-0.9300003051757812,2.0500030517578054,-2.6699981689453267,2.8300018310546733,0.55999755859375,-3.830001831054688,9.360000610351562,-3.25,13.550003051757797,7.0,5.0,08-25,1.5158338546752894
06-12,1.479999542236328,2.0,-3.180000305175781,-1.5299987792968819,3.540000915527344,-2.4799995422363352,1.5699996948242043,0.8000030517578125,-3.830001831054688,9.029998779296877,-1.0800018310547017,13.75,7.0,5.0,08-26,1.6724999745686813
06-13,2.200000762939453,2.079998016357422,-3.180000305175781,-1.4500007629394602,2.549999237060547,-2.6900024414062567,1.2700042724609517,0.8000030517578125,-4.569999694824219,8.590003967285156,-0.4599990844726421,12.71999359130858,7.0,5.0,08-27,1.4883333841959636
06-14,1.8799972534179616,2.079998016357422,-3.329998016357422,-1.5600013732910083,3.029998779296875,-1.6800003051757812,2.440002441406264,1.1399993896484375,-5.1699981689453125,8.940002441406238,0.900001525878892,13.18999481201172,8.0,4.0,08-28,1.8216663996378568
06-15,1.8799972534179616,0.9099998474121094,-3.229999542236328,-1.7600021362304688,1.6100006103515625,-1.6399993896484375,2.440002441406264,1.75,-3.840003967285156,9.620002746582033,1.3300018310546875,13.18999481201172,8.0,4.0,08-29,1.8549995422363288
06-16,2.1899986267089773,0.2999992370605469,-2.1699981689453125,-1.6399993896484446,1.6700019836425852,-1.6399993896484375,1.809997558593764,1.970001220703125,-4.089996337890625,9.050003051757812,1.69000244140625,11.209999084472656,8.0,4.0,08-30,1.6958341598510749
06-17,1.950000762939446,1.5199966430664062,-0.3699989318847656,-1.7000007629394602,1.6700019836425852,-2.3300018310546875,2.8500061035156388,2.430000305175781,-4.75,9.860000610351575,1.69000244140625,13.139999389648425,8.0,4.0,08-31,2.163333892822266
06-18,1.7799987792968681,0.470001220703125,-0.3400001525878764,-1.7000007629394602,1.4700012207031319,-2.0699996948242188,2.440002441406264,1.0699996948242188,-3.779998779296875,9.860000610351575,2.370002746582045,11.139999389648438,8.0,4.0,09-01,1.8925005594889364
06-19,1.470001220703125,1.5500030517578125,-0.17000198364257102,-1.5100021362304688,2.2100028991699294,-2.660003662109389,2.0699996948242188,0.3600006103515625,-3.779998779296875,10.449996948242203,2.4499969482421875,10.790000915527344,8.0,4.0,09-02,1.935832977294923
06-20,2.1199989318847727,2.6599998474121094,-0.17000198364257102,-1.3200035095214844,3.8899993896484375,-2.4799957275390767,0.3000030517578125,0.3600006103515625,-3.919998168945313,10.059997558593762,1.880004882812472,11.949996948242203,8.0,4.0,09-03,2.110833485921224
06-21,1.959999084472656,2.6599998474121094,-0.8199996948242188,-0.6599998474120952,3.7800025939941406,-1.8499984741210935,0.980003356933608,0.3000030517578125,-4.029998779296875,11.599998474121108,2.8400039672851705,14.709999084472685,8.0,4.0,09-04,2.622501055399584
06-22,1.959999084472656,3.759998321533203,-0.6100006103515625,-1.069999694824233,3.539997100830085,-2.220001220703125,0.980003356933608,-0.32999420166015625,-3.209999084472656,12.080001831054703,0.8700027465820312,14.709999084472685,7.0,5.0,09-05,2.5383338928222696
06-23,1.770000457763672,4.1699981689453125,-1.6199989318847656,0.2900009155273437,3.789997100830085,-2.220001220703125,1.3000030517578267,-2.1699981689453125,-2.920005798339844,14.199996948242172,3.1600036621093612,14.819999694824247,8.0,4.0,09-06,2.8808329900105814
06-24,1.739997863769524,4.829998016357428,-2.6199989318847656,-0.09999847412109376,3.789997100830085,-1.8300018310546875,2.0300064086914205,2.410003662109375,-3.8899993896484375,16.0,3.1600036621093612,16.319999694824247,8.0,4.0,09-07,3.486667315165205
06-25,1.1800003051757884,5.109996795654297,-3.4799995422363215,-0.09999847412109376,3.75999832153321,-1.6500015258789062,3.0999984741210795,4.8600006103515625,-4.290000915527344,16.0,0.8800048828124716,11.56999969482422,8.0,4.0,09-08,3.0783332188924137
06-26,0.9399986267089986,4.3400001525878915,-2.5300025939941406,0.029998779296875,3.5300025939941406,-1.1100006103515625,2.789993286132784,5.69000244140625,-4.290000915527344,15.470001220703125,1.959999084472685,11.0,9.0,3.0,09-09,3.151666005452475
06-27,1.1599998474121025,4.629997253417977,-2.5300025939941406,0.06999969482421875,3.0999984741210938,-2.3000030517578125,4.279994964599595,5.69000244140625,-3.520004272460937,16.849998474121108,-0.6700057983398438,6.809997558593763,8.0,4.0,09-10,2.7974977493286146
06-28,1.3799972534179616,4.629997253417977,-3.1100006103515696,0.9600028991699148,3.9400024414062433,-3.130001068115241,4.0399971008300914,4.599998474121094,-3.3199996948242188,15.19000244140625,-5.239997863769531,8.639999389648438,8.0,4.0,09-11,2.3816665013631173
06-29,1.3799972534179616,5.6599998474121165,-3.19000244140625,0.060001373291015625,3.540000915527344,-3.470001220703125,4.0399971008300914,2.4899978637695312,-2.6699981689453125,15.18000030517581,-5.159996032714844,8.639999389648438,8.0,4.0,09-12,2.2083330154418976
06-30,1.3999977111816335,6.1599998474121085,-4.259998321533203,-0.5900001525879048,3.55999755859375,-3.470001220703125,4.0099983215332164,-1.6699981689453125,-1.7399978637695312,14.93000030517578,-5.639999389648452,5.909996032714844,6.0,6.0,09-13,1.5499995549519838
07-01,1.1599998474121165,6.3899993896484295,-5.3600006103515705,-0.5,3.55999755859375,-3.970001220703125,3.0600051879882955,-0.6599960327148438,-1.8800048828125,15.800003051757812,-5.639999389648452,4.709999084472641,6.0,6.0,09-14,1.3891668319702128
07-02,1.8299980163574217,6.650001525878898,-4.6599998474121085,-0.5,3.709999084472656,-2.9499969482421875,3.610000610351548,-1.1800003051757812,-2.5800018310546875,15.800003051757812,-4.910003662109388,3.389999389648437,6.0,6.0,09-15,1.5174999237060518
07-03,2.75,7.6199989318847665,-3.930000305175781,-1.25,3.270000457763672,-4.2700004577636586,2.88000106811522,-1.3499984741210938,-2.5800018310546875,15.40000152587892,-7.869995117187513,3.819999694824205,6.0,6.0,09-16,1.2075004577636708
07-05,3.959999084472656,8.380001068115241,-3.930000305175781,-0.04000091552734375,3.7000007629394465,-3.829998016357422,5.200000762939453,-1.3499984741210938,-2.4199981689453125,17.430000305175778,-8.129997253417969,2.5099945068359237,6.0,6.0,09-18,1.790000279744465
07-06,3.959999084472656,8.380001068115241,-4.5199966430664125,0.9400024414062428,2.6099967956543044,-4.9299964904785165,5.200000762939453,-0.839996337890625,-2.5999984741210938,17.220001220703107,-6.979995727539034,2.5099945068359237,7.0,5.0,09-19,1.7458343505859375
07-07,4.549999237060547,7.140003204345696,-5.1100006103515625,2.3799972534179616,3.319999694824233,-4.9299964904785165,4.739997863769531,-0.8899993896484375,-2.649993896484375,16.489997863769528,-5.689994812011719,2.6199951171875,7.0,5.0,09-20,1.8308337529500325
07-08,4.539997100830072,6.229999542236327,-5.6899986267089835,2.6899986267089773,3.319999694824233,-4.7499961853027335,4.979999542236334,-1.1800003051757812,-2.7400054931640625,16.029998779296857,-5.689994812011719,3.029998779296875,7.0,5.0,09-21,1.7308330535888663
07-09,4.280002593994148,6.0600013732910165,-5.340000152587906,2.6899986267089773,2.420001983642585,-4.720001220703125,3.740001678466783,-1.4799957275390625,-2.180000305175781,16.029998779296857,-5.7699966430664205,1.2799987792968608,7.0,5.0,09-22,1.4175008138020782
07-10,4.240001678466797,5.599998474121087,-6.790000915527352,2.9399986267089773,2.020000457763672,-5.1000022888183585,3.949996948242188,-1.779998779296875,-2.180000305175781,15.019996643066392,-5.730003356933594,-1.5,6.0,6.0,09-23,0.8908322652180959
07-11,3.779998779296875,5.3600006103515625,-6.790000915527352,3.450000762939453,0.920001983642578,-5.149997711181656,2.4799957275390625,-1.779998779296875,-2.049995422363281,14.809997558593734,-5.969993591308607,0.9000015258789062,7.0,5.0,09-24,0.8300008773803671
07-12,4.040000915527344,5.3600006103515625,-6.709999084472656,3.6199989318847656,0.75,-5.600002288818367,2.4199981689453125,-1.9900054931640625,-2.8300018310546875,14.580001831054703,-5.310005187988281,-1.2900009155273438,6.0,6.0,09-25,0.5866654713948574
07-13,4.040000915527344,3.700000762939453,-7.450000762939452,2.8100013732910085,0.6500015258789062,-5.540000915527344,2.4199981689453125,-0.7700042724609375,-2.909996032714844,15.509994506835909,-4.4099960327148295,-1.2900009155273438,6.0,6.0,09-26,0.5633331934610984
07-14,4.029998779296869,3.459999084472656,-6.369998931884773,2.35000228881836,0.5,-5.540000915527344,2.740001678466804,-1.4000015258789062,-2.6699981689453125,15.470001220703141,-3.799995422363267,-4.169998168945327,6.0,6.0,09-27,0.3833341598510748
07-15,1.810001373291016,4.170001983642578,-5.650001525878906,2.170001983642585,0.5,-5.819999694824219,1.6599998474121307,-1.8600006103515625,-3.040000915527344,15.30999755859375,-3.799995422363267,-5.639999389648423,6.0,6.0,09-28,-0.015832901000971827
07-16,0.6399993896484304,4.769996643066406,-4.010002136230455,2.170001983642585,0.8299980163574219,-5.5099983215332164,1.2299957275390767,-2.170005798339844,-3.25,15.30999755859375,-4.0400009155273295,-5.139999389648422,6.0,6.0,09-29,0.06916522979736682
07-17,2.2099990844726487,5.709999084472648,-5.979999542236327,1.990001678466804,1.1899986267089917,-3.649997711181662,0.2200012207031108,-1.3000030517578125,-3.25,13.959999084472654,-4.6100006103515625,-7.040000915527344,6.0,6.0,09-30,-0.04583358764648734
07-18,1.5600013732910083,5.8400001525878915,-5.979999542236327,1.30999755859375,-0.18000030517578836,-4.3000030517578125,0.9800033569335938,-1.3000030517578125,-3.1999969482421875,13.71999359130858,-5.69000244140625,-6.669998168945298,5.0,7.0,10-01,-0.32583395640055457
07-19,1.5400009155273438,5.8400001525878915,-7.8899993896484455,1.0,0.5499992370605398,-4.700000762939438,2.0,-1.0100021362304688,-3.009994506835937,11.40999603271483,-4.9500045776367045,-6.090003967285143,6.0,6.0,10-02,-0.4425007502237944
07-20,1.5400009155273438,5.3000030517578205,-6.5999984741210875,1.6300010681152344,1.4500007629394531,-6.140003204345689,2.0,-3.090003967285156,-3.389999389648437,11.989997863769533,-5.490005493164063,-6.090003967285143,6.0,6.0,10-03,-0.5741675694783493
07-21,1.7600021362304688,5.4299964904785165,-8.490001678466799,2.09000015258789,0.6399993896484446,-6.140003204345689,2.8799972534179688,-2.529998779296875,-1.6300048828125,13.010002136230467,-7.810005187988281,-4.98000335693358,6.0,6.0,10-04,-0.480834960937497
07-22,0.6899986267089844,3.2399978637695384,-10.25,2.25,0.6399993896484446,-4.470001220703125,4.239997863769531,-3.0999984741210938,-1.029998779296875,12.860000610351562,-7.810005187988281,-4.800003051757797,6.0,6.0,10-05,-0.6283343633015926
07-23,0.029998779296882105,2.6899986267089844,-8.079998016357424,2.25,0.7099990844726634,-4.339996337890625,5.520004272460952,-3.8499984741210938,-1.3199996948242188,12.860000610351562,-9.160003662109391,-5.590003967285142,6.0,6.0,10-06,-0.6899998982747372
07-24,0.6499977111816406,2.969997406005845,-7.069999694824219,3.2799987792968817,1.029998779296875,-3.680000305175781,6.660003662109388,-3.839996337890625,-1.3199996948242188,13.25,-8.300003051757827,-4.299995422363296,6.0,6.0,10-07,-0.05583318074544449
07-25,1.5800018310546875,2.9399986267089773,-7.069999694824219,2.9600028991699285,1.7900009155273366,-3.270000457763672,6.299999237060554,-3.839996337890625,-0.5500030517578125,12.359992980957033,-5.589996337890625,-5.2900009155273295,6.0,6.0,10-08,0.1933333079020194
07-26,1.8199996948242188,2.9399986267089773,-6.9000015258789125,2.759998321533196,2.3199996948242263,-3.959999084472656,7.299999237060554,-4.19000244140625,0.0800018310546875,11.099998474121094,-7.930000305175753,-4.8699951171875,7.0,5.0,10-09,0.039166450500490065
07-27,1.8199996948242188,3.09000015258789,-4.990001678466803,1.7599983215332102,1.6099967956542969,-2.990001678466797,7.299999237060554,-3.0800018310546875,0.5800018310546875,4.769996643066406,-10.160003662109359,-4.8699951171875,7.0,5.0,10-10,-0.4300009409586571
07-28,2.0999984741210938,2.9199981689453125,-5.290000915527344,1.2000007629394531,1.279998779296875,-2.990001678466797,6.3800010681152335,-3.7399978637695312,6.150001525878906,3.220001220703125,-8.459999084472644,-3.0699996948242045,7.0,5.0,10-11,-0.024999936421709872
07-29,2.7200012207031183,3.4499969482421804,-3.80999755859375,0.7099990844726491,1.279998779296875,-2.7100028991699148,3.2799987792968612,-2.2300033569335938,7.540000915527344,-0.0800018310546875,-8.459999084472644,-2.290000915527358,6.0,6.0,10-12,-0.050000826517743256
07-30,3.0,3.670001983642578,-3.3199996948242188,0.7099990844726491,1.3800010681152344,-3.54999923706054,2.7600021362304688,-2.2699966430664062,7.430000305175781,-0.0800018310546875,-7.32999420166017,-1.1000061035156108,6.0,6.0,10-13,0.10833390553792316
07-31,3.030002593994148,3.159999847412095,-2.290000915527344,1.180000305175774,2.540000915527344,-3.5999984741210938,2.779998779296875,-1.67999267578125,7.430000305175781,-0.01000213623046875,-4.709999084472641,2.840003967285142,7.0,5.0,10-14,0.88916778564453
08-01,2.3600006103515625,3.5400009155273366,-2.290000915527344,2.04999923706054,1.5400009155273438,-4.950000762939447,2.8800048828125,-1.67999267578125,5.849998474121094,-0.8600006103515625,-1.2299957275390767,-1.1000061035156108,6.0,6.0,10-15,0.5091673533121739
08-02,3.209999084472656,3.5400009155273366,-1.2099990844726562,2.6599998474121094,1.4399986267089844,-4.990001678466791,2.3899993896484237,-0.9499969482421876,6.239997863769531,-1.3300018310546875,-2.1699981689453125,-2.220001220703139,6.0,6.0,10-16,0.5508330663045223
08-03,3.209999084472656,3.6300010681152415,-1.3599967956542969,1.3899993896484304,1.2700004577636648,-4.740001678466791,2.3899993896484237,-1.0300064086914062,6.589996337890625,-1.9499969482421875,-1.9000015258789065,-2.220001220703139,6.0,6.0,10-17,0.4399992624918596
08-04,3.0,3.390003204345703,1.2000007629394602,2.1300010681152344,1.680000305175767,-4.740001678466791,1.7399978637695312,-0.75,6.580001831054688,1.3899993896484375,-1.6100006103515625,-2.1800003051758097,8.0,4.0,10-18,0.9858334859212216
08-05,2.1599998474121094,3.109996795654297,-0.2400016784667969,3.020000457763672,1.680000305175767,-4.330001831054695,0.8800048828125,-0.3899993896484375,6.240005493164063,0.80999755859375,-1.6100006103515625,-2.020004272460937,7.0,5.0,10-19,0.7758331298828107
08-06,2.4000015258789062,3.060001373291016,3.310001373291016,3.020000457763672,2.180000305175767,-3.8699989318847727,1.4699935913085795,0.220001220703125,5.8600006103515625,0.80999755859375,-4.25,-1.3100051879882812,9.0,3.0,10-20,1.0749994913736949
08-07,2.209999084472664,2.6100006103515554,2.25,2.950000762939453,3.25,-2.8800010681152344,1.1999969482421875,0.31000518798828125,5.8600006103515625,1.469993591308608,-5.110000610351578,-4.099998474121094,9.0,3.0,10-21,0.8349997202555338
08-08,2.0699996948242188,3.6199989318847656,2.25,2.8200035095214844,2.849998474121086,-2.3199996948242188,0.5699996948242188,0.31000518798828125,5.8600006103515625,1.30999755859375,-5.0900039672851705,-0.04000091552734375,9.0,3.0,10-22,1.1841665903727197
08-09,1.6199989318847727,3.6199989318847656,0.01999664306640625,2.509998321533203,3.430000305175774,-0.9099998474121094,-0.04999542236328125,0.5,6.159996032714844,0.4199981689453125,-3.180000305175781,0.739997863769517,9.0,3.0,10-23,1.2399991353352853
08-10,1.6199989318847727,4.209999084472656,2.540000915527344,2.69000244140625,4.019996643066399,-1.5699996948242188,-0.04999542236328125,-0.25,7.689994812011719,1.5900039672851705,-3.3799972534179688,0.739997863769517,8.0,4.0,10-24,1.6541668574015302
08-11,1.0999984741211009,3.1300010681152277,1.1400032043457031,1.729999542236328,3.1299972534179616,-1.5699996948242188,0.69000244140625,1.0600051879882812,6.8899993896484375,2.279998779296875,-2.6699981689452983,1.0,10.0,2.0,10-25,1.4925006230672206
08-12,1.4599990844726562,3.0699996948242188,1.7800025939941406,1.4399986267089844,3.1299972534179616,-1.7599983215332031,2.5100021362304545,1.4199981689453125,6.209999084472656,-1.3199996948242188,-2.6699981689452983,0.2200012207031392,9.0,3.0,10-26,1.290833473205567
08-13,0.9899978637695312,3.4000015258789062,-0.06999969482421875,1.4399986267089844,3.0,-1.3300018310546804,2.370002746582017,1.5,5.579994201660156,-1.3199996948242188,-3.84999847412108,-0.1699981689453125,7.0,5.0,10-27,0.9616664250691738
08-14,1.4699974060058594,3.2700004577636648,0.5300025939941406,1.4499969482421804,3.25,-1.220001220703125,1.4300003051757812,0.7699966430664062,5.579994201660156,-1.9000015258789065,-1.75,-1.0299987792968608,8.0,4.0,10-28,0.9874989191691079
08-15,1.5400009155273438,3.29999923706054,0.5300025939941406,1.05999755859375,5.079998016357437,-2.930000305175774,0.8600006103515767,0.7699966430664062,5.739997863769531,-0.04999542236328125,-0.45000457763673296,-2.5999984741210938,8.0,4.0,10-29,1.0708328882853202
08-16,0.7000007629394531,3.29999923706054,0.970001220703125,0.7599983215332031,4.879997253417969,-2.430000305175781,1.760002136230483,1.1099929809570312,5.3899993896484375,-1.30999755859375,-2.0500030517577983,-5.910003662109375,8.0,4.0,10-30,0.5974988937377947
08-17,0.7000007629394531,2.529998779296875,1.5,0.6800003051757741,4.770000457763672,-2.6500015258788987,1.760002136230483,0.4899978637695313,5.8000030517578125,-2.599998474121108,-1.709999084472642,-5.910003662109375,8.0,4.0,10-31,0.4466667175292981
08-18,0.5400009155273366,2.680000305175781,3.0100021362304545,1.0800018310546804,4.319999694824226,-2.6500015258788987,2.0199966430664062,-3.810005187988281,4.30999755859375,-1.489997863769517,-0.970001220703125,-5.5400009155273295,7.0,5.0,11-01,0.29166603088379023
08-19,0.5200004577636719,2.9799995422363215,1.3100013732910227,0.7099990844726634,4.319999694824226,-3.099998474121086,3.2299957275390625,-5.339996337890625,5.580001831054688,-0.9000015258789062,-0.970001220703125,-4.75,7.0,5.0,11-02,0.299166679382326
08-20,0.020000457763671875,2.75,-0.4899978637695242,0.7099990844726634,4.220001220703131,-2.040000915527344,5.489997863769531,-6.479995727539063,5.920005798339844,-0.9000015258789062,0.3700027465820455,-3.4600067138671733,7.0,5.0,11-03,0.5091670354207398
08-21,-0.7000007629394531,3.240001678466797,0.5500030517578196,0.9099998474121094,5.26000213623049,-1.6899986267089844,8.110000610351562,-6.180000305175781,5.920005798339844,-1.3300018310546875,-1.1800003051757812,0.3899993896484375,7.0,5.0,11-04,1.1083342234293645
08-22,-0.2999992370605469,3.3900032043457102,0.5500030517578196,2.2900009155273366,4.299999237060547,-1.8899993896484448,8.610000610351577,-6.180000305175781,5.290000915527344,0.0,-9.75,0.4499969482422017,7.0,5.0,11-05,0.5633338292439802
08-23,-0.4799995422363281,3.3900032043457102,-0.5900001525878906,-1.029998779296875,4.240001678466797,-1.4099998474121094,7.080001831054702,-6.4199981689453125,4.989997863769531,0.8899993896484233,-11.59000396728517,-0.05999755859376421,5.0,7.0,11-06,-0.08249950408935725
08-24,-0.4799995422363281,4.069999694824226,0.5900001525878906,-1.1500015258789062,3.709999084472664,-0.0800018310546946,7.080001831054702,-6.709999084472656,5.8600006103515625,-1.920005798339844,-12.329994201660142,-0.05999755859376421,5.0,7.0,11-07,-0.11833318074544093
08-25,-0.470001220703125,5.1500015258789125,1.3999977111816406,-0.3499984741210937,4.3000030517578125,-0.0800018310546946,7.69000244140625,-6.659996032714844,3.459999084472656,-0.44000244140625,-11.5,0.9200057983398438,6.0,6.0,11-08,0.2850008010864258
08-26,0.490001678466804,5.4699974060058585,0.009998321533203123,-1.5900001525878906,4.3000030517578125,-0.31999969482421875,6.739997863769531,-4.1399993896484375,3.8600006103515625,0.5699996948242188,-11.5,4.310005187988281,8.0,4.0,11-09,0.6833337148030605
08-27,0.3499984741210937,4.330001831054688,-1.7000007629394531,-1.5900001525878906,5.620002746582031,-0.20000076293945312,5.59999847412108,-3.040000915527344,3.8700027465820312,0.5699996948242188,-12.010002136230485,3.5499954223632955,7.0,5.0,11-10,0.4458328882853178
08-28,1.2599983215332102,5.299999237060547,-2.930000305175781,-2.060001373291016,4.5999984741210875,0.75,4.739997863769531,-3.669998168945313,3.8700027465820312,1.220001220703125,-12.459999084472654,5.040000915527359,8.0,4.0,11-11,0.4716666539510103
08-29,1.5699996948242188,5.849998474121094,-2.930000305175781,-2.6499977111816406,5.040000915527344,1.4000015258789205,5.680000305175781,-3.669998168945313,3.7300033569335938,0.4300003051757528,-12.690002441406234,9.220001220703123,8.0,4.0,11-12,0.9150005976359048
08-30,1.579998016357422,5.849998474121094,-3.130001068115241,-2.45000076293946,5.909999847412088,0.720001220703125,5.699996948242188,-3.5800018310546875,1.7900009155273438,-0.409996032714858,-13.639999389648438,9.220001220703123,7.0,5.0,11-13,0.629999796549475
08-31,1.579998016357422,5.1899986267089835,-2.979999542236328,-2.7600021362304616,6.030002593994119,0.6299972534179688,5.699996948242188,-6.5500030517578125,1.3000030517578125,-2.94000244140625,-11.43000030517578,9.220001220703123,7.0,5.0,11-14,0.2491658528645821
09-01,1.819999694824212,3.8600006103515696,-0.6000022888183594,-3.849998474121101,6.719997406005838,0.6299972534179688,7.2599945068359375,-6.120002746582031,1.7099990844726562,-4.0,-10.029998779296859,8.110000610351562,7.0,5.0,11-15,0.459165573120116
09-02,1.6199989318847656,2.799999237060547,0.1899986267089844,-4.959999084472656,6.719997406005838,0.6299972534179688,4.3199996948242045,-5.650001525878906,2.3600006103515625,-4.299995422363267,-10.029998779296859,5.34999847412108,8.0,4.0,11-16,-0.07916704813639501
09-03,1.8600006103515556,2.1800003051757884,1.029998779296868,-4.959999084472656,6.719997406005838,0.779998779296875,4.1399993896484375,-6.080001831054688,2.2300033569335938,-4.299995422363267,-10.029998779296859,8.44000244140625,8.0,4.0,11-17,0.16750049591064453
09-04,2.4099998474121023,1.7099990844726562,0.8199996948242045,-4.959999084472656,6.29999923706054,0.09000396728515625,4.830001831054703,-5.8899993896484375,2.2300033569335938,-4.299995422363267,-11.470001220703109,8.889999389648438,8.0,4.0,11-18,0.05500094095866004
09-05,1.9599990844726636,1.7699966430664062,0.8199996948242045,-4.8100013732910165,6.450000762939452,0.2800064086914205,3.950004577636733,-5.8899993896484375,2.2300033569335938,-3.389999389648437,-11.239997863769544,11.550003051757797,8.0,4.0,11-19,0.3066679636637364
09-06,1.6499977111816475,1.7699966430664062,0.8199996948242045,-4.6100006103515705,6.270000457763686,0.279998779296875,5.410003662109388,-5.8899993896484375,3.2600021362304688,-2.6699981689453267,-10.540000915527331,11.550003051757797,8.0,4.0,11-20,0.6083335876464844
09-07,1.6499977111816475,1.7699966430664062,-0.7999992370605469,-4.5500030517578205,5.2399978637695375,0.12000274658203125,5.410003662109388,-6.709999084472656,2.040000915527344,-2.720001220703125,-8.599998474121094,11.550003051757797,7.0,5.0,11-21,0.3666667938232428
09-08,1.6499977111816475,1.6000022888183594,-0.8199996948242116,-4.170001983642584,4.7399978637695375,0.12000274658203125,5.410003662109388,-5.55999755859375,1.6500015258789062,-3.379997253417983,-8.400001525878894,11.550003051757797,7.0,5.0,11-22,0.3658342361450207
09-09,1.240001678466804,1.6000022888183594,-0.6300010681152344,-4.13999938964843,4.7399978637695375,0.9500007629394602,5.900001525878893,-3.220001220703125,0.3499984741210937,-4.25,-8.400001525878894,9.720001220703123,7.0,5.0,11-23,0.3216667175292993
09-10,1.0699996948242188,2.0100021362304688,-0.4300003051757741,-4.13999938964843,4.3999977111816415,1.2099990844726562,7.379997253417954,-4.2700042724609375,1.4199981689453125,-4.25,-8.41000366210936,10.419998168945328,7.0,5.0,11-24,0.5341653823852562
09-11,1.2000007629394531,1.3400001525878906,-0.04999923706053977,-4.219997406005845,4.590000152587906,1.3099975585937642,6.449996948242202,-3.020004272460937,1.4199981689453125,-4.209999084472642,-7.329994201660156,9.25,7.0,5.0,11-25,0.5608332951863672
09-12,0.779998779296875,0.7700004577636719,-0.04999923706053977,-4.329998016357428,5.0499954223632875,2.6399955749511577,7.129997253417982,-3.020004272460937,1.3400039672851562,-5.8899993896484375,-7.930000305175753,8.529998779296875,7.0,5.0,11-26,0.41833241780599256
09-13,0.6099967956542969,0.7700004577636719,-0.6699981689453125,-4.520000457763666,5.229999542236328,2.579998016357408,7.559997558593763,-2.0500030517578125,1.3499984741210938,-6.9199981689453125,-7.450004577636704,8.529998779296875,7.0,5.0,11-27,0.41833209991455256
09-14,0.6099967956542969,0.4900016784667969,-2.310001373291016,-4.6699981689453125,3.919998168945313,2.509998321533189,7.559997558593763,-1.3199996948242188,1.3799972534179688,-8.27999877929689,-5.530006408691392,8.529998779296875,7.0,5.0,11-28,0.2408320109049479
09-15,-0.2900009155273437,0.75,-3.1400032043456965,-5.0900001525878755,4.0500030517578125,2.509998321533189,5.869995117187487,-1.8300018310546875,2.029998779296875,-9.0,-3.9200057983398295,9.279998779296877,6.0,6.0,11-29,0.10166517893473366
09-16,-0.2900009155273437,0.6999969482421946,-1.0699996948242188,-4.8199996948242125,4.0500030517578125,2.6799964904785014,5.830001831054688,-1.1299972534179688,1.470001220703125,-7.270004272460923,-3.9200057983398295,9.840003967285156,6.0,6.0,11-30,0.5058329900105818
09-17,-1.029998779296868,0.6199989318847656,0.09999847412110087,-4.8199996948242125,4.860004425048828,3.799999237060547,6.590003967285156,-2.930000305175781,2.1199951171875,-7.270004272460923,-4.450004577636719,11.650001525878904,7.0,5.0,12-01,0.7699995040893585
09-18,-0.5800018310546804,0.3799972534179688,2.270000457763672,-4.519996643066406,4.7299957275390545,3.650001525878906,7.330001831054702,-5.430000305175781,2.1199951171875,-7.55999755859375,-5.470001220703112,12.56999969482422,7.0,5.0,12-02,0.7908328374226912
09-19,-0.6399993896484375,1.5499992370605469,2.270000457763672,-4.6399993896484375,4.80999755859375,3.939998626708999,7.340003967285156,-5.430000305175781,2.0,-7.279998779296862,-5.729995727539048,14.160003662109359,7.0,5.0,12-03,1.0291674931844101
09-20,-0.479999542236321,1.5499992370605469,2.6599998474121165,-5.010002136230469,4.729999542236313,4.149997711181655,6.3000030517578125,-5.540000915527344,2.290000915527344,-6.439994812011719,-6.040000915527315,14.160003662109359,7.0,5.0,12-04,1.0275004704793318
09-21,-0.479999542236321,2.1500015258789134,3.900001525878906,-5.7199974060058585,3.8099975585937567,5.229999542236328,6.3000030517578125,-4.339996337890625,1.4499969482421875,-6.2699966430664205,-5.3899993896484375,14.160003662109359,7.0,5.0,12-05,1.2333345413208
09-22,-0.6299972534179616,3.05999755859375,5.150001525878906,-5.569999694824212,3.409999847412124,5.229999542236328,7.19000244140625,-5.1100006103515625,2.339996337890625,-5.919998168945298,-6.319999694824219,13.279998779296875,7.0,5.0,12-06,1.3425000508626337
09-23,-1.2999992370605469,4.080001831054695,5.099998474121102,-5.400001525878898,3.409999847412124,5.490001678466804,6.779998779296875,-5.410003662109375,2.2399978637695312,-7.439994812011719,-6.319999694824219,15.470001220703125,7.0,5.0,12-07,1.3916667302449581
09-24,-0.2800025939941335,2.6899986267089844,3.700000762939453,-5.400001525878898,3.4000015258789134,5.569999694824219,8.749999999999988,-4.2599945068359375,1.4099960327148438,-7.439994812011719,-6.730003356933607,15.34999847412108,7.0,5.0,12-08,1.3966665267944318
09-25,0.25999832153321023,2.6800003051757884,3.650001525878906,-4.740001678466797,3.820003509521485,5.420001983642578,8.690002441406238,-4.579994201660156,1.4099960327148438,-5.819999694824247,-7.170005798339844,15.510002136230467,8.0,4.0,12-09,1.594167073567706
09-26,-0.6699981689453125,2.10000228881836,3.650001525878906,-4.1300010681152415,4.120002746582031,4.4999961853027415,9.449996948242203,-4.579994201660156,1.4199981689453125,-6.970001220703138,-6.839996337890625,15.25,7.0,5.0,12-10,1.4416672388712566
09-27,-0.6399993896484375,2.10000228881836,3.0400009155273366,-3.91999816894532,4.9399948120117125,4.510002136230469,8.930000305175794,-4.2599945068359375,1.839996337890625,-8.569999694824219,-6.040000915527357,15.25,7.0,5.0,12-11,1.4316670099894189
09-28,-0.6399993896484375,1.270000457763672,4.2099990844726625,-3.930000305175774,4.149997711181662,3.6399993896484375,8.930000305175794,-4.410003662109375,0.8199996948242188,-8.629997253417956,-6.509994506835966,15.25,7.0,5.0,12-12,1.179166793823245
09-29,-0.670001983642571,1.1899986267089773,4.259998321533197,-4.0,3.0799980163574285,3.6399993896484375,8.139999389648438,-2.459999084472656,0.970001220703125,-9.099998474121094,-5.879997253417982,14.989997863769515,7.0,5.0,12-13,1.1799996693929014
09-30,-1.0499992370605469,1.3900032043457102,5.270000457763666,-4.170001983642578,3.0799980163574285,4.6899986267089835,7.470001220703125,-2.8000030517578125,-1.4499969482421875,-7.839996337890625,-5.879997253417982,14.410003662109359,6.0,6.0,12-14,1.093334197998045
10-01,0.160003662109375,1.6100006103515554,6.8699989318847665,-4.170001983642578,2.1199989318847656,6.420001983642577,5.620002746582031,-2.9899978637695312,-1.1899948120117188,-7.839996337890625,-5.099998474121094,13.910003662109359,7.0,5.0,12-15,1.2850017547607404
10-02,0.420001983642571,1.3699989318847656,6.200000762939452,-4.299999237060553,3.120002746582017,5.30999755859375,4.5699996948242045,-4.30999755859375,-1.1899948120117188,-8.220001220703125,-1.1699981689453125,14.760002136230467,7.0,5.0,12-16,1.3800010681152308
10-03,-0.04999923706054688,1.270000457763672,6.200000762939452,-4.829998016357428,3.970001220703125,3.75,4.649993896484362,-4.30999755859375,-1.7399978637695312,-7.680000305175781,-1.019996643066392,13.059997558593766,6.0,6.0,12-17,1.1058336893717453
10-04,0.04000091552734375,1.270000457763672,4.3400001525878915,-5.39000320434571,4.240001678466803,3.59000015258789,5.039993286132797,-3.049995422363281,-1.7699966430664062,-6.75,-3.0100021362304688,13.059997558593766,7.0,5.0,12-18,0.9674997329711914
10-05,0.04000091552734375,0.2200012207031321,4.270000457763672,-5.189998626708992,4.2100028991699086,5.0300025939941415,5.039993286132797,-3.1500015258789062,-1.1599960327148438,-8.529998779296875,-3.2099990844726705,13.059997558593766,7.0,5.0,12-19,0.8858337402343727
10-06,-0.0800018310546875,1.0,4.700000762939453,-4.8499984741210875,4.8200035095214835,5.0300025939941415,5.769996643066406,-3.709999084472656,-2.0100021362304688,-9.729995727539075,-3.4799957275390767,13.050003051757797,6.0,6.0,12-20,0.8758344650268525
10-07,-0.8600006103515625,0.9500007629394532,4.05999755859375,-4.3400001525878915,4.8200035095214835,6.3100013732910165,3.5800018310546875,-1.839996337890625,-1.8799972534179688,-12.080001831054688,-3.4799957275390767,12.629997253417967,6.0,6.0,12-21,0.6558341979980457
10-08,-1.4099998474121094,0.9099998474121164,4.9499969482421795,-4.3400001525878915,4.980003356933594,6.69000244140625,1.4800033569335938,-1.9699935913085935,-2.1299972534179688,-12.080001831054688,-1.6999969482421875,11.090003967285156,6.0,6.0,12-22,0.5391683578491211
10-09,-1.7900009155273509,0.6899986267089844,4.979999542236334,-3.6100006103515625,5.0099983215332164,8.569995880126946,1.4000015258789062,-2.589996337890625,-2.1299972534179688,-10.1300048828125,-3.2200012207031112,10.800003051757797,6.0,6.0,12-23,0.6649996439615892
10-10,-1.6500015258789062,0.6899986267089844,4.979999542236334,-3.0,4.430000305175781,9.589996337890609,1.7399978637695312,-2.589996337890625,-2.139999389648437,-7.409996032714829,-1.349998474121108,9.56999969482422,6.0,6.0,12-24,1.0716667175292962
10-11,-1.6500015258789062,0.6899986267089844,4.540000915527352,-3.0800018310546946,3.909999847412109,10.90999603271483,1.7399978637695312,-1.7099990844726562,-2.029998779296875,-6.559997558593737,-1.3700027465820312,9.56999969482422,6.0,6.0,12-25,1.2466659545898438
10-12,-1.6500015258789062,0.740001678466804,3.510002136230476,-3.470001220703125,3.930000305175796,11.260002136230467,1.7399978637695312,-2.3000030517578125,-2.7299957275390625,-8.099998474121106,-0.4799957275390483,9.56999969482422,6.0,6.0,12-26,1.0016673405965193
10-13,-1.7400016784667969,0.8899993896484375,3.949996948242181,-3.459999084472656,4.470001220703125,11.260002136230467,2.149993896484361,-2.5699996948242188,-2.9399948120117188,-12.45000457763672,-1.1199951171875,10.050003051757797,6.0,6.0,12-27,0.7075001398722301
10-14,-2.720001220703125,0.8799972534179759,3.94000244140625,-3.909999847412109,4.470001220703125,11.050003051757812,3.790000915527344,-2.4199981689453125,-3.5500030517578125,-10.3800048828125,-1.1199951171875,11.169998168945328,6.0,6.0,12-28,0.9333333969116228
10-15,-1.3300018310546804,1.3100013732910156,5.020000457763672,-3.909999847412109,5.1499977111816415,10.919998168945312,3.6100006103515625,-2.029998779296875,-3.3199996948242188,-10.3800048828125,-0.4499969482421875,11.270004272460938,6.0,6.0,12-29,1.3216667175292975
10-16,-1.1000022888183594,1.339996337890625,4.3899993896484375,-4.569999694824219,5.1399993896484455,10.209999084472665,3.8700027465820455,-2.4799957275390625,-3.3199996948242188,-13.830001831054688,-0.6500015258789062,11.260002136230467,6.0,6.0,12-30,0.8549998601277693
10-17,-1.1699981689453196,1.1699981689453125,4.3899993896484375,-5.229999542236328,3.9700012207031112,9.679996490478516,4.0500030517578125,-2.4799957275390625,-3.3600006103515625,-12.649993896484359,-1.530006408691392,12.459999084472654,6.0,6.0,12-31,0.7750002543131517
10-18,-1.1699981689453196,1.1699981689453125,3.3199996948242188,-4.970001220703125,3.530002593994133,8.339996337890625,4.0500030517578125,-2.6699981689453125,-2.9799957275390625,-11.899993896484359,-2.7600021362304688,12.459999084472654,6.0,6.0,01-01,0.5350008010864258
10-19,-1.1699981689453196,1.6199989318847727,4.3800010681152335,-5.0,3.9799995422363423,8.059997558593762,4.0500030517578125,-2.7600021362304688,-1.8899993896484373,-11.620002746582015,-2.1399993896484237,12.459999084472654,6.0,6.0,01-02,0.8308331171671597
10-20,-0.7099990844726562,0.4500007629394531,4.540000915527344,-4.8600006103515545,4.259998321533203,8.059997558593762,3.5500030517578125,-2.279998779296875,-2.9199981689453125,-9.900001525878906,-2.279998779296861,10.650001525878906,6.0,6.0,01-03,0.7133337656656931
10-21,-0.299999237060554,2.5699996948242188,3.679996490478516,-3.820003509521485,4.259998321533203,6.849998474121107,3.75,-3.710006713867188,-2.0199966430664062,-13.790000915527346,-2.279998779296861,9.870002746582044,6.0,6.0,01-04,0.4216658274332712
10-22,-1.4299964904785156,3.069999694824226,2.6999969482421946,-3.820003509521485,3.5699996948242188,6.24999618530272,1.3600006103515625,-3.9800033569335938,-1.839996337890625,-13.790000915527346,-1.0400009155273295,9.300003051757797,6.0,6.0,01-05,0.029166221618652344
10-23,-0.7199974060058594,2.5699996948242188,2.80999755859375,-2.950000762939453,3.779998779296875,4.87000274658201,0.6800003051757812,-2.7699966430664062,-1.839996337890625,-13.5,-3.6900024414062638,9.260002136230467,6.0,6.0,01-06,-0.12499936421712535
10-24,-0.7199974060058594,2.6500015258788987,2.80999755859375,-2.46999740600586,3.289997100830085,2.6800003051757955,0.3699951171875,-2.7699966430664062,-1.9300003051757808,-10.990005493164062,-3.299995422363281,10.150001525878906,6.0,6.0,01-07,-0.019166628519692825
10-25,-0.1699981689453125,2.6500015258788987,4.040000915527344,-1.680000305175774,2.220001220703111,3.5400009155273366,-0.12000274658203125,-2.7699966430664062,-2.4799957275390625,-10.220001220703123,-3.829994201660156,10.150001525878906,5.0,7.0,01-08,0.1108347574869774
10-26,-0.1699981689453125,2.7600021362304616,3.0,-2.4500007629394456,2.639999389648437,3.909999847412117,-0.12000274658203125,-2.799995422363281,-2.029998779296875,-8.41000366210936,-5.289993286132828,10.150001525878906,5.0,7.0,01-09,0.09916750590006568
10-27,0.4799995422363281,2.30000305175782,2.579998016357422,0.44000244140625,4.040000915527344,3.909999847412117,0.2300033569335937,-2.779998779296875,-0.7300033569335938,-6.640007019042969,-4.979995727539078,11.959999084472654,8.0,4.0,01-10,0.9008334477742512
10-28,1.3199996948242188,2.150001525878899,2.6599998474121165,-0.09999847412110087,4.040000915527344,3.0299987792968888,-2.089996337890625,0.660003662109375,-0.06999969482421875,-6.680000305175781,-4.979995727539078,15.270004272460938,7.0,5.0,01-11,1.267501513163248
10-29,1.0399971008300852,2.55999755859375,3.9799995422363215,-0.09999847412110087,4.199996948242188,5.0800018310546795,-2.459999084472656,1.3799972534179688,-0.7900009155273438,-6.680000305175781,-5.290000915527359,14.669998168945328,7.0,5.0,01-12,1.4658323923746732
10-30,1.5,3.009998321533203,3.829998016357415,-0.09999847412110087,4.189998626708977,3.760002136230455,-3.7399978637695312,1.5999984741210938,-0.7900009155273438,-7.889999389648452,-4.589996337890625,13.520004272460938,7.0,5.0,01-13,1.1916672388712524
10-31,1.9000015258789065,3.389999389648437,3.829998016357415,-0.3999977111816549,3.8899993896484233,3.1300010681152344,-5.880004882812513,1.5999984741210938,-1.4000015258789062,-7.379997253417969,-2.3600006103515625,9.419998168945328,7.0,5.0,01-14,0.8116661707560192
11-01,1.959999084472656,3.389999389648437,5.599998474121094,-2.0900001525878835,3.2399978637695312,3.4399986267089844,-6.809997558593737,2.4199981689453125,-1.7400054931640625,-8.449996948242188,5.409996032714858,9.419998168945328,8.0,4.0,01-15,1.3158321380615277
11-02,1.959999084472656,3.290000915527344,4.55999755859375,1.7399978637695312,4.1699981689453125,2.86999893188478,-6.809997558593737,2.1200027465820312,-0.3499984741210937,-9.840003967285144,7.459999084472643,9.419998168945328,9.0,3.0,01-16,1.7158327102661168
11-03,1.6899986267089844,3.1399993896484304,2.6100006103515696,1.8800010681152344,3.919998168945313,2.86999893188478,-5.84999847412108,2.459999084472656,-0.3800048828125,-7.06999969482419,8.040000915527344,8.050003051757798,9.0,3.0,01-17,1.779999732971195
11-04,1.8699989318847656,1.9599990844726487,2.720001220703125,1.9000015258789065,3.919998168945313,2.289997100830085,-4.3199996948242045,2.089996337890625,0.3899993896484375,-7.169998168945298,8.040000915527344,8.559997558593762,10.0,2.0,01-18,1.8541660308837928
11-05,1.1199989318847727,2.05000305175782,3.170001983642578,1.9000015258789065,4.220001220703119,0.9599990844726703,-4.699996948242188,-0.9900054931640624,0.9899978637695312,-7.169998168945298,8.049995422363281,4.699996948242188,9.0,3.0,01-19,1.1916662851969428
11-06,0.8000030517578125,2.729999542236328,3.5800018310546875,1.4099998474121094,3.6299972534179688,-0.02000045776366477,-5.19000244140625,-0.8499984741210938,0.9899978637695312,-9.389999389648438,7.220001220703138,4.010002136230469,8.0,4.0,01-20,0.7433334986368832
11-07,0.8600006103515554,2.329998016357422,3.5800018310546875,2.6500015258789062,4.5900001525878915,-0.29999542236328125,-4.329994201660156,-0.8499984741210938,1.1199951171875,-10.400001525878906,8.819999694824219,4.44000244140625,8.0,4.0,01-21,1.0425008138020828
11-08,0.3899993896484304,2.329998016357422,3.680000305175781,3.770000457763672,2.9899978637695312,-1.3400039672851562,-4.6199951171875,-2.259994506835937,1.5099945068359375,-9.199996948242172,8.319999694824219,4.44000244140625,8.0,4.0,01-22,0.834166844685873
11-09,0.3899993896484304,2.3799972534179688,5.189998626708992,4.3100013732910165,2.4499969482422017,-1.2100067138672017,-4.6199951171875,-2.3799972534179688,3.8499984741210938,-6.599998474121107,7.049995422363268,4.44000244140625,8.0,4.0,01-23,1.2708326975504534
11-10,0.4699974060058594,1.4000015258789062,4.049999237060547,4.1300010681152335,2.2699966430664205,-1.2100067138672017,-5.209999084472656,0.20999908447265625,2.549995422363281,-5.3299942016601705,7.089996337890625,0.0,8.0,4.0,01-24,0.8683322270711251
11-11,0.1100006103515625,1.3899993896484304,2.9800033569335938,3.920001983642585,2.2699966430664205,-0.920005798339858,-6.3600006103515625,0.5999984741210938,2.0100021362304688,-4.389999389648452,7.089996337890625,0.0,8.0,4.0,01-25,0.7249994277954089
11-12,0.4600028991699219,2.6300010681152344,3.2599983215331965,3.920001983642585,2.589996337890639,-0.4599990844726562,-2.5500030517578125,0.029998779296875,2.6100006103515625,-4.389999389648452,7.4499969482421875,0.0,8.0,4.0,01-26,1.2958329518636067
11-13,0.060001373291015625,2.5200004577636648,3.579998016357422,4.6599998474121245,1.2100067138672017,-1.1899986267089844,-4.659996032714844,-0.0800018310546875,2.6100006103515625,-5.0,7.75,0.0,7.0,4.0,01-27,0.9550008773803728
11-14,-0.7099990844726562,2.8100013732910085,3.579998016357422,6.05999755859375,-0.4399948120117045,-1.0600013732910156,-1.6100006103515625,-0.0800018310546875,2.589996337890625,-4.950004577636734,6.6500015258789205,0.0,5.0,6.0,01-28,1.0699993769327805
11-15,-0.5,2.8100013732910085,3.1699981689453125,6.229999542236335,-1.5400009155273509,-2.5900039672851705,-1.8499984741210935,0.0500030517578125,3.949996948242188,-7.400001525878906,6.529998779296862,0.0,6.0,5.0,01-29,0.7383327484130829
11-16,-0.5,3.549999237060547,3.770000457763672,4.850002288818367,-1.1100006103515767,-3.3900032043457173,-1.8499984741210935,-0.25,3.029998779296875,-8.400001525878919,5.6300048828125,0.0,5.0,6.0,01-30,0.4441668192545543
11-17,-0.7000007629394531,3.3400001525878835,4.569999694824227,4.979999542236334,-1.4199981689453267,-3.3900032043457173,-1.720001220703125,-0.1399993896484375,2.0800018310546875,-7.2399978637695455,5.600006103515612,0.0,5.0,6.0,01-31,0.4966672261555948
11-18,-0.6800003051757812,2.34000015258789,4.100002288818345,4.920001983642584,-1.4199981689453267,-2.8999977111816406,-2.7600021362304688,-0.910003662109375,2.220001220703125,-7.220001220703125,5.600006103515612,0.0,5.0,6.0,02-01,0.2741673787434866
11-19,-0.9300003051757812,2.4799995422363352,4.9699974060058585,4.920001983642584,-1.029998779296875,-1.8300018310546875,-0.779998779296875,-1.2699966430664062,1.9499969482421875,-7.220001220703125,5.440002441406237,0.0,5.0,6.0,02-02,0.5583333969116211
11-20,-0.779998779296875,2.6699981689453054,6.0900001525878915,4.8899993896484295,0.31999969482421875,-1.6399993896484375,-1.9800033569335935,-0.29999542236328125,1.9499969482421875,-6.349998474121107,5.840003967285143,0.0,6.0,5.0,02-03,0.89250024159749
11-21,-0.5999984741210938,2.579998016357422,6.0900001525878915,4.579998016357428,-0.2999992370605611,-1.5599975585937642,-2.529998779296875,-0.29999542236328125,0.8799972534179688,-4.3799972534179545,4.209999084472685,0.0,5.0,6.0,02-04,0.7225004831949887
11-22,-0.6800003051757812,2.579998016357422,5.709999084472656,4.6100006103515545,-2.779998779296875,-1.869995117187479,-0.6999969482421875,-1.5499954223632812,0.9899978637695312,-4.349998474121108,7.1199951171874725,0.0,5.0,6.0,02-05,0.7566671371459938
11-23,-0.6800003051757812,3.1499977111816406,5.8800010681152335,4.590000152587884,-2.109996795654304,-2.1199951171874787,-0.6999969482421875,-2.720001220703125,-0.4499969482421875,-4.0500030517578125,6.0,0.0,4.0,7.0,02-06,0.5658340454101568
11-24,-0.5099983215332031,1.930000305175767,6.990001678466798,4.759998321533203,-1.9399986267089844,-2.1199951171874787,-1.1299972534179688,-2.290000915527344,-2.8700027465820312,-2.620002746582017,6.920005798339844,0.0,4.0,7.0,02-07,0.5933341979980487
11-25,-1.7200012207031319,2.25,6.990001678466798,5.1199989318847665,-1.9399986267089844,-2.04999542236326,-2.6300048828125,-2.720001220703125,-2.9499969482421875,-2.100006103515611,6.920005798339844,0.0,4.0,7.0,02-08,0.4308334986368839
11-26,-0.8800010681152344,3.0900001525878835,5.279998779296869,5.1199989318847665,-2.0700035095214844,-1.479999542236321,-3.8899993896484375,-3.7399978637695312,-2.889999389648437,-2.100006103515611,5.310005187988281,0.0,4.0,7.0,02-09,0.14583301544189511
11-27,-0.7599983215332031,3.930000305175781,5.029998779296869,5.599998474121087,-2.4499969482421875,-0.9199981689453124,-1.9800033569335935,-2.9199981689453125,-2.889999389648437,-0.7100067138671733,4.699996948242188,0.0,4.0,7.0,02-10,0.5524994532267252
11-28,-0.7000007629394602,3.60000228881836,5.029998779296869,5.289997100830084,-1.4299964904785156,-1.5999984741211009,-0.06999969482421875,-2.9199981689453125,-3.060005187988281,-2.0800018310546733,4.579994201660156,0.0,4.0,7.0,02-11,0.5533326466878256
11-29,-1.039997100830078,3.60000228881836,4.5699996948242045,4.739997863769531,-1.5099983215332031,-1.3699989318847798,-0.2900009155273437,-2.1299972534179688,-6.180000305175781,-2.459999084472656,3.680000305175753,0.0,4.0,7.0,02-12,0.13416735331216975
11-30,-1.039997100830078,3.820003509521485,2.96999740600586,4.760002136230469,-1.1399993896484233,-1.4199981689453267,-0.2900009155273437,0.3899993896484375,-6.25,-2.3500061035155966,4.040000915527315,0.0,5.0,6.0,02-13,0.2908334732055664
12-01,-1.229999542236321,2.7900009155273366,2.459999084472656,5.759998321533202,-1.0300025939941335,-1.4199981689453267,-0.779998779296875,0.7099990844726562,-5.0,-2.139999389648437,2.6999969482421733,0.0,5.0,6.0,02-14,0.2349996566772443
12-02,-1.3899993896484375,1.970001220703125,1.4699974060058594,6.2199974060058585,-1.0300025939941335,-1.6699981689453267,0.26000213623046875,0.0800018310546875,1.660003662109375,-1.659996032714858,2.6999969482421733,0.0,7.0,4.0,02-15,0.7175003687540661
12-03,1.8400001525878904,1.0200004577636648,1.0800018310546875,6.2199974060058585,-0.270000457763679,-2.75,0.8600006103515625,0.4500045776367188,2.600006103515625,-1.659996032714858,2.0,0.0,8.0,3.0,02-16,0.9491678873697892
12-04,1.5100021362304616,1.6800003051757812,1.1599998474121094,6.089996337890625,0.12999725341795454,-2.5,0.9500045776367188,-0.18000030517578125,2.600006103515625,-0.1399993896484375,2.930000305175781,0.0,8.0,3.0,02-17,1.1858339309692365
12-05,1.1300010681152344,1.6699981689453054,1.1599998474121094,5.9199981689453125,0.339996337890625,-1.7000045776367188,-0.2700042724609375,-0.18000030517578125,1.660003662109375,1.1700057983398438,4.25,0.0,8.0,3.0,02-18,1.262499491373697
12-06,0.8199996948242188,1.6699981689453054,1.7000007629394531,5.3899993896484375,0.07999420166014204,-0.6299972534179688,-0.8499984741210938,-0.600006103515625,2.4900054931640625,0.1399993896484517,4.589996337890625,0.0,8.0,3.0,02-19,1.2333326339721673
12-07,0.8199996948242188,1.9099998474120952,1.75,5.4099998474121085,0.3900070190429972,-0.04999542236328125,-0.8499984741210938,-0.28000640869140625,2.790000915527344,2.170005798339829,2.6300048828125284,0.0,8.0,3.0,02-20,1.3908348083496118
12-08,0.779998779296875,2.4899978637695237,2.889999389648437,5.970001220703117,-0.06999969482421875,-0.04999542236328125,-0.2299957275390625,0.0,3.930000305175781,2.440002441406236,2.3800048828125284,0.0,7.0,4.0,02-21,1.710834503173828
12-09,1.19000244140625,2.759998321533203,2.09000015258789,4.490001678466791,-0.06999969482421875,-0.4300003051757813,0.220001220703125,-0.8499984741210938,3.7799987792968888,3.1500015258789205,2.3800048828125284,0.0,8.0,3.0,02-22,1.5591675440470418
12-10,1.8099975585937569,2.4300003051757737,2.5600013732910227,4.490001678466791,0.23999786376950286,0.4499969482421733,-0.5500030517578125,-0.0200042724609375,2.8800048828125,3.1500015258789205,3.069999694824247,0.0,9.0,2.0,02-23,1.7091662089029949
12-11,1.6399993896484446,1.6000022888183594,2.5100021362304763,4.529998779296875,1.6399993896484517,0.4899978637695313,-0.05999755859375,-0.3499984741210937,2.8800048828125,3.5900039672851705,2.3600006103515625,0.0,9.0,2.0,02-24,1.7358344395955438
12-12,1.520000457763672,0.9099998474121094,2.5100021362304763,4.6599998474121085,1.2399978637695384,1.6299972534179543,0.31999969482421875,-0.3499984741210937,3.7300033569335938,3.1900024414062638,-2.1999969482421875,0.0,9.0,2.0,02-25,1.4300006230672213
12-13,1.9099998474121092,0.9099998474121094,2.790000915527344,5.6199989318847665,0.6700019836425781,2.44000244140625,1.3600006103515625,-0.1100006103515625,3.919998168945313,1.7300033569335795,-4.760002136230469,0.0,9.0,2.0,02-26,1.3733336130777982
12-14,1.9099998474121092,1.0400009155273438,4.1699981689453125,5.180000305175781,0.2299957275390767,1.9899978637695452,1.3600006103515625,1.0699996948242188,4.619995117187487,1.2200012207031392,-7.379997253417982,0.0,10.0,1.0,02-27,1.2841660181681327
12-15,1.7900009155273438,0.7900009155273438,3.299999237060547,5.079998016357428,0.5699996948242188,1.9899978637695452,0.850006103515625,1.4000015258789062,3.799995422363281,2.6699981689453267,-9.639999389648438,0.0,10.0,1.0,02-28,1.0499998728434274
12-16,1.6100006103515625,0.6300010681152344,2.049999237060547,6.020000457763673,0.5699996948242188,2.029998779296889,0.8899993896484375,1.5500030517578125,2.930000305175781,2.770004272460937,-9.639999389648438,0.0,10.0,1.0,03-01,0.9508339564005546
12-17,2.3199996948242263,1.05999755859375,2.740001678466797,6.020000457763673,0.4700012207031392,1.0,1.0699996948242188,0.7099990844726562,2.8499984741210938,2.770004272460937,-8.669998168945312,0.0,10.0,1.0,03-02,1.0283336639404317
12-18,3.079998016357422,0.1100006103515625,2.770000457763679,5.840000152587876,0.4300003051757813,-0.7399978637695312,2.5999984741210938,2.259994506835937,2.8499984741210938,3.4700012207031388,-10.68000030517578,0.0,9.0,2.0,03-03,0.9991661707560228
12-19,3.1200027465820384,0.0800018310546875,2.770000457763679,5.869998931884759,1.3899993896484233,-0.6299972534179688,2.839996337890625,2.259994506835937,2.839996337890625,6.140007019042969,-12.190002441406266,0.0,9.0,2.0,03-04,1.2074998219807924
12-20,3.45000076293946,0.0800018310546875,0.5900001525879048,5.280002593994156,-0.029998779296875,-1.1999969482421733,2.75,2.079994201660156,2.6699981689453125,5.799995422363281,-11.379997253417967,0.0,8.0,3.0,03-05,0.8408333460489951
12-21,3.45000076293946,0.0,0.7199974060058452,5.640003204345696,-0.09999847412110796,-1.4699935913085795,2.75,2.4499969482421875,3.919998168945313,8.059997558593762,-12.610000610351562,0.0,7.0,4.0,03-06,1.067500114440918
12-22,3.34000015258789,0.6599998474121165,1.010002136230476,5.80999755859375,0.08000183105467329,-1.4699935913085795,2.100006103515625,3.020004272460937,4.5,11.770004272460938,-7.93000030517581,0.0,9.0,2.0,03-07,1.9075018564860011
12-23,3.470001220703125,0.06999969482420454,0.7699966430664062,6.3899993896484295,0.08000183105467329,-1.8199996948242188,1.7399978637695312,2.040000915527344,5.379997253417969,10.79000091552733,-7.93000030517581,0.0,9.0,2.0,03-08,1.7483329772949154
12-24,3.9799995422363215,-0.2999992370605469,-0.3600006103515625,6.3899993896484295,-0.4599990844726562,-2.529998779296861,2.6999969482421875,1.3000030517578125,4.75,10.79000091552733,-7.290000915527357,0.0,6.0,5.0,03-09,1.5808334350585913
12-26,3.790000915527344,1.220001220703125,-0.3300018310546946,6.9899978637695375,-1.0599975585937358,-3.680000305175781,2.0800018310546875,1.7700042724609375,4.75,8.110000610351548,-7.51999664306642,0.0,7.0,4.0,03-11,1.3433341979980458
12-27,3.900001525878906,1.220001220703125,-0.3300018310546946,7.479999542236327,-1.1600036621093608,-4.629997253417969,2.139999389648437,1.7700042724609375,4.329994201660156,8.099998474121081,-13.569999694824205,0.0,7.0,4.0,03-12,0.7708330154418951
12-28,3.900001525878906,1.1200027465820312,1.3800010681152344,8.009998321533201,-2.470001220703139,-5.019996643066406,2.139999389648437,2.1299972534179688,4.1200027465820455,9.319999694824203,-11.770004272460964,0.0,8.0,3.0,03-13,1.071666717529293
12-29,3.930000305175781,0.029998779296882105,1.0499992370605469,7.6399993896484295,-2.489997863769545,-5.019996643066406,1.80999755859375,3.0999984741210938,4.5,8.190002441406262,-16.680000305175795,0.0,8.0,3.0,03-14,0.5050001144409167
12-30,4.040000915527344,0.2999992370605469,1.4300003051757812,7.6100006103515545,-2.489997863769545,-4.7399978637695455,1.75,3.3000030517578125,3.4899978637695312,8.209999084472656,-16.680000305175795,0.0,8.0,3.0,03-15,0.5183337529500284
12-31,4.6599998474121085,0.8300018310546804,2.1300010681152277,7.6100006103515545,-2.7699966430664062,-3.279994964599588,3.1299972534179688,3.5100021362304688,3.05999755859375,8.209999084472656,-16.540000915527358,0.0,8.0,3.0,03-16,0.8791672388712554
