,2009,2010,2011,2012,2013,2014,2015,2016,2017,2018,2019,2020,ups,downs,end_day_sum,avg
01-02,-6.874561309814452,3.5964031219482493,-0.5314178466796875,2.095409393310547,6.180347442626952,-2.132186889648437,-2.360755920410156,4.114334106445298,4.316223144531237,3.2605209350585938,12.745590209960938,-16.782211303710938,7.0,5.0,03-17,0.6356412569681785
01-03,-5.7641696929931605,3.7316951751708913,-0.5314178466796875,2.095409393310547,6.207836151123048,-1.47357177734375,-0.64947509765625,4.479240417480455,4.316223144531237,3.2901229858398438,13.965240478515625,-25.56918334960937,7.0,5.0,03-18,0.3414958318074517
01-04,-4.451259613037107,3.7316951751708913,-0.2747650146484446,2.37519836425782,5.4908409118652335,-0.6977310180664062,-0.33683013916015625,4.479240417480455,2.9231033325195312,4.299652099609375,12.68010711669922,-17.088226318359375,7.0,5.0,03-19,1.0942521095275863
01-05,-4.451259613037107,3.7653827667236257,-0.2659263610839844,2.6267623901367188,6.084484100341798,-1.2489128112792969,-0.33683013916015625,4.861213684082031,3.7379074096679688,3.250518798828125,11.714218139648438,-16.790992736816392,7.0,5.0,03-20,1.0788804690043141
01-06,-3.5747871398925746,3.073974609375,0.6086158752441406,2.582744598388672,6.831001281738281,-1.2489128112792969,0.29486083984375,5.982124328613281,4.432334899902344,2.797821044921875,12.056747436523438,-16.790992736816392,9.0,3.0,03-21,1.4204610188802096
01-07,-2.208385467529297,2.718833923339851,1.5357894897460938,2.469024658203125,6.831001281738281,-1.527923583984375,-0.3289337158203125,6.95880126953125,3.24420166015625,2.6143951416015625,12.056747436523438,-15.665008544921859,8.0,4.0,03-22,1.5582119623820003
01-08,-3.3434791564941406,2.5921001434326167,1.415740966796875,2.3642463684082102,4.602203369140625,-2.9687652587890625,-2.3813133239746094,7.305503845214844,3.3203125,2.6143951416015625,10.52556610107422,-13.860877990722685,8.0,4.0,03-23,1.0154693921407043
01-09,-1.3040027618408203,2.786701202392578,1.4758453369140625,2.3642463684082102,4.733211517333992,-2.4734001159667898,-1.6482696533203054,8.007102966308594,3.3203125,3.3935089111328125,12.12065887451172,-21.594314575195312,8.0,4.0,03-24,0.9318000475565617
01-10,-1.4791660308837855,2.110240936279304,1.4758453369140625,2.225135803222664,4.9807662963867125,-3.2494125366210866,-1.4555702209472583,8.007102966308594,4.134681701660142,2.512451171875,9.374313354492172,-31.21115875244141,8.0,4.0,03-25,-0.21456416447957385
01-11,-1.0886116027831996,2.110240936279304,1.150745391845696,2.111095428466797,4.625965118408203,-2.4484405517578125,-1.9337348937988281,8.007102966308594,4.221191406250013,0.8057174682617188,9.893516540527344,-27.52426147460937,8.0,4.0,03-26,-0.005789438883462061
01-12,-1.0886116027831996,2.0933780670166087,0.9544754028320312,2.651165008544929,5.0355873107910165,-2.981552124023437,-1.9337348937988281,7.988471984863281,3.4329757690429688,1.8977203369140625,11.554672241210938,-25.423851013183594,8.0,4.0,03-27,0.3483913739522313
01-13,-1.113420486450195,1.7807464599609375,0.8341903686523438,3.1925277709960866,5.0355873107910165,-2.981552124023437,-1.7506256103515696,8.920364379882812,3.272003173828125,2.080024719238281,11.632965087890609,-25.423851013183594,8.0,4.0,03-28,0.4565800031026181
01-14,1.7208576202392578,2.1101207733154297,0.5259742736816406,2.9051475524902344,5.0355873107910165,-3.989646911621087,-1.228790283203125,8.367637634277344,3.8514938354492174,2.080024719238281,11.632965087890609,-25.35471343994141,9.0,3.0,03-29,0.6380548477172846
01-15,0.9668655395507812,2.9453105926513667,-0.05603790283203125,3.036113739013672,4.7525482177734375,-3.656219482421868,-0.2941703796386577,9.86203384399415,3.822967529296875,2.080024719238281,10.80397796630858,-19.96318054199217,8.0,4.0,03-30,1.1916861534118677
01-16,0.5487194061279297,2.5417633056640625,0.6309585571289062,3.036113739013672,4.903713226318359,-3.1321334838867188,-0.4477005004882741,10.002574920654297,3.822967529296875,2.080024719238281,11.557220458984375,-23.634300231933594,9.0,3.0,03-31,0.9924934705098476
01-17,1.8145771026611364,2.5417633056640625,0.6309585571289062,3.036113739013672,4.9412994384765625,-0.7945175170898509,-0.3751983642578125,10.208446502685547,3.822967529296875,1.7732162475585938,10.563117980957044,-16.325225830078107,9.0,3.0,04-01,1.8197932243347192
01-18,1.773027420043945,2.5417633056640625,0.6309585571289062,2.6534500122070312,4.347103118896484,0.12691497802733664,-0.3751983642578125,10.208446502685547,3.519195556640625,2.8076171875,10.138473510742203,-15.58733367919922,10.0,2.0,04-02,1.8987015088399253
01-19,1.773027420043945,2.5417633056640625,1.4111175537109375,2.2878074645996094,4.852336883544928,0.20820236206053971,-0.3751983642578125,10.208446502685547,4.353065490722656,-0.3444442749023437,10.878021240234359,-18.88656616210937,9.0,3.0,04-03,1.5756316184997547
01-20,1.773027420043945,2.60774040222168,2.3371810913085938,3.2015037536621094,4.3279876708984375,0.20820236206053971,-0.3751983642578125,10.17918014526368,4.87164306640625,2.3353424072265625,11.122688293457044,-18.88656616210937,10.0,2.0,04-04,1.9752276738484715
01-21,2.1106281280517543,3.029260635375977,2.843128204345703,3.4024391174316477,4.3279876708984375,0.20820236206053971,-0.374664306640625,11.868247985839846,4.3804473876953125,2.480140686035156,11.122688293457044,-18.88656616210937,10.0,2.0,04-05,2.209328333536785
01-22,2.499618530273437,3.1729869842529226,2.6648025512695312,3.4024391174316477,4.3279876708984375,-0.04544448852539063,-1.173175811767578,10.25579833984375,3.7527236938476562,2.480140686035156,11.122688293457044,-18.98551177978516,9.0,3.0,04-06,1.956254482269288
01-23,2.4830818176269496,3.2406215667724614,2.647632598876953,3.4024391174316477,4.5403709411621085,-0.0026664733886789804,-0.09195709228514913,10.180931091308588,3.7527236938476562,2.3454742431640625,10.822494506835938,-22.606506347656264,9.0,3.0,04-07,1.7262199719746896
01-24,1.2298221588134728,3.3759136199951167,2.647632598876953,3.5241622924804688,3.7684478759765625,1.0752601623535083,-0.6068992614746094,10.405502319335929,2.720542907714844,2.434478759765625,11.692665100097654,-15.850265502929688,10.0,2.0,04-08,2.2014385859171544
01-25,1.2298221588134728,3.3759136199951167,2.724632263183586,2.835601806640625,4.096973419189453,2.213783264160156,-0.3218421936035156,10.405502319335929,3.252670288085924,-0.5829086303710938,11.683761596679703,-14.871330261230467,9.0,3.0,04-09,2.1702149709065743
01-26,1.2298221588134728,3.4264240264892543,1.9612884521484373,2.1036415100097727,4.7990493774414125,2.566173553466797,-0.3218421936035156,7.0087432861328125,3.0049514770507812,1.047607421875,10.393585205078141,-14.871330261230467,10.0,2.0,04-10,1.8623428344726585
01-27,0.7977199554443395,3.494825363159176,1.5915298461913991,1.824745178222656,5.518909454345703,2.566173553466797,0.4873542785644531,6.643814086914048,3.585601806640625,5.126289367675781,11.254806518554703,-14.871330261230467,11.0,1.0,04-11,2.335036595662434
01-28,0.4819602966308629,4.356250762939459,2.0781784057617188,1.0564308166503906,5.518909454345703,2.3222084045410085,1.140228271484375,6.260139465332031,3.9755630493164062,4.67254638671875,11.254806518554703,-14.71282196044922,11.0,1.0,04-12,2.3670333226521816
01-29,1.7117767333984375,4.802854537963861,1.1335525512695312,1.5453529357910156,4.736835479736328,2.123397827148437,0.4505844116210938,4.173416137695298,3.9755630493164062,4.67254638671875,10.863334655761733,-11.720726013183608,11.0,1.0,04-13,2.3723740577697736
01-30,1.6868419647216797,4.7267494201660165,1.3396453857421875,1.5453529357910156,4.994575500488281,0.460834503173821,0.2942543029785156,4.94073486328125,3.9755630493164062,4.4022369384765625,11.450553894042985,-9.184371948242203,11.0,1.0,04-14,2.552747567494709
01-31,1.6702232360839844,5.2594757080078125,1.3396453857421875,1.2921562194824148,4.772384643554688,1.2559776306152417,-0.2206878662109446,5.5021820068359375,3.7568130493164062,5.097328186035156,10.951431274414047,-13.038429260253904,10.0,2.0,04-15,2.303208351135252
02-01,1.9693641662597687,5.2594757080078125,0.7986259460449219,0.8381500244140554,2.808330535888672,4.165519714355463,-0.4965515136718821,5.5021820068359375,2.1779937744140625,5.705535888671875,10.119552612304703,-13.097877502441392,10.0,2.0,04-16,2.145858446757
02-02,1.9693641662597687,4.819782257080083,0.918865203857422,1.1175384521484375,3.24380111694336,4.165519714355463,-0.4965515136718821,6.428565979003906,2.349212646484375,8.215591430664062,9.561691284179688,-16.159317016601562,10.0,2.0,04-17,2.1778386433919263
02-03,1.92782020568848,5.369384765625,1.5715255737304688,0.6722793579101634,2.4883995056152344,4.165519714355463,-0.4321823120117188,4.9594573974609375,3.3192901611328125,12.30889129638672,9.561691284179688,-16.159317016601562,10.0,2.0,04-18,2.47939666112264
02-04,0.42379188537597656,6.553192138671875,0.8501548767089844,0.8730926513671875,2.4883995056152344,3.523967742919922,-0.19311141967774148,6.559593200683594,4.013610839843763,11.806900024414047,9.561691284179688,-15.872001647949205,10.0,2.0,04-19,2.5491067568461108
02-05,-0.34069824218750355,6.671566009521487,0.6268920898437429,0.8556289672851634,2.18622970581054,3.7046852111816406,-0.8919525146484375,7.963172912597656,3.9945831298828254,11.806900024414047,8.367713928222656,-15.872009277343766,9.0,3.0,04-20,2.4227259953816715
02-06,-1.6868438720703196,6.451713562011722,0.6268920898437429,0.8556289672851634,1.4752655029296946,3.677562713623047,-1.3976936340332031,6.007492065429673,3.9945831298828254,11.411087036132797,5.979736328125,-14.455207824707045,9.0,3.0,04-21,1.9116846720377576
02-07,-0.556747436523434,6.553184509277347,0.6268920898437429,0.9080123901367259,1.9640541076660227,3.2438392639160227,-0.8551673889160156,6.306930541992173,4.584259033203125,10.571197509765623,6.12652587890625,-9.669830322265607,9.0,3.0,04-22,2.4835958480834983
02-08,-0.7395591735839844,6.553184509277347,0.3005676269531179,1.1786766052246094,2.6217155456543044,3.8040771484375,-0.7080345153808594,6.306930541992173,4.061164855957031,12.608177185058596,7.379249572753906,-9.590568542480456,9.0,3.0,04-23,2.814631779988608
02-09,-0.7395591735839844,6.324892044067383,1.2967185974121025,0.986583709716804,3.314899444580078,3.4245643615722585,-0.7080345153808594,5.015602111816391,4.203819274902358,11.768280029296859,8.1817626953125,-9.412239074707033,9.0,3.0,04-24,2.8047741254170715
02-10,0.2659034729003906,6.781475067138668,1.4942169189453125,1.0651626586914134,3.8415794372558594,3.4245643615722585,-0.781604766845696,4.107917785644531,3.3383407592773438,10.2139892578125,8.064338684082031,-9.412239074707033,10.0,2.0,04-25,2.700303713480632
02-11,0.44040489196777344,4.515350341796875,1.5627059936523438,1.597705841064446,3.8415794372558594,3.045055389404297,-0.680469512939446,5.015617370605484,4.0897216796875,10.185043334960938,8.064338684082031,-9.659942626953141,10.0,2.0,04-26,2.6680925687154136
02-12,0.5650558471679688,4.4054603576660165,2.3892745971679688,2.465576171875,3.5927467346191406,3.09023666381836,-0.717243194580071,3.7604293823242174,4.669853210449219,10.185043334960938,7.457542419433594,-9.600494384765623,10.0,2.0,04-27,2.688623428344727
02-13,0.9975605010986364,4.294364929199219,2.639190673828125,2.465576171875,2.8893394470214915,2.457710266113281,-1.371002197265618,5.878425598144531,4.669853210449219,3.3113555908203125,6.508209228515638,-11.968399047851562,10.0,2.0,04-28,1.8976820309956888
02-14,1.7860183715820277,4.506488800048828,2.639190673828125,2.5441627502441406,2.281932830810547,2.177803039550774,-2.01472473144532,5.906593322753906,5.240501403808594,2.529365539550781,9.44426727294922,-4.052207946777358,10.0,2.0,04-29,2.749115943908689
02-15,2.445743560791012,4.506488800048828,2.6735496520996094,2.01845932006836,2.2106781005859446,2.187660217285156,-2.2271614074707102,5.906593322753906,5.316612243652344,2.210762023925781,9.180007934570312,-3.6889495849609375,10.0,2.0,04-30,2.728370348612468
02-16,2.445743560791012,4.506488800048828,2.8803482055664134,1.9758224487304759,2.3114013671875,2.459850311279297,-2.2271614074707102,5.906593322753906,5.801673889160156,1.61224365234375,9.83661651611328,-4.782279968261719,10.0,2.0,05-01,2.7272783915201817
02-17,2.445743560791012,5.4219818115234375,2.6831016540527344,1.6692428588867188,1.7490081787109375,2.459850311279297,-2.2271614074707102,5.8200225830078125,5.848274230957031,2.394203186035156,11.37812042236328,-4.782279968261719,10.0,2.0,05-02,2.905008951822916
02-18,2.8123493194580007,4.472930908203125,3.0277404785156183,2.08890151977539,1.7490081787109375,2.459850311279297,-3.2038612365722656,2.7952880859375,5.6408233642578125,1.4481048583984375,11.37812042236328,-4.782279968261719,10.0,2.0,05-03,2.490581353505452
02-19,2.8109493255615234,4.821464538574227,3.49869155883789,1.9661712646484373,1.7490081787109375,2.6668128967285227,-1.3842391967773438,3.9866943359375,5.879539489746094,1.4481048583984375,11.37812042236328,-7.516395568847685,10.0,2.0,05-04,2.6087435086568185
02-20,3.4617385864257812,4.609634399414063,3.0764312744140625,1.9661712646484373,3.180351257324226,1.9058723449707105,-1.7708396911621094,3.0283126831054545,5.879539489746094,1.4481048583984375,10.86981964111328,-8.371444702148438,10.0,2.0,05-05,2.4403076171875
02-21,4.3175811767578125,3.744159698486328,3.0764312744140625,1.9661712646484373,3.5640525817871094,2.15005874633789,-2.7494468688964844,2.8498764038085795,5.879539489746094,0.9267807006835938,10.862747192382797,-4.782768249511719,10.0,2.0,05-06,2.6504319508870418
02-22,4.526355743408203,3.744159698486328,3.0764312744140625,2.2728157043457102,3.1111145019531183,2.058307647705078,-2.6570777893066406,2.8498764038085795,7.090980529785156,1.5929183959960938,13.05867767333983,-3.2807769775390767,10.0,2.0,05-07,3.1203152338663704
02-23,4.526355743408203,3.879447937011726,3.2036209106445312,0.6798667907714915,3.8134994506835938,2.15810775756836,-2.6570777893066406,2.784385681152344,7.720741271972656,1.7473907470703125,12.507301330566404,-3.976531982421875,10.0,2.0,05-08,3.032258987426759
02-24,3.7120208740234375,2.5823707580566406,3.4266090393066335,0.5047950744628906,4.099151611328125,2.15810775756836,-2.6846885681152344,2.280830383300781,8.065399169921875,1.2526321411132812,12.526931762695312,-3.976531982421875,10.0,2.0,05-09,2.828969001770018
02-25,3.0537872314453165,1.7929725646972583,3.773090362548828,0.6801185607910156,4.099151611328125,1.9502906799316408,-2.3632583618164134,2.08514404296875,7.922615051269531,2.415130615234375,12.526931762695312,-1.7275009155273438,10.0,2.0,05-10,3.0173727671305333
02-26,3.212579727172852,3.1935386657714844,3.7907257080078054,0.6187553405761719,3.779216766357422,1.8426971435546875,-2.592498779296875,3.283798217773437,8.295005798339844,2.415130615234375,12.771598815917955,1.1179275512695312,11.0,1.0,05-11,3.4773729642232243
02-27,2.6464118957519496,2.8131065368652344,3.1099395751953054,0.6187553405761719,2.497467041015625,1.22784423828125,-2.326221466064453,3.4260559082031112,8.295005798339844,3.6508407592773438,11.701690673828125,5.424377441406237,11.0,1.0,05-12,3.5904394785563114
02-28,4.100875854492192,3.2288894653320312,3.1099395751953054,1.0378303527832031,2.4906997680664134,1.4571952819824219,-2.4899101257324148,3.191261291503892,8.2664794921875,4.532135009765625,11.977622985839846,5.5294876098632955,11.0,1.0,05-13,3.869375546773276
02-29,0.0,0.0,0.0,0.8801345825195312,0.0,0.0,0.0,3.191261291503892,0.0,0.0,0.0,0.6969680786132955,3.0,0.0,05-14,0.39736366271972656
03-01,3.2741355895996134,3.2288894653320312,3.7196540832519465,0.5826606750488281,2.4531478881835938,1.753429412841804,-1.7325325012207031,2.452011108398437,6.4676361083984375,5.4219741821289205,12.092536926269515,-0.8237533569335938,10.0,2.0,05-15,3.2408157984415684
03-02,3.2741355895996134,2.975204467773437,4.4865264892578205,-0.5736083984375142,2.800987243652344,1.562896728515625,-1.7325325012207031,3.287635803222642,6.609901428222656,3.8742523193359375,11.486335754394533,-0.8237533569335938,9.0,3.0,05-16,3.1023317972819
03-03,3.4901809692382812,2.348285675048828,3.326732635498053,-1.2217521667480469,3.13128662109375,1.562896728515625,-1.1716079711914062,1.9284820556640625,6.5821533203125,1.9488372802734373,11.741600036621096,-0.01132965087890625,9.0,3.0,05-17,2.804647127787273
03-04,3.53399848937988,1.1094436645507812,4.4363746643066335,-1.6250152587890625,3.13128662109375,1.1833953857421804,-0.11054229736328124,1.5837554931640625,7.1058349609375,3.3438415527343888,11.741600036621096,-4.60833740234375,9.0,3.0,05-18,2.568802992502848
03-05,4.148628234863281,0.8654823303222585,3.7895317077636648,-1.6250152587890625,2.7758026123046875,0.2948417663574219,0.4227371215820313,-0.03278350830078125,6.618827819824219,3.3438415527343888,11.87860870361328,-2.134483337402344,9.0,3.0,05-19,2.5288349787394204
03-06,4.6569633483886745,0.000308990478515625,4.849510192871088,-0.5860519409179759,2.1710853576660227,0.6026687622070241,1.5464744567871094,-0.17369842529296875,6.618827819824219,2.986656188964858,13.69193267822267,-2.789878845214844,9.0,3.0,05-20,2.797899881998699
03-07,5.081825256347656,-0.05060577392578125,4.849510192871088,-1.6116104125976634,2.484115600585937,1.0653648376464844,2.026378631591797,-0.17369842529296875,6.790031433105469,3.352645874023437,13.964920043945297,2.5886383056640483,9.0,3.0,05-21,3.3639596303304
03-08,4.898096084594727,-0.05060577392578125,3.166362762451172,-2.9402542114257812,1.8353157043457031,0.4749183654785156,1.4444923400878906,-0.23918914794921875,6.209320068359375,3.7976455688476562,12.660926818847654,3.2645187377929545,9.0,3.0,05-22,2.8767956097920724
03-09,4.898096084594727,0.1861572265625,3.3373756408691406,-2.422084808349624,1.6839637756347656,0.6654624938964844,1.4444923400878906,-0.6710662841796875,6.505012512207031,3.3454208374023438,11.576004028320328,3.2645187377929545,10.0,2.0,05-23,2.8177793820699044
03-10,4.058824539184569,-1.0608444213867188,4.014362335205078,-2.448162078857429,1.3447418212890625,0.6654624938964844,1.8398933410644531,0.228973388671875,6.069328308105469,3.3838653564452983,11.251991271972642,0.7479858398437642,10.0,2.0,05-24,2.508035182952878
03-11,4.200092315673828,-1.28125,3.092609405517578,-2.044914245605476,1.3447418212890625,1.1172599792480469,2.198505401611328,-0.6619110107421875,6.441596984863281,3.5097885131835795,11.251991271972642,5.612617492675781,9.0,3.0,05-25,2.8984273274739563
03-12,3.2848072052002024,-1.433868408203132,2.7917823791503835,-2.044914245605476,1.3358612060546875,1.1353416442871094,1.5158500671386648,1.336883544921875,6.6325836181640625,3.5097885131835795,11.017097473144515,10.925254821777344,10.0,2.0,05-26,3.3338723182678183
03-13,2.8358364105224614,-1.3841247558593892,3.3002281188964844,-2.752105712890625,1.3625144958496094,1.8487701416015696,1.5509147644042969,1.3086776733398438,6.6325836181640625,3.780082702636705,10.997520446777317,8.963584899902344,10.0,2.0,05-27,3.203706900278723
03-14,3.670711517333981,-1.0956306457519671,3.3002281188964844,-2.7957725524902344,1.300628662109375,1.5870208740234375,0.42691802978515625,1.3086776733398438,6.841835021972656,4.19521331787108,10.213981628417967,21.818016052246094,10.0,2.0,05-28,4.2309856414794895
03-15,2.89408111572266,-1.0956306457519671,3.91851806640625,-3.162425994873053,0.6855430603027344,1.1440925598144531,0.8979568481445312,0.4477615356445313,6.166534423828125,3.9343643188476562,10.027923583984359,24.799842834472656,10.0,2.0,05-29,4.221546808878578
03-16,2.89408111572266,-1.3831329345703267,4.2276611328125,-3.4259414672851562,1.0331306457519531,1.1531829833984446,0.8979568481445312,0.082855224609375,7.1395721435546875,4.108306884765625,9.352554321289062,24.799842834472656,10.0,2.0,05-30,4.240005811055502
03-17,2.4038200378418004,-1.5184249877929688,4.081443786621094,-3.207317352294922,0.8545951843261719,1.1531829833984446,1.0634727478027344,-0.5063858032226562,7.254508972167969,3.545806884765625,9.15618133544922,16.309005737304688,9.0,3.0,05-31,3.382490793863933
03-18,0.8821392059326172,-0.11916732788085938,3.790203094482422,-3.9436988830566406,0.8545951843261719,0.692363739013679,0.76007080078125,0.5067291259765625,6.694007873535156,4.175491333007798,9.15618133544922,15.067520141601562,10.0,2.0,06-01,3.209702968597412
03-19,0.9260005950927734,0.15959548950194602,3.948314666748047,-3.9436988830566406,0.6324234008789062,1.6155586242675781,0.3801116943359304,0.1609649658203125,7.142814636230469,4.175491333007798,9.263832092285156,12.74848175048828,11.0,1.0,06-02,3.10082419713338
03-20,2.36004638671875,-0.4177207946777344,2.8452606201171875,-3.7778091430664062,0.7518119812011719,1.995887756347664,0.8772010803222656,0.11399078369140625,7.142814636230469,4.349258422851548,9.716598510742188,19.089431762695312,10.0,2.0,06-03,3.753897666931152
03-21,1.839391708374024,0.2525978088378977,2.8452606201171875,-2.9717254638671946,0.6342124938964773,1.8329200744628835,0.7762565612792969,0.11399078369140625,8.160491943359375,2.9439468383789062,7.924850463867173,28.23624420166017,11.0,1.0,06-04,4.382369836171467
03-22,1.789289474487305,0.2525978088378977,2.913959503173828,-3.0866928100585938,0.7680244445800781,2.0848503112792898,0.9517440795898509,-0.5316925048828125,9.27802276611328,4.9534912109375,10.3446044921875,29.43891143798828,10.0,2.0,06-05,4.92975918451945
03-23,1.789289474487305,0.03273391723633523,2.7246055603027344,-3.3749122619628977,0.7402915954589844,2.0394744873046804,0.9517440795898509,-0.4656829833984375,9.050010681152344,7.15826416015625,11.338439941406266,29.43891143798828,10.0,2.0,06-06,5.118597507476808
03-24,2.096748352050781,0.6582908630371023,1.8891334533691408,-3.767189025878899,0.026149749755859368,2.0394744873046804,0.8505935668945312,0.09521484375,9.105255126953123,5.8262100219726705,12.72284698486328,25.34706115722656,11.0,1.0,06-07,4.740815798441568
03-25,1.7479515075683594,-0.2081108093261648,1.5094680786132812,-2.7327575683593683,0.026149749755859368,2.0665855407714844,1.12554931640625,-0.868988037109375,8.751945495605469,5.8165283203125,12.72284698486328,22.11356353759767,9.0,3.0,06-08,4.3392276763916025
03-26,0.10095977783203124,-0.8182106018066335,1.8453330993652344,-2.7327575683593683,-0.5515098571777344,2.926349639892578,1.45806884765625,-0.4932708740234375,8.952484130859375,5.8165283203125,11.81267547607422,17.40153503417967,8.0,4.0,06-09,3.809848785400391
03-27,0.6756000518798828,-1.2156906127929759,1.6126518249511719,-2.619251251220703,-0.2740211486816406,3.3442115783691406,0.784626007080071,-0.2772369384765625,8.952484130859375,5.9420166015625,14.778152465820328,19.76012420654297,8.0,4.0,06-10,4.288638909657797
03-28,1.8566799163818395,-1.5381298065185582,1.6126518249511719,-2.4346237182617188,-0.0845489501953125,2.9290122985839915,0.6759300231933594,-0.2772369384765625,8.524497985839844,5.022636413574219,15.781745910644533,12.236709594726562,8.0,4.0,06-11,3.692110379536947
03-29,2.115560531616211,-1.5381298065185582,1.6813621520996094,-2.0051727294921875,0.4227790832519531,1.1847114562988352,0.7590446472167898,-0.4643783569335938,8.13287353515625,4.010368347167969,16.862442016601562,11.411735534667967,9.0,3.0,06-12,3.5477663675944013
03-30,2.115560531616211,-1.6818828582763707,1.4166526794433594,-2.4352378845214844,0.11925506591796875,0.7038116455078196,0.7590446472167898,-0.6044921875,8.686019897460938,5.999633789062513,14.942199707031234,11.411735534667967,9.0,3.0,06-13,3.4526917139689126
03-31,1.95767784118652,-0.5205612182617188,0.3840599060058665,-2.1100502014160085,-0.5948982238769531,0.7038116455078196,0.9245643615722656,0.08003997802734375,8.361846923828125,6.319328308105469,13.999610900878904,12.343055725097654,9.0,3.0,06-14,3.487373828887941
04-01,2.5837898254394567,-0.19767379760742188,0.7307205200195312,-2.4607009887695312,-0.5948982238769531,-0.15460968017578125,1.3037872314453196,-1.8900375366210933,9.582069396972656,6.484001159667969,13.999610900878904,8.297065734863281,7.0,5.0,06-15,3.1402603785196948
04-02,1.1877517700195312,-0.4517745971679616,0.5508384704589844,-2.4607009887695312,-0.8259582519531321,-0.6895675659179688,1.5788345336914134,-2.0409698486328125,9.648910522460938,6.484001159667969,14.479148864746108,9.459793090820312,7.0,5.0,06-16,3.0766922632853206
04-03,0.5033340454101598,0.540996551513679,-0.31955718994140625,-2.6877136230468817,0.8053245544433594,0.00733184814453125,1.081012725830071,-2.1537094116210938,9.648910522460938,4.910392761230469,13.350814819335925,11.451385498046875,9.0,3.0,06-17,3.0948769251505523
04-04,0.2444610595703125,0.9567756652832102,-0.31955718994140625,-1.9179534912109304,0.5554885864257812,-0.1130523681640625,1.6629066467285083,-2.1537094116210938,9.373092651367188,5.288734436035156,12.115676879882797,6.910064697265625,8.0,4.0,06-18,2.7169106801350904
04-05,0.37807273864746094,0.9567756652832102,-0.6802177429199219,-1.621490478515618,1.1602134704589844,1.073261260986328,1.57977294921875,-1.058868408203125,9.981719970703123,4.680694580078125,11.567878723144545,6.432975769042969,9.0,3.0,06-19,2.8708990414937365
04-06,0.37807273864746094,0.8891410827636719,-0.5941085815429688,-1.1487884521484375,1.0721359252929688,0.8373451232910227,1.57977294921875,-1.1143646240234375,9.286369323730467,6.437469482421875,10.655532836914062,6.432975769042969,9.0,3.0,06-20,2.892629464467367
04-07,1.3336677551269531,0.618072509765625,-0.2425956726074219,-1.3153419494628906,0.4115333557128906,0.8373451232910227,1.828044891357429,-0.665771484375,10.40216827392578,4.514350891113281,10.576995849609393,6.0763092041015625,9.0,3.0,06-21,2.8645648956298846
04-08,0.5768814086914027,0.3983154296875071,0.4019889831542969,-1.4818916320800781,0.4115333557128906,0.4487953186035227,1.967857360839844,0.517791748046875,9.841575622558594,4.892166137695328,10.576995849609393,3.193443298339858,11.0,1.0,06-22,2.6454544067382857
04-09,-0.35413169860839844,-0.5753211975097727,1.22833251953125,-1.4818916320800781,0.3671035766601491,0.6498908996582102,2.069103240966797,0.57415771484375,9.94660186767578,4.892166137695328,11.389297485351562,0.6689453125,9.0,3.0,06-23,2.4478545188903813
04-10,-0.5572299957275391,-1.5848083496093608,1.0473785400390625,-0.7746925354003906,-1.4953842163085938,1.0834503173828125,2.1159133911132884,1.1659011840820312,9.94660186767578,2.169731140136733,10.920814514160156,5.49379730224608,8.0,4.0,06-24,2.460956096649172
04-11,-0.3985633850097656,-1.9326858520507741,1.0473785400390625,-2.2366905212402344,-1.9586677551269531,1.76019287109375,1.8755416870117188,1.1659011840820312,9.918060302734377,1.131591796875,9.891822814941394,5.38446044921875,8.0,4.0,06-25,2.1373618443806963
04-12,-0.3735122680664063,-1.9326858520507741,1.6227455139160156,-2.243328094482429,-1.6217384338378906,0.9816436767578054,1.2012939453125,0.9506759643554688,10.402435302734377,0.241851806640625,8.66656494140625,3.8935546875,8.0,4.0,06-26,1.815791765848795
04-13,-0.3735122680664063,-2.0510711669921875,1.1839714050292969,-2.762031555175781,-0.253021240234375,1.3355216979980398,1.2012939453125,2.1081085205078125,10.79228973388672,-0.24234771728515625,11.31623077392578,3.8935546875,7.0,5.0,06-27,2.17908223470052
04-14,0.33279991149902344,-2.7619895935058523,0.9600334167480468,-3.0418739318847727,-0.16374588012695312,1.3355216979980398,1.3208351135253906,-1.3193359375,9.7188720703125,-1.2349700927734375,9.529273986816406,2.238990783691392,7.0,5.0,06-28,1.409534295399982
04-15,0.6349258422851527,-2.9384841918945312,0.8497085571289062,-2.9103889465332102,-0.16374588012695312,0.5765037536621094,1.4396781921386719,-4.08740234375,8.983604431152344,-1.825897216796875,9.529273986816406,6.9503707885742045,7.0,5.0,06-29,1.4198455810546855
04-16,2.7389049530029332,-2.9370079040527344,1.899131774902344,-2.9103889465332102,-0.5814323425292969,0.169586181640625,1.6152076721191406,-3.4191207885742188,9.518348693847656,-1.825897216796875,9.79351806640625,6.158149719238281,7.0,5.0,06-30,1.6849166552225745
04-17,3.5633258819580083,-3.8701782226562433,2.2610855102539062,-3.1112022399902344,0.5756797790527344,0.6511497497558594,1.088043212890632,-2.4516754150390625,9.518348693847656,-3.5829086303710938,13.940658569335925,6.598937988281237,8.0,4.0,07-01,2.09843873977661
04-18,4.244623184204109,-4.201099395751953,2.2610855102539062,-3.269065856933601,0.7881851196288991,0.19031906127928971,1.1433219909667898,-2.4516754150390625,9.233016967773438,-2.489990234374986,16.180908203125,5.349357604980455,8.0,4.0,07-02,2.248248895009357
04-19,4.244623184204109,-4.201099395751953,1.7630043029785227,-2.8656196594238352,0.9955177307128906,0.6440200805663991,1.1433219909667898,-2.28326416015625,8.831878662109375,-1.058952331542983,15.40753173828125,5.349357604980455,8.0,4.0,07-03,2.3308599789937308
04-20,4.244623184204109,-4.0827178955078125,1.0502357482910156,-3.171195983886726,0.6578063964843679,0.6440200805663991,1.1433219909667898,-2.58270263671875,8.575080871582031,-0.7114028930664205,15.40753173828125,5.349357604980455,8.0,4.0,07-04,2.210329850514725
04-21,3.5964756011962886,-4.1841888427734375,0.9910392761230468,-1.9811973571777413,0.5239028930663991,0.6440200805663991,1.226093292236321,0.7944793701171875,8.766738891601562,-0.4210586547851421,14.690780639648438,6.1617736816405975,9.0,3.0,07-05,2.567404905954993
04-22,4.063226699829105,-4.522996902465825,1.826942443847656,-1.3237228393554759,0.5239028930663991,0.15607833862303974,1.152862548828125,-0.197265625,8.681953430175781,-0.03356170654295454,14.690780639648438,6.480415344238281,8.0,4.0,07-06,2.6248846054077144
04-23,3.2885227203369176,-4.293502807617188,1.7580146789550781,-1.3237228393554759,-0.09819793701171876,-0.1631011962890625,1.042266845703118,-0.28177642822265625,8.882469177246094,-0.03356170654295454,13.584884643554688,10.223503112792967,6.0,6.0,07-07,2.7154831886291504
04-24,2.5219688415527344,-4.887451171875,2.628387451171875,-1.3149566650390625,-0.5534629821777344,-0.0989532470703125,0.7666130065917969,-0.26299285888671875,8.882469177246094,1.0959625244140625,16.039108276367188,11.403427124023438,7.0,5.0,07-08,3.0183432896931968
04-25,1.94576454162598,-3.894683837890625,2.628387451171875,-2.209114074707045,0.4017333984375,-0.3992118835449219,1.394672393798828,-0.26299285888671875,8.473495483398438,1.6576919555664062,15.232460021972642,2.9122390747070312,8.0,4.0,07-09,2.3233701388041155
04-26,1.812154769897461,-3.894683837890625,2.007915496826172,-2.6649818420410085,1.3479461669921804,-0.598865509033196,0.6003494262695241,-1.1177520751953125,7.9124603271484375,1.0866012573242188,12.69570159912108,0.7056884765625,8.0,4.0,07-10,1.6577111879984523
04-27,1.812154769897461,-3.5552902221679688,1.9045028686523509,-4.444538116455084,2.187080383300774,-0.5262794494628906,0.6003494262695241,-1.3807449340820312,9.18035888671875,1.9009475708007808,12.872123718261733,0.7056884765625,8.0,4.0,07-11,1.7713627815246582
04-28,2.0042266845703125,-3.3177108764648438,1.5942726135253835,-4.4182395935058585,2.4459648132324148,-0.5262794494628906,0.609588623046875,0.4696426391601562,7.944732666015625,2.84075927734375,12.391014099121096,1.7393951416015625,9.0,3.0,07-12,1.981447219848632
04-29,1.3612022399902308,-3.8098373413085938,0.8790168762207031,-4.6286277770996085,2.4459648132324148,-0.7259025573730469,0.7943115234375,3.944992065429688,8.059310913085938,2.4241867065429688,12.391014099121096,3.6576995849609375,9.0,3.0,07-13,2.232777595520018
04-30,1.4029636383056676,-3.3516464233398366,0.48260498046875,-4.6286277770996085,1.7764472961425781,-1.0525169372558665,1.4870452880859375,3.3438262939453125,8.832794189453125,2.4241867065429688,12.116081237792967,7.822303771972685,9.0,3.0,07-14,2.5546218554178903
05-01,2.1962814331054723,-2.4776649475097585,0.3619461059570313,-4.7688941955566415,3.4368362426757812,-0.7621803283691477,0.1939544677734446,3.174774169921875,8.832794189453125,2.3855743408203125,11.006591796875,7.245819091796875,9.0,3.0,07-15,2.568819363911948
05-02,1.6701927185058594,-2.537067413330078,0.3619461059570313,-4.803962707519531,3.6153869628906175,-0.1270141601562571,-0.018470764160163355,3.174774169921875,8.384010314941406,3.3897857666015625,10.221107482910156,9.44243621826172,8.0,4.0,07-16,2.731093724568684
05-03,3.0647926330566406,-2.537067413330078,0.7497444152832031,-4.374412536621101,3.3654251098632812,0.07260513305664062,-0.018470764160163355,4.2080078125,7.811073303222656,3.937179565429688,8.905410766601578,11.02280426025392,9.0,3.0,07-17,3.017257690429689
05-04,3.0647926330566406,-2.409778594970703,0.5429153442382812,-3.576690673828132,2.9994354248046875,-0.353851318359375,-0.018470764160163355,4.348876953125,7.677398681640625,1.3059844970703125,7.992309570312487,11.02280426025392,8.0,4.0,07-18,2.7163105010986315
05-05,3.0731410980224614,-1.5612640380859375,1.1289329528808594,-3.3049201965331965,2.9548072814941406,-0.353851318359375,0.8681983947753906,3.6256179809570312,7.5245819091796875,2.092498779296889,8.355590820312488,12.265228271484403,9.0,3.0,07-19,3.0557134946187365
05-06,3.4823436737060547,-1.298229217529304,0.3188552856445384,-2.8753662109375,2.9548072814941406,-0.018138885498046875,1.1083450317382884,3.4095916748046875,6.903877258300781,2.0731277465820312,8.355590820312488,12.304977416992203,9.0,3.0,07-20,3.0599818229675297
05-07,3.3403720855712886,-0.5260848999023438,1.1117057800292898,-2.8753662109375,2.8923072814941406,-1.3156623840332031,0.858978271484375,2.8836212158203125,7.23809814453125,2.0731277465820312,9.386528015136703,13.845588684082045,9.0,3.0,07-21,3.2427678108215328
05-08,3.724508285522461,-1.6121902465820312,0.7066497802734446,-3.050689697265625,3.0083580017089844,-0.589771270751946,0.7388877868652415,3.5223388671875,7.23809814453125,2.7706222534179688,10.181846618652344,11.688743591308608,9.0,3.0,07-22,3.193950176239017
05-09,3.7662506103515674,-1.6291542053222656,0.7066497802734446,-2.638671875,3.2315292358398366,-1.0797615051269602,0.018459320068359368,3.5223388671875,7.266754150390625,3.2646636962890625,10.211288452148438,11.798080444335925,9.0,3.0,07-23,3.2032022476196276
05-10,3.874837875366216,-1.6291542053222656,0.5773773193359446,-3.033161163330078,2.811969757080071,-3.4207611083984304,-0.055419921875,3.0245132446289062,6.521934509277344,1.9278030395507808,9.386535644531238,12.116134643554672,8.0,4.0,07-24,2.675217469533284
05-11,3.874837875366216,-1.6545982360839844,1.3357429504394531,-3.1646499633789062,3.2047500610351562,-3.475212097167976,-0.055419921875,2.921142578125,6.665168762207031,0.8234100341796733,11.497520446777346,12.116134643554672,8.0,4.0,07-25,2.8407355944315564
05-12,3.816381454467773,-0.5430564880371094,0.4912147521972585,-3.1383476257324148,2.4281044006347656,-3.475212097167976,-0.4710464477539134,2.658164978027344,7.0194244384765625,1.3368682861328125,10.299659729003906,14.461837768554672,8.0,4.0,07-26,2.9069994290669734
05-13,4.943748474121094,0.3648681640625,0.3619461059570313,-2.61236572265625,2.4281044006347656,-3.0124511718750138,-1.7271919250488352,3.080108642578125,6.09051513671875,1.3174972534179688,10.299659729003906,15.922927856445312,9.0,3.0,07-27,3.1214472452799464
05-14,4.459400177001953,2.257049560546875,-0.3102455139160085,-2.61236572265625,2.1424484252929688,-2.7130241394042898,-3.1957550048828125,3.006210327148437,5.486763000488281,1.3174972534179688,10.122917175292967,16.290687561035142,8.0,4.0,07-28,3.020965258280436
05-15,3.964385986328125,1.7733840942382812,-1.24957275390625,-2.095165252685554,1.4907875061035156,-2.2502555847167898,-3.2700042724609446,2.4593582153320312,5.486763000488281,2.547813415527344,9.504364013671877,18.238800048828143,8.0,4.0,07-29,3.050054868062338
05-16,3.4373092651367223,1.7055015563964844,-1.24957275390625,-1.2886428833007741,1.2229576110839773,-2.677963256835937,-2.841278076171875,2.4593582153320312,5.333992004394531,2.450912475585924,10.191650390625,14.169281005859391,8.0,4.0,07-30,2.7427921295166016
05-17,3.1437969207763667,1.7055015563964844,-0.4567413330078196,0.4471015930175781,1.4938926696777344,-3.3777809143066406,0.9164466857910156,4.337905883789063,5.763519287109375,9.309654235839844,10.95749664306642,14.92694854736328,10.0,2.0,07-31,4.0973118146260585
05-18,3.1437969207763667,2.4776611328125,-1.7149238586425781,0.6837844848632812,1.4131622314453125,-3.8517036437988215,0.9164466857910156,4.158287048339844,0.4443511962890625,8.660591125488281,10.925857543945328,14.92694854736328,10.0,2.0,08-01,3.5153549512227404
05-19,2.9266738891601562,2.316455841064453,-1.4821395874023366,-0.4821510314941406,1.4131622314453125,-3.8517036437988215,0.5192947387695312,3.4026565551757812,-1.088226318359375,8.487068176269544,8.178565979003906,15.344398498535142,8.0,4.0,08-02,2.973671277364096
05-20,3.4122982025146484,3.6919708251953054,-1.1203651428222583,-1.1746864318847583,1.4131622314453125,-3.1076545715331965,2.1681861877441406,2.159828186035156,-0.03240966796875,8.487068176269544,8.178565979003906,13.771278381347654,8.0,4.0,08-03,3.1539368629455584
05-21,3.612497329711912,4.245147705078125,-1.2278099060058594,-1.1746864318847583,1.47564697265625,-4.218685150146484,2.936019897460937,1.9788131713867188,-0.281585693359375,8.487068176269544,7.746551513671862,10.393714904785156,8.0,4.0,08-04,2.8310577074686685
05-22,4.299924850463872,4.287261962890631,-1.5047569274902344,-1.2009849548339844,3.17763900756836,-4.100608825683601,2.8507461547851634,1.9882278442382808,-0.281585693359375,8.535522460937527,4.663536071777359,13.833175659179703,8.0,4.0,08-05,3.0456748008728085
05-23,3.6826763153076207,4.423599243164071,-1.5047569274902344,-2.174041748046875,3.61724853515625,-3.936298370361328,3.943359375,1.9882278442382808,-0.6158065795898438,8.944183349609391,5.303047180175796,9.370254516601562,8.0,4.0,08-06,2.7534743944803908
05-24,3.38918495178223,4.423599243164071,-1.4271926879882741,-0.8766403198242188,3.5795631408691406,-4.2736549377441415,4.759819030761727,0.4947586059570313,-0.806793212890625,10.090911865234377,4.406890869140637,9.111053466796877,8.0,4.0,08-07,2.739291667938236
05-25,3.38918495178223,4.712093353271492,-3.80508041381836,-0.5522880554199219,2.9081192016601562,-3.7723770141601562,4.759819030761727,0.6738204956054688,-1.4271163940429688,10.149368286132797,7.0359344482421875,9.111053466796877,8.0,4.0,08-08,2.7652109464009604
05-26,3.38918495178223,4.466205596923834,-3.476490020751953,-0.38460540771484375,2.9350128173828125,-3.7723770141601562,4.759819030761727,0.419525146484375,-1.27301025390625,10.253822326660156,8.94622802734375,9.111053466796877,8.0,4.0,08-09,2.9478640556335463
05-27,3.788463592529293,3.3974876403808665,-5.838325500488281,-0.4990615844726562,2.9350128173828125,-3.7723770141601562,3.880558013916016,-0.643341064453125,-1.435333251953125,9.68035125732422,8.94622802734375,5.431373596191406,7.0,5.0,08-10,2.155919710795085
05-28,4.190109252929688,3.4738655090332102,-4.9165802001953125,-0.4990615844726562,2.9350128173828125,-3.7267990112304688,4.261005401611328,-0.9351959228515624,-1.6844863891601562,9.68035125732422,8.94622802734375,7.960746765136719,7.0,5.0,08-11,2.4737663269042973
05-29,3.4541072845458984,3.649932861328125,-6.716773986816406,-0.4990615844726562,3.866657257080078,-3.387935638427728,5.9744529724121165,-0.7089385986328125,-1.6844863891601562,9.68035125732422,10.334091186523438,5.9263687133789205,7.0,5.0,08-12,2.4907304445902527
05-30,2.9214630126953085,2.5337142944335938,-6.716773986816406,0.15807723999023438,2.80350112915039,-3.76982498168946,5.167808532714844,-0.7089385986328125,-1.6844863891601562,9.964309692382828,7.77618408203125,5.637351989746094,8.0,4.0,08-13,2.006865501403809
05-31,3.0807933807373047,2.5337142944335938,-6.716773986816406,-0.4904060363769531,3.35736083984375,-3.514999389648437,4.796661376953125,-0.7089385986328125,-3.0628814697265625,10.075653076171877,6.987754821777344,6.98321533203125,7.0,5.0,08-14,1.9434294700622559
06-01,3.0807933807373047,2.5337142944335938,-3.9346923828125,-0.051746368408203125,3.357872009277351,-2.822345733642578,4.796661376953125,-0.7751083374023438,-3.6527938842773438,8.68719482421875,7.40348052978517,6.98321533203125,7.0,5.0,08-15,2.133853753407798
06-02,2.504585266113281,1.9571189880371025,-3.415966033935547,-0.02548980712890625,3.3220100402832102,-2.822345733642578,4.750480651855469,-1.3968505859375,-2.9816818237304688,8.19500732421875,5.306076049804688,6.337150573730455,7.0,5.0,08-16,1.8108412424723288
06-03,2.772722244262696,1.897247314453125,-2.1727027893066406,0.3178901672363281,3.3220100402832102,-2.568286895751953,4.806957244873041,-1.3313827514648438,-2.6766586303710938,7.572929382324219,5.306076049804688,5.5631637573242045,8.0,4.0,08-17,1.9008304278055808
06-04,2.294893264770512,3.0428314208984304,-2.0364608764648366,0.3178901672363281,3.5630340576171946,-2.4955825805663987,5.789539337158217,-1.5486068725585938,-1.910003662109375,7.572929382324219,3.646736145019517,6.666343688964844,8.0,4.0,08-18,2.0752952893575047
06-05,2.0335063934326167,4.072277069091797,-2.218208312988281,0.1601104736328125,3.2819862365722656,-2.676410675048828,5.661144256591798,-0.9546356201171876,-1.910003662109375,7.514808654785143,1.5139694213867188,5.1747207641601705,8.0,4.0,08-19,1.8044387499491368
06-06,1.908807754516605,3.9955825805664062,-2.218208312988281,-0.6101570129394531,2.9163627624511648,-2.85635757446289,5.90944671630858,-0.9546356201171876,-1.5566940307617188,7.845237731933607,0.36081695556639204,4.6269378662109375,7.0,5.0,08-20,1.61392831802368
06-07,2.185539245605465,3.9955825805664062,-2.493961334228516,-0.9609642028808594,2.228790283203125,-2.5551185607910227,5.24139404296875,-1.330352783203125,-3.1180648803710938,9.553756713867203,-1.3280487060546875,4.437530517578113,6.0,6.0,08-21,1.3213402430216463
06-08,2.185539245605465,4.012546539306655,-3.6893310546875,-1.4082450866699219,2.148822784423821,-2.901447296142585,5.24139404296875,-0.5658721923828125,-2.678749084472656,9.24407958984375,-3.9239578247070312,4.437530517578113,6.0,6.0,08-22,1.0085258483886703
06-09,1.960062026977532,3.781148910522465,-3.6442489624023366,-1.0320663452148366,1.75433349609375,-2.901447296142585,4.8719329833984295,-0.67877197265625,-3.6931838989257812,9.507034301757797,-3.4808425903320312,5.540802001953112,6.0,6.0,08-23,0.9987293879191054
06-10,1.7598781585693395,3.085926055908203,-3.0236587524414134,-0.6182212829589915,1.75433349609375,-2.810699462890625,3.8238677978515554,-0.7621917724609375,-2.8889236450195312,9.400123596191394,-3.4808425903320312,6.226203918457031,6.0,6.0,08-24,1.038816293080645
06-11,1.4604301452636683,2.3038864135742188,-2.941864013671875,-0.6182212829589915,2.0578575134277344,-2.165744781494148,2.8982963562011648,0.7978591918945312,-3.3776626586914062,9.400123596191394,-2.852455139160142,13.820663452148438,7.0,5.0,08-25,1.7319307327270488
06-12,1.359762191772461,1.8432655334472656,-2.56106185913086,-1.1441993713379048,3.3906402587890625,-1.9946060180664065,1.7284088134765554,1.0241241455078125,-3.3776626586914062,9.080429077148438,-0.7183990478515625,14.023361206054688,7.0,5.0,08-26,1.8878385225931784
06-13,1.9610137939453087,1.9114341735839844,-2.56106185913086,-1.0753059387207031,2.50783920288086,-2.184722900390632,1.4487495422363281,1.0241241455078125,-4.08428955078125,8.653312683105469,-0.11043548583984376,12.996665954589846,7.0,5.0,08-27,1.7072769800821932
06-14,1.69266319274902,1.9114341735839844,-2.69033432006836,-1.1705780029296946,2.9372177124023366,-1.2673377990722656,2.5343055725097656,1.343475341796875,-4.659034729003906,8.995246887207019,1.226951599121108,13.465225219726562,8.0,4.0,08-28,2.0266029040018703
06-15,1.69266319274902,0.9186630249023438,-2.6075172424316406,-1.347118377685554,1.6644935607910156,-1.2308692932128906,2.5343055725097656,1.9181900024414065,-3.3845367431640625,9.656387329101562,1.6505966186523149,13.465225219726562,8.0,4.0,08-29,2.07754023869832
06-16,1.9515361785888672,0.400634765625,-1.6898117065429688,-1.2400894165039062,1.718292236328125,-1.2308692932128906,1.9524116516113281,2.126220703125,-3.6250991821289062,9.102088928222644,2.0050811767577983,11.497230529785154,8.0,4.0,08-30,1.9139688809712705
06-17,1.7508354187011719,1.4396286010742188,-0.13264846801757812,-1.2929229736328125,1.718292236328125,-1.85696029663086,2.9170036315917898,2.559410095214844,-4.25482177734375,9.889381408691406,2.0050811767577983,13.419883728027358,8.0,4.0,08-31,2.346846898396809
06-18,1.6077499389648473,0.5450401306152273,-0.1060638427734375,-1.2929229736328125,1.5397567749023438,-1.621044158935554,2.5385169982910227,1.2816696166992188,-3.3252639770507812,9.889381408691406,2.6727447509765625,11.426246643066404,8.0,4.0,09-01,2.096317609151204
06-19,1.3475151062011754,1.4638099670410156,0.04107666015625,-1.1263694763183594,2.200359344482422,-2.1563034057617188,2.195297241210937,0.6122589111328125,-3.3252639770507812,10.4609375,2.751281738281236,11.079147338867203,9.0,3.0,09-02,2.1286455790201826
06-20,1.8894805908203125,2.409614562988281,0.04107666015625,-0.959819793701172,3.701595306396485,-1.992469787597656,0.5539283752441406,0.6122589111328125,-3.458953857421875,10.083122253417956,2.191162109375,12.235443115234391,9.0,3.0,09-03,2.27553653717041
06-21,1.7553138732910192,2.409614562988281,-0.5190620422363281,-0.38297271728515625,3.6018638610839844,-1.4192657470703125,1.1848526000976491,0.5558929443359375,-3.5639801025390625,11.57500457763672,3.1352310180664062,14.986984252929703,8.0,4.0,09-04,2.7766230901082367
06-22,1.7553138732910192,3.3429870605468683,-0.3381080627441406,-0.7417106628417898,3.3859062194824148,-1.7564697265625,1.1848526000976491,-0.03585052490234375,-2.778755187988281,12.040031433105455,1.193702697753892,14.986984252929703,7.0,5.0,09-05,2.6865736643473284
06-23,1.5966472625732455,3.6908645629882812,-1.2132530212402344,0.4518814086914134,3.61004638671875,-1.7564697265625,1.4804039001464844,-1.7641448974609375,-2.50091552734375,14.099159240722654,3.4486465454101562,15.096321105957033,8.0,4.0,09-06,3.01993227005005
06-24,1.5715961456298864,4.252502441406244,-2.07950210571289,0.10848236083984376,3.61004638671875,-1.4025917053222656,2.154651641845703,2.5419235229492188,-3.4293289184570312,15.848693847656266,3.4486465454101562,16.587226867675778,9.0,3.0,09-07,3.601028919219972
06-25,1.1044960021972656,4.492359161376953,-2.8222274780273438,0.10848236083984376,3.583282470703125,-1.2369880676269531,3.1467208862304688,4.844245910644531,-3.8126602172851562,15.848693847656266,1.2100296020507812,11.856750488281266,9.0,3.0,09-08,3.19359874725342
06-26,0.9046325683593714,3.83803939819336,-2.0000152587890625,0.22243499755859367,3.3774566650390625,-0.7451477050781179,2.859947204589851,5.626747131347656,-3.8126602172851562,15.335273742675795,2.268310546875,11.288864135742203,9.0,3.0,09-09,3.26365693410238
06-27,1.0906105041503906,4.08514404296875,-2.0000152587890625,0.2582550048828125,2.9936790466308665,-1.8268814086914065,4.239288330078119,5.626747131347656,-3.077392578125,16.674613952636705,-0.3148727416992045,7.116287231445327,8.0,4.0,09-10,2.905455271402996
06-28,1.2751102447509766,4.08514404296875,-2.499824523925781,1.0411338806152417,3.74600601196289,-2.583335876464844,4.0166015625,4.602912902832031,-2.8838119506835938,15.063125610351547,-4.8069915771484375,8.940673828125,8.0,4.0,09-11,2.499728679656982
06-29,1.2751102447509766,4.9591217041015545,-2.567523956298828,0.250701904296875,3.3902511596679688,-2.8931999206542898,4.0166015625,2.617256164550781,-2.26239013671875,15.055572509765641,-4.728424072265637,8.940673828125,8.0,4.0,09-12,2.337812582651774
06-30,1.2918186187744105,5.383777618408203,-3.4924774169921875,-0.3188018798828125,3.4081802368164062,-2.8931999206542898,3.9888992309570455,-1.2963104248046875,-1.369903564453125,14.813232421875,-5.201080322265637,6.227210998535156,6.0,6.0,09-13,1.71177879969279
07-01,1.0917339324951136,5.579034805297855,-4.4411468505859375,-0.2395782470703125,3.4081802368164062,-3.346900939941399,3.1077842712402344,-0.34394073486328125,-1.5033187866210938,15.658851623535142,-5.201080322265637,5.032394409179688,6.0,6.0,09-14,1.5668344497680646
07-02,1.651994705200195,5.802043914794929,-3.8356246948242174,-0.2395782470703125,3.542083740234375,-2.420360565185547,3.617862701416016,-0.835784912109375,-2.174140930175781,15.658851623535142,-4.484329223632828,3.7238998413085938,6.0,6.0,09-15,1.6672431627909323
07-03,2.4217395782470703,6.626102447509773,-3.2038230895996094,-0.8970527648925781,3.1479110717773438,-3.6224899291992174,2.940738677978516,-0.9960403442382812,-2.174140930175781,15.271354675292955,-7.392242431640612,4.1534423828125,6.0,6.0,09-16,1.3562916119893398
07-05,3.4364223480224614,7.273681640625,-3.2038230895996094,0.16823959350586648,3.536273956298828,-3.2236862182617188,5.093292236328125,-0.9960403442382812,-2.0200729370117188,17.246253967285153,-7.651992797851548,2.8474578857421733,7.0,5.0,09-18,1.8755005200703945
07-06,3.4364223480224614,7.273681640625,-3.7106781005859375,1.0271263122558525,2.56013488769532,-4.226203918457031,5.093292236328125,-0.5151596069335938,-2.1925125122070312,17.040634155273438,-6.521362304687487,2.8474578857421733,7.0,5.0,09-19,1.842736085255941
07-07,3.9291267395019496,6.221275329589844,-4.2206993103027415,2.2883224487304763,3.196685791015632,-4.226203918457031,4.668426513671869,-0.5631790161132812,-2.2377471923828125,16.334381103515625,-5.251106262207016,2.956794738769517,7.0,5.0,09-20,1.924673080444336
07-08,3.920190811157223,5.447772979736328,-4.7231712341308585,2.5612831115722656,3.196685791015632,-4.062870025634773,4.887508392333984,-0.8320159912109375,-2.3232879638671875,15.887268066406234,-5.251106262207016,3.3588943481445312,7.0,5.0,09-21,1.8389293352762848
07-09,3.702234268188477,5.303581237792969,-4.4229888916015625,2.5612831115722656,2.3932647705078125,-4.035202026367188,3.7368850708007812,-1.1134262084960938,-1.78662109375,15.887268066406234,-5.329650878906262,1.6167373657226562,7.0,5.0,09-22,1.5427803993225069
07-10,3.669679641723633,4.911128997802726,-5.6779518127441415,2.780445098876953,2.0357627868652344,-4.3817977905273375,3.9328536987304688,-1.3962631225585938,-1.78662109375,14.908828735351547,-5.291656494140625,-1.1511764526367188,6.0,6.0,09-23,1.046102682749429
07-11,3.286075592041016,4.706642150878898,-5.6779518127441415,3.2285690307617188,1.0543174743652344,-4.426990509033203,2.5713768005371023,-1.3962631225585938,-1.6624755859375,14.703338623046875,-5.5267257690429545,1.2369155883789062,7.0,5.0,09-24,1.0080690383911133
07-12,3.5041217803955043,4.706642150878898,-5.6090087890625,3.377552032470703,0.903156280517578,-4.8363571166992125,2.5157051086425706,-1.5934906005859375,-2.407211303710937,14.479995727539062,-4.878562927246094,-0.9463729858398438,6.0,6.0,09-25,0.7680141131083161
07-13,3.5041217803955043,3.2980995178222585,-6.249992370605469,2.667400360107429,0.8139419555664062,-4.781677246093744,2.5157051086425706,-0.4439163208007813,-2.485076904296875,15.381103515625,-3.993736267089858,-0.9463729858398438,6.0,6.0,09-26,0.7733000119527166
07-14,3.49575424194336,3.093353271484375,-5.3179779052734455,2.2616004943847727,0.6794586181640554,-4.781677246093744,2.811267852783203,-1.0380477905273438,-2.252349853515625,15.337165832519533,-3.39306640625,-3.8089218139648438,6.0,6.0,09-27,0.5905466079711914
07-15,1.6399173736572266,3.6982460021972656,-4.6943206787109375,2.103130340576179,0.6794586181640554,-5.035736083984369,1.8092193603515625,-1.47265625,-2.6056900024414062,15.181632995605467,-3.39306640625,-5.269653320312512,6.0,6.0,09-28,0.22004016240437765
07-16,0.6613578796386719,4.2065391540527415,-3.2787437438964844,2.103130340576179,0.9740371704101491,-4.755096435546875,1.4117546081542898,-1.7649688720703125,-2.806922912597656,15.181632995605467,-3.628715515136705,-4.773162841796887,6.0,6.0,09-29,0.29423681894938153
07-17,1.9758472442626955,5.007110595703125,-4.983726501464844,1.9453201293945241,1.296600341796875,-3.0652236938476562,0.4730949401855469,-0.944732666015625,-2.806922912597656,13.87380218505858,-4.188934326171862,-6.660873413085966,6.0,6.0,09-30,0.16011349360147814
07-18,1.433145523071289,5.117889404296875,-4.983726501464844,1.348461151123054,0.07006454467773438,-3.6535339355468817,1.178375244140618,-0.944732666015625,-2.7591629028320312,13.640457153320312,-5.250053405761719,-6.292335510253906,6.0,6.0,10-01,-0.09126265843709368
07-19,1.4163780212402344,5.117889404296875,-6.6297149658203045,1.0770378112792969,0.7235870361328196,-4.02067565917968,2.12478256225586,-0.6723403930664062,-2.575889587402344,11.400749206542967,-4.524116516113281,-5.714118957519531,6.0,6.0,10-02,-0.18970266977945785
07-20,1.4163780212402344,4.659690856933594,-5.514976501464852,1.6294593811035156,1.5307235717773509,-5.333076477050781,2.12478256225586,-2.6309738159179688,-2.9413833618164062,11.96271514892578,-5.056526184082016,-5.714118957519531,6.0,6.0,10-03,-0.3222754796346017
07-21,1.600114822387695,4.770362854003906,-7.1504364013671875,2.0332069396972585,0.8045082092285156,-5.333076477050781,2.937572479248053,-2.1042556762695312,-1.2553939819335938,12.952072143554688,-7.341003417968737,-4.610847473144531,6.0,6.0,10-04,-0.22476466496785366
07-22,0.7032508850097656,2.9107398986816406,-8.674114227294924,2.1740798950195312,0.8045082092285156,-3.817779541015632,4.1990509033203125,-2.6398162841796875,-0.9870834350585938,12.806282043457045,-7.341003417968737,-4.430427551269531,6.0,6.0,10-05,-0.3576927185058576
07-23,0.1510486602783203,2.444438934326172,-6.7971649169921875,2.1740798950195312,0.8669891357421875,-3.699527740478509,5.384433746337899,-3.6297836303710938,-1.2649917602539062,12.806282043457045,-8.66650390625,-5.218193054199219,6.0,6.0,10-06,-0.45407438278198
07-24,0.670867919921875,2.685787200927741,-5.92303466796875,3.0770187377929688,1.1505241394042969,-3.097541809082045,6.439170837402344,-3.6203536987304688,-1.2649917602539062,13.184074401855485,-7.8231353759765625,-3.930915832519517,6.0,6.0,10-07,0.1289558410644549
07-25,1.3249664306640625,2.660236358642578,-5.92303466796875,2.797580718994155,1.8305091857910158,-2.7250518798828196,5.845348358154304,-3.6203536987304688,-0.5270767211914062,12.318939208984359,-5.155670166015613,-4.914886474609387,6.0,6.0,10-08,0.3259588877360026
07-26,1.5262222290039062,2.660236358642578,-5.776527404785156,2.6232566833496023,2.304157257080078,-3.609081268310547,6.773162841796883,-3.950347900390625,0.0766754150390625,11.098602294921877,-7.455390930175781,-4.496170043945328,7.0,5.0,10-09,0.14789962768554568
07-27,1.5262222290039062,2.787513732910156,-4.127513885498041,1.7460098266601562,1.4434471130371094,-2.72503662109375,6.773162841796883,-2.9038238525390625,0.5558090209960938,4.968055725097656,-9.649978637695312,-4.496170043945328,7.0,5.0,10-10,-0.3418585459391276
07-28,1.7610111236572232,2.642372131347656,-4.3880043029785085,1.2522659301757812,1.1475906372070312,-2.72503662109375,5.919563293457031,-3.52606201171875,5.8936767578125,3.4602127075195312,-7.9759979248046875,-3.0605926513671875,7.0,5.0,10-11,0.033416589101155886
07-29,2.280948638916016,3.09306716918946,-3.2974967956543035,0.8208274841308594,1.1475906372070312,-2.4698448181152344,3.0433120727539205,-2.102455139160156,7.225746154785156,0.2527008056640625,-7.9759979248046875,-2.2829818725585795,7.0,5.0,10-12,-0.022048632303871333
07-30,2.5157337188720703,3.127159118652351,-2.873409271240241,0.8208274841308594,1.23724365234375,-3.2353973388671946,2.56081771850586,-2.1401443481445312,7.1203460693359375,0.2527008056640625,-7.217788696289077,-1.0966339111328125,7.0,5.0,10-13,0.08928791681925279
07-31,2.5408973693847687,2.6926002502441406,-1.9819679260253904,1.2328453063964917,2.2772369384765625,-3.2809829711914062,2.5793685913085938,-1.5839004516601562,7.1203460693359375,-0.009727478027357959,-4.637893676757828,2.831298828125,7.0,5.0,10-14,0.8150100708007798
08-01,1.979049682617184,3.016376495361328,-1.9819679260253904,1.995811462402344,1.3806838989257812,-4.511341094970703,2.6721725463867263,-1.5839004516601562,5.6061859130859375,-0.8359069824218892,-1.2111663818359375,-1.0966339111328267,6.0,6.0,10-15,0.4524469375610331
08-02,2.691837310791005,3.016376495361328,-1.047229766845696,2.5303993225097656,1.291034698486321,-4.5478057861328125,2.2175140380859304,-0.8956680297851562,5.9799346923828125,-1.292724609375,-2.1367950439453267,-2.213195800781264,6.0,6.0,10-16,0.4661397933959922
08-03,2.691837310791005,3.093059539794922,-1.17706298828125,1.4179496765136719,1.138629913330078,-4.319953918457031,2.2175140380859304,-0.9710922241210938,6.315345764160156,-1.895355224609375,-1.87091064453125,-2.213195800781264,6.0,6.0,10-17,0.36889712015787496
08-04,2.515754699707024,2.88857650756836,1.0385704040527344,2.069202423095703,1.5062141418457102,-4.319953918457031,1.6144180297851562,-0.7071075439453125,6.3057708740234375,1.3510437011718892,-1.5853500366210938,-2.1733169555664062,8.0,4.0,10-18,0.8753185272216809
08-05,1.8113441467285192,2.649974822998047,-0.20771026611328125,2.8528480529785227,1.5062141418457102,-3.9462814331054688,0.8165359497070099,-0.367706298828125,5.979942321777344,0.7873001098632812,-1.5853500366210938,-2.0138168334960938,7.0,5.0,10-19,0.6902745564778643
08-06,2.01260757446289,2.6073913574218683,2.8647537231445312,2.8528480529785227,1.9544868469238352,-3.5270614624023438,1.3639030456542969,0.207427978515625,5.61578369140625,0.7873001098632812,-4.184944152832031,-1.3059921264648295,9.0,3.0,10-20,0.9373753865559914
08-07,1.853250503540039,2.223945617675781,1.94734191894532,2.5974998474121165,2.9137992858886648,-2.6247825622558665,1.1133880615234233,0.29227447509765625,5.61578369140625,1.4287872314452983,-5.031768798828137,-4.087432861328138,9.0,3.0,10-21,0.6868405342102003
08-08,1.7358665466308594,3.084541320800774,1.94734191894532,2.4830322265625,2.5551795959472656,-2.1143989562988352,0.5288925170898438,0.29227447509765625,5.61578369140625,1.2732543945312358,-5.0121002197265625,-0.03987884521484375,9.0,3.0,10-22,1.0291490554809553
08-09,1.3585128784179688,3.084541320800774,0.017318725585944602,2.210071563720703,3.0751876831054688,-0.8293495178222656,-0.04637908935545454,0.4713897705078125,5.90325927734375,0.408233642578125,-3.1313095092773438,0.7377319335937642,9.0,3.0,10-23,1.1049340565999373
08-10,1.3585128784179688,3.5872726440429688,2.198333740234375,2.3685760498046875,3.604145050048828,-1.4308700561523438,-0.04637908935545454,-0.23571014404296875,7.369514465332031,1.5454254150390625,-3.3282546997070312,0.7377319335937642,8.0,4.0,10-24,1.4773581822713242
08-11,0.92244911193848,2.6670265197753977,0.9866600036621094,1.5232810974121094,2.80621337890625,-1.4308700561523438,0.640190124511733,0.9993743896484376,6.602867126464844,2.2160873413085938,-2.629119873046875,0.996940612792983,10.0,2.0,10-25,1.3584249814351432
08-12,1.2243194580078125,2.6158981323242263,1.5405540466308665,1.2679519653320312,2.80621337890625,-1.6040382385253906,2.328857421875,1.3387603759765625,5.951194763183594,-1.282997131347642,-2.629119873046875,0.2193298339843892,9.0,3.0,10-26,1.1480770111084022
08-13,0.8301868438720703,2.8970947265625,-0.060588836669921875,1.2679519653320312,2.6896591186523366,-1.2121429443359375,2.1989669799804688,1.4142074584960938,5.347450256347656,-1.282997131347642,-3.7910614013672017,-0.16947174072264204,7.0,5.0,10-27,0.8441046078999843
08-14,1.3588886260986293,2.786308288574212,0.4587135314941406,1.2767410278320312,2.913795471191399,-1.1118774414062642,1.3268127441406108,0.725982666015625,5.347450256347656,-1.8467407226562358,-1.72320556640625,-1.0268402099609517,8.0,4.0,10-28,0.8738357226053836
08-15,1.415365219116211,2.811859130859375,0.4587135314941406,0.9333610534667968,4.554512023925781,-2.670352935791016,0.797943115234375,0.725982666015625,5.500770568847656,-0.04857635498046875,-0.4431076049804688,-2.237579345703139,8.0,4.0,10-29,0.9832409222920724
08-16,0.7080821990966832,2.811859130859375,0.839527130126946,0.6691970825195312,4.375171661376953,-2.2146530151367263,1.6330032348632812,1.0465240478515625,5.1653594970703125,-1.2732696533203267,-2.0186309814452983,-5.5475845336914205,8.0,4.0,10-30,0.5162154833475728
08-17,0.7080821990966832,2.1557655334472585,1.2982215881347727,0.5987472534179688,4.276557922363281,-2.4151611328125,1.6330032348632812,0.46197509765625,5.55828857421875,-2.527122497558608,-1.3273239135742188,-5.5475845336914205,8.0,4.0,10-31,0.4061207771301249
08-18,0.5739002227783203,2.2836189270019456,2.6051025390625,0.950946807861328,3.87310791015625,-2.4151611328125,1.874229431152358,-3.592063903808608,4.130378723144531,-1.1126327514648295,-0.5964202880859375,-5.1787109375,7.0,5.0,11-01,0.2830246289571132
08-19,0.5581893920898473,2.5392074584960938,1.1337699890136648,0.6251487731933594,3.87310791015625,-2.8252868652343683,2.9969024658203267,-4.738059997558594,5.6574249267578125,-0.5372161865234375,-0.5964202880859375,-4.3892974853515625,7.0,5.0,11-02,0.35812250773112125
08-20,0.1374301910400355,2.4969825744628977,-0.4241065979003906,0.6251487731933594,3.783458709716804,-1.859214782714844,5.093803405761727,-5.816253662109375,5.984474182128906,-0.5372161865234375,0.7230682373046875,-3.0997314453125,7.0,5.0,11-03,0.5923202832539891
08-21,-0.4676399230957031,2.9148635864257812,0.4760055541992188,0.801258087158196,4.715892791748047,-1.5402297973632812,7.8124542236328125,-5.5321807861328125,5.984474182128906,-0.9551620483398438,-0.8065109252929688,0.7510375976562358,7.0,5.0,11-04,1.1795218785603825
08-22,-0.13128662109374645,3.0431785583496094,0.4760055541992188,2.0163764953613352,3.8551864624023438,-1.4682731628417969,8.272689819335952,-5.5321807861328125,5.3807373046875,0.34157562255860807,-9.267463684082033,0.815055847167983,8.0,4.0,11-05,0.6501334508260136
08-23,-0.2828483581542969,3.0431785583496094,-0.5106430053710938,-0.9069366455078054,4.0270843505859375,-1.0284347534179543,6.8472900390625,-5.7584686279296875,5.09033203125,1.208702087402358,-11.085685729980467,0.30506134033201704,6.0,6.0,11-06,0.07905260721842626
08-24,-0.2828483581542969,3.6225967407226562,0.5106391906738352,-0.8173103332519531,3.550861358642585,0.18918991088867892,6.8472900390625,-6.032073974609375,5.9252777099609375,-1.5289230346679543,-11.814376831054688,0.30506134033201704,7.0,5.0,11-07,0.0396153132120786
08-25,-0.2744712829589844,4.5468177795410085,1.2116622924804759,-0.11096572875976562,4.081901550292976,0.18918991088867892,7.413280487060548,-5.982696533203125,3.621429443359375,-0.08303070068357954,-10.994583129882828,1.2820587158202983,7.0,5.0,11-08,0.4083827336629232
08-26,0.5327663421630859,4.8201866149902335,0.19895172119140625,-1.207672119140625,4.081901550292976,-0.0295257568359375,6.5326576232910165,-3.594711303710937,4.004318237304688,0.9019927978515624,-10.994583129882828,4.673500061035156,8.0,4.0,11-09,0.8266485532124831
08-27,0.414606094360348,3.8485183715820384,-1.2814292907714844,-1.207672119140625,5.2653465270996085,0.08048629760742188,5.474212646484362,-2.551788330078125,4.013938903808594,0.9019927978515624,-11.49677276611328,3.9179306030273295,8.0,4.0,11-10,0.6149474779764791
08-28,1.1797294616699183,4.674888610839844,-2.3507843017578125,-1.6215095520019531,4.34748840332032,0.9502868652343679,4.673206329345697,-3.1483688354492188,4.013938903808594,1.5337829589843892,-11.940147399902346,5.4020538330078125,8.0,4.0,11-11,0.6428804397583011
08-29,1.439422607421875,5.145420074462892,-2.3507843017578125,-2.143573760986328,4.744941711425781,1.5459022521972656,5.547599792480483,-3.1483688354492188,3.8797454833984375,0.7659988403320455,-12.167854309082045,9.582847595214844,8.0,4.0,11-12,1.0701080958048514
08-30,1.447845458984375,5.145420074462892,-2.5238800048828125,-1.9684486389160158,5.526580810546875,0.9249916076660228,5.56622314453125,-3.0635299682617188,2.0171661376953125,-0.05323028564451704,-13.104568481445328,9.582847595214844,7.0,5.0,11-13,0.7914514541625982
08-31,1.447845458984375,4.583030700683594,-2.3928260803222656,-2.241912841796875,5.633049011230482,0.8425865173339915,5.56622314453125,-5.878898620605482,1.5481109619140625,-2.520668029785142,-10.929489135742172,9.582847595214844,7.0,5.0,11-14,0.4366582234700551
09-01,1.6491069793701172,3.448993682861328,-0.3286476135253906,-3.2045974731445384,6.254100799560554,0.8425865173339915,7.0136451721191335,-5.4717559814453125,1.943443298339844,-3.548934936523437,-9.546699523925751,8.476249694824219,7.0,5.0,11-15,0.6272908846537296
09-02,1.4801464080810511,2.543712615966797,0.35344696044921875,-4.186317443847663,6.254100799560554,0.8425865173339915,4.277252197265625,-5.02175140380858,2.56640625,-3.841529846191392,-9.546699523925751,5.724708557128906,8.0,4.0,11-16,0.12050517400106298
09-03,1.6827926635742223,2.015483856201172,1.0820465087890625,-4.186317443847663,6.254100799560554,0.9783782958984376,4.1129798889160165,-5.427703857421888,2.4413604736328125,-3.841529846191392,-9.546699523925751,8.805244445800781,8.0,4.0,11-17,0.3641780217488633
09-04,2.14642333984375,1.612457275390618,0.8994827270507812,-4.186317443847663,5.8769378662109375,0.3490447998046875,4.755371093750006,-5.2477874755859375,2.4413604736328125,-3.841529846191392,-10.96210479736328,9.253860473632797,8.0,4.0,11-18,0.2580998738606765
09-05,1.769758224487305,1.6637954711914134,0.8994827270507812,-4.055183410644531,6.011493682861327,0.5248718261718679,3.938373565673828,-5.2477874755859375,2.4413604736328125,-2.9480438232422017,-10.737159729003906,11.90570831298828,8.0,4.0,11-19,0.5138891537984199
09-06,1.5087413787841797,1.6637954711914134,0.8994827270507812,-3.8775596618652335,5.8495521545410085,0.522857666015625,5.298595428466797,-5.2477874755859375,3.4306869506835938,-2.243293762207017,-10.046737670898438,11.90570831298828,8.0,4.0,11-20,0.8053367932637544
09-07,1.5087413787841797,1.6637954711914134,-0.5052413940429688,-3.82177734375,4.924720764160156,0.3763771057128906,5.298595428466797,-6.0208206176757955,2.2599029541015625,-2.2955474853515625,-8.135940551757812,11.90570831298828,7.0,5.0,11-21,0.5965428352355951
09-08,1.5087413787841797,1.5193443298339844,-0.5212860107421875,-3.4871864318847585,4.474681854248047,0.3763771057128906,5.298595428466797,-4.936325073242203,1.8855209350585933,-2.9370574951172017,-7.9384002685546875,11.90570831298828,7.0,5.0,11-22,0.5957261721293113
09-09,1.1642570495605504,1.5197219848632812,-0.3591194152832031,-3.4606552124023438,4.474681854248047,1.132831573486328,5.75416183471679,-2.7277069091796733,0.63970947265625,-3.7855453491210938,-7.9384002685546875,10.081321716308606,7.0,5.0,11-23,0.5412715276082377
09-10,1.0214500427246094,1.8706016540527344,-0.1860313415527344,-3.4606552124023438,4.169853210449219,1.3694534301757741,7.12969589233397,-3.7176513671874862,1.6689224243164062,-3.7855453491210938,-7.948249816894518,10.779167175292967,7.0,5.0,11-24,0.7425842285156256
09-11,1.1316356658935476,1.2997093200683525,0.14434051513671875,-3.5311012268066406,4.3409423828125,1.4620399475097656,6.265113830566406,-2.5339813232421875,1.6689224243164062,-3.746658325195313,-6.882965087890612,9.612754821777344,8.0,4.0,11-25,0.7692294120788574
09-12,0.7794380187988246,0.8120536804199219,0.14434051513671875,-3.6280288696289062,4.753711700439447,2.675159454345703,6.896045684814452,-2.5339813232421875,1.592254638671875,-5.3822555541992045,-7.477340698242202,8.894966125488281,8.0,4.0,11-26,0.6271969477335603
09-13,0.6362857818603516,0.8120536804199219,-0.3922538757324219,-3.79269027709961,4.91522216796875,2.6204795837402344,7.296649932861327,-1.6194686889648438,1.599365234375,-6.382049560546875,-7.002204895019531,8.894966125488281,7.0,5.0,11-27,0.6321962674458822
09-14,0.6362857818603516,0.5734596252441406,-1.815216064453125,-3.924087524414064,3.7407493591308594,2.5564002990722585,7.296649932861327,-0.92889404296875,1.6295394897460938,-7.704643249511719,-5.111595153808594,8.894966125488281,7.0,5.0,11-28,0.4869678815205886
09-15,-0.1184310913085902,0.7985115051269531,-2.53519058227539,-4.295787811279297,3.8577651977539062,2.5564002990722585,5.728607177734375,-1.409637451171875,2.2542037963867188,-8.409049987792969,-3.5214004516601705,9.642662048339844,6.0,6.0,11-29,0.3790543874104803
09-16,-0.11736106872558595,0.7554893493652344,-0.7371406555175781,-4.056987762451172,3.8577651977539062,2.711326599121086,5.6937713623046875,-0.7480087280273438,1.7181396484375,-6.721824645996094,-3.5214004516601705,10.200950622558606,6.0,6.0,11-30,0.7528932889302565
09-17,-0.7410373687744105,0.6857452392578125,0.2772712707519531,-4.056987762451172,4.583961486816406,3.732154846191413,6.399436950683607,-2.4483413696289062,2.343345642089844,-6.721824645996094,-4.043281555175796,12.005401611328125,7.0,5.0,12-01,1.0013203620910651
09-18,-0.3629589080810511,0.4804801940917969,2.163898468017585,-3.7928428649902415,4.469444274902344,3.59527587890625,7.08400726318358,-4.815719604492203,2.343345642089844,-7.003692626953125,-5.046844482421875,12.922584533691404,7.0,5.0,12-02,1.0030814806620258
09-19,-0.4126071929931605,1.4814567565917969,2.163898468017585,-3.897762298583984,4.541069030761719,3.8589859008789062,7.09515380859375,-4.815719604492203,2.228355407714844,-6.732124328613281,-5.305000305175781,14.50771331787108,7.0,5.0,12-03,1.2261182467142726
09-20,-0.2778873443603516,1.4814567565917969,2.5014152526855544,-4.223949432373047,4.469520568847656,4.051387786865227,6.126243591308594,-4.919418334960953,2.5093002319335938,-5.915008544921875,-5.610588073730483,14.50771331787108,7.0,5.0,12-04,1.2250154813130658
09-21,-0.2778873443603516,1.9927101135253904,3.5738067626953125,-4.851940155029297,3.6420326232910227,5.040138244628906,6.126243591308594,-3.7843170166015625,1.7014236450195312,-5.749778747558594,-4.968437194824219,14.50771331787108,7.0,5.0,12-05,1.4126423199971512
09-22,-0.40367126464844105,2.7703857421875,4.6571197509765625,-4.719333648681649,3.2819976806640625,5.040138244628906,6.952018737792969,-4.509162902832031,2.555976867675781,-5.408218383789063,-5.8870010375976705,13.630409240722654,7.0,5.0,12-06,1.4967215855916318
09-23,-0.9669437408447266,3.6419601440429688,4.615020751953131,-4.568988800048828,3.2819976806640625,5.277107238769523,6.569847106933594,-4.796005249023453,2.4635009765625,-6.890647888183607,-5.8870010375976705,15.813697814941404,7.0,5.0,12-07,1.5461287498474086
09-24,-0.10997200012207033,2.4551658630371094,3.4012107849121094,-4.568988800048828,3.2730255126953125,5.350578308105463,8.401035308837889,-3.710052490234375,1.6651229858398438,-6.890647888183607,-6.290718078613281,15.694061279296875,7.0,5.0,12-08,1.5558183987935366
09-25,0.3432216644287109,2.4458084106445312,3.357730865478516,-3.9878501892089773,3.6505279541015696,5.212615966796875,8.344875335693361,-4.013069152832031,1.6651229858398438,-5.3160781860351705,-6.723480224609375,15.85357666015625,8.0,4.0,12-09,1.7360835075378418
09-26,-0.43650817871094105,1.9496040344238281,3.357730865478516,-3.449066162109375,3.9216537475585938,4.3725547790527335,9.04764175415039,-4.013069152832031,1.6747055053710938,-6.438163757324219,-6.398132324218737,15.594367980957045,7.0,5.0,12-10,1.5986099243164082
09-27,-0.4112510681152344,1.9496040344238281,2.829792022705078,-3.2640571594238352,4.656475067138672,4.3832550048828125,8.563198089599611,-3.711380004882813,2.077949523925781,-7.9994659423828125,-5.608734130859388,15.594367980957045,7.0,5.0,12-11,1.5883127848307286
09-28,-0.4112510681152344,1.2423858642578125,3.839244842529297,-3.2725563049316335,3.9471054077148438,3.5867576599121094,8.563198089599611,-3.8498306274414213,1.0987396240234375,-8.059982299804688,-6.0735855102539205,15.594367980957045,7.0,5.0,12-12,1.3503828048706048
09-29,-0.4364109039306641,1.1743812561035156,3.885955810546875,-3.3343467712402344,2.9840202331543035,3.5867576599121094,7.8302268981933585,-2.0090789794921875,1.2403030395507812,-8.518272399902344,-5.451347351074219,15.335166931152346,7.0,5.0,12-13,1.3572796185811369
09-30,-0.7564373016357386,1.345905303955078,4.757011413574219,-3.484710693359375,2.9840202331543035,4.5437049865722585,7.209915161132804,-2.3302154541015625,-1.081878662109375,-7.2894134521484375,-5.451347351074219,14.756950378417967,6.0,6.0,12-14,1.266958713531494
10-01,0.2591705322265625,1.532745361328125,6.140659332275392,-3.484710693359375,2.12331771850586,6.1215972900390625,5.491279602050781,-2.510337829589844,-0.831787109375,-7.2894134521484375,-4.683296203613281,14.25847625732422,7.0,5.0,12-15,1.4273084004720051
10-02,0.4770774841308594,1.3277969360351562,5.558185577392578,-3.5991783142089773,3.0205612182617188,5.1056785583496085,4.515846252441406,-3.76031494140625,-0.831787109375,-7.658760070800781,-0.8086090087890625,15.105873107910154,7.0,5.0,12-16,1.5376974741617844
10-03,0.083343505859375,1.24224853515625,5.558185577392578,-4.067283630371094,3.78369140625,3.680694580078132,4.592002868652344,-3.76031494140625,-1.3588485717773438,-7.132606506347685,-0.6615371704101562,13.41107940673828,7.0,5.0,12-17,1.2808879216512026
10-04,0.15912246704101562,1.24224853515625,3.9483795166015625,-4.561481475830084,4.028106689453125,3.5347251892089773,4.955329895019531,-2.572372436523437,-1.3887405395507812,-6.2285995483398295,-2.620025634765639,13.41107940673828,7.0,5.0,12-18,1.1589810053507474
10-05,0.15912246704101562,0.3475608825683523,3.8914718627929688,-4.3835716247558665,4.001560211181655,4.853050231933602,4.955329895019531,-2.667022705078111,-0.8019943237304688,-7.964332580566406,-2.81988525390625,13.41107940673828,7.0,5.0,12-19,1.0818640391031922
10-06,0.058490753173828125,1.014739990234368,4.2685508728027335,-4.083484649658203,4.550609588623053,4.853050231933602,5.6326446533203125,-3.1951217651367188,-1.6180267333984375,-9.133026123046877,-3.086555480957045,13.401115417480467,7.0,5.0,12-20,1.055248896280924
10-07,-0.5974483489990199,0.9711189270019602,3.710025787353509,-3.632434844970703,4.550609588623053,6.019615173339852,3.596210479736328,-1.4284896850585938,-1.493408203125,-11.4249267578125,-3.086555480957045,12.982398986816404,6.0,6.0,12-21,0.8472263018290205
10-08,-1.059627532958988,0.9378700256347584,4.488872528076172,-3.632434844970703,4.6940574645996085,6.371490478515633,1.6433639526367188,-1.55029296875,-1.7338943481445312,-11.4249267578125,-1.3338012695312642,11.447120666503904,6.0,6.0,12-22,0.7373164494832342
10-09,-1.3773860931396484,0.7506752014160156,4.5149574279785165,-2.98965835571289,4.719894409179688,8.087020874023446,1.5712432861328125,-2.137413024902344,-1.7338943481445312,-9.52959442138672,-2.8299942016601705,11.15801239013672,6.0,6.0,12-23,0.8503219286600743
10-10,-1.259613037109375,0.7506752014160156,4.5149574279785165,-2.4520759582519456,4.201950073242188,9.016483306884766,1.8891830444335933,-2.137413024902344,-1.7434844970703125,-6.887748718261719,-0.9835128784179544,9.931777954101562,6.0,6.0,12-24,1.2367649078369158
10-11,-1.259613037109375,0.7506752014160156,4.134136199951172,-2.5225067138671804,3.7357330322265625,10.219505310058594,1.8891830444335933,-1.3077621459960938,-1.6380844116210938,-6.0615692138671875,-1.0032119750976562,9.931777954101562,6.0,6.0,12-25,1.405688603719076
10-12,-1.259613037109375,0.79327392578125,3.242694854736321,-2.8676071166992188,3.7553901672363352,10.539947509765623,1.8891830444335933,-1.8640060424804688,-2.3109130859375,-7.563240051269531,-0.125579833984375,9.931777954101562,6.0,6.0,12-26,1.1801090240478516
10-13,-1.3350849151611293,0.922931671142578,3.6233901977539062,-2.857894897460937,4.241436004638678,10.539947509765623,2.2695770263671733,-2.1199493408202983,-2.5116424560546875,-11.804054260253904,-0.7577133178710938,10.410308837890623,6.0,6.0,12-27,0.8851043383280445
10-14,-2.1573295593261648,0.9140701293945312,3.616268157958984,-3.255897521972649,4.241436004638678,10.348567962646484,3.7956161499023438,-1.9760894775390625,-3.0980758666992188,-9.785240173339844,-0.7577133178710938,11.526870727539062,6.0,6.0,12-28,1.1177069346110045
10-15,-0.9910354614257848,1.2811737060546875,4.5507469177246085,-3.255897521972649,4.851085662841797,10.230560302734366,3.6279678344726713,-1.6060791015625,-2.8768234252929688,-9.785240173339844,-0.09798431396484376,11.626571655273438,6.0,6.0,12-29,1.4629205067952482
10-16,-0.7980995178222656,1.3070640563964844,4.003013610839844,-3.8370208740234304,4.843524932861322,9.584720611572275,3.8707809448242174,-2.032196044921875,-2.8768234252929688,-13.138542175292967,-0.2946472167968608,11.61660003662108,6.0,6.0,12-30,1.0206979115804042
10-17,-0.8568763732910192,1.1616249084472656,4.003013610839844,-4.417247772216803,3.7943153381347727,9.103816986083984,4.039054870605497,-2.032196044921875,-2.9151611328125,-11.989608764648438,-1.1605758666992043,12.81291961669922,6.0,6.0,12-31,0.9619232813517286
10-18,-0.8568763732910192,1.1616249084472656,3.0769577026367188,-4.188323974609375,3.3998260498046875,7.882556915283202,4.039054870605497,-2.211341857910156,-2.5510025024414062,-11.260604858398438,-2.371734619140625,12.81291961669922,6.0,6.0,01-01,0.7444213231404643
10-19,-0.8568763732910192,1.5450706481933525,3.9943695068359295,-4.2164268493652335,3.806121826171875,7.626224517822266,4.039054870605497,-2.2961883544921875,-1.5023956298828125,-10.987388610839844,-1.7590179443359375,12.81291961669922,6.0,6.0,01-02,1.0171222686767587
10-20,-0.4711418151855504,0.5475845336914062,4.135189056396484,-4.091667175292969,4.058162689208984,7.626224517822266,3.5751190185547017,-1.8437576293945312,-2.4911422729492188,-9.311058044433594,-1.8972854614257808,11.008468627929688,6.0,6.0,01-03,0.9037246704101572
10-21,-0.1274642944335973,2.3530693054199148,3.389633178710937,-3.1718368530273438,4.058162689208984,6.523448944091798,3.7591094970702974,-3.192977905273424,-1.62603759765625,-13.104896545410154,-1.8972854614257808,10.230857849121081,6.0,6.0,01-04,0.5994819005330383
10-22,-1.0770320892333984,2.781013488769524,2.541889190673821,-3.1718368530273438,3.439544677734375,5.9714393615722665,1.5379104614257812,-3.4493026733398287,-1.4529037475585938,-13.104896545410154,-0.6762619018554688,9.662605285644515,6.0,6.0,01-05,0.2501807212829578
10-23,-0.4799365997314453,2.3539390563964915,2.63752365112304,-2.405780792236328,3.62540054321289,4.7129554748535165,0.9048004150390768,-2.3034896850585938,-1.4529037475585938,-12.823036193847654,-3.2915496826171875,9.622726440429688,6.0,6.0,01-06,0.09172074000040807
10-24,-0.6062545776367188,2.4223709106445312,2.63752365112304,-1.9824142456054688,3.185123443603516,2.7085647583007884,0.6156082153320312,-2.3034896850585938,-1.539154052734375,-10.387001037597669,-2.9064178466796875,10.510002136230467,6.0,6.0,01-07,0.19620513916015506
10-25,-0.1431446075439453,2.4223709106445312,3.7020645141601562,-1.2841720581054688,2.2245750427246094,3.4895248413085938,0.1591033935546875,-2.3034896850585938,-2.0704345703125,-9.632034301757812,-3.4282760620117188,10.510002136230467,6.0,6.0,01-08,0.3038407961527507
10-26,-0.1431446075439453,2.5161056518554763,2.80023193359375,-1.9638137817382808,2.6022186279296875,3.8282623291015625,0.1591033935546875,-2.334945678710937,-1.635986328125,-7.869850158691406,-4.869354248046875,10.510002136230467,6.0,6.0,01-09,0.29990243911743225
10-27,0.4041576385498047,2.1226806640625,2.4363441467285085,0.5907821655273438,3.862346649169922,3.8282623291015625,0.4838485717773438,-2.3159713745117188,-0.3891525268554688,-6.144279479980469,-4.563171386718738,11.959999084472654,8.0,4.0,01-10,1.0229872067769374
10-28,1.1114406585693324,1.9945144653320312,2.5053443908691406,0.1131744384765625,3.862346649169922,3.026233673095703,-1.6741256713867188,0.9280090332031392,0.240478515625,-6.183273315429673,-4.563171386718738,15.270004272460938,9.0,3.0,01-11,1.3859146436055534
10-29,0.87567138671875,2.3441123962402344,3.648418426513672,0.1131744384765625,4.005790710449219,4.902107238769523,-2.0169448852539205,1.3067779541015767,-0.4520721435546875,-6.183273315429673,-5.224929809570297,14.669998168945328,8.0,4.0,01-12,1.4990692138671904
10-30,1.2629966735839844,2.57510757446289,3.51800537109375,0.1131744384765625,3.9951858520507812,3.696445465087884,-3.2048110961914062,1.5150909423827983,-0.4520721435546875,-7.6949615478515625,-4.533538818359375,13.520004272460938,8.0,4.0,01-13,1.1925522486368798
10-31,1.5998153686523438,2.9001884460449148,3.51800537109375,-0.15214920043944602,3.727264404296875,3.121856689453132,-5.478019714355469,1.5150909423827983,-1.3466339111328125,-7.197570800781237,-2.3309783935546875,9.419998168945328,7.0,5.0,01-14,0.7747389475504575
11-01,1.6503162384033203,2.9001884460449148,5.049919128417969,-1.6396026611328125,3.1412582397460938,3.149322509765632,-6.344413757324219,2.291610717773424,-1.6736831665039062,-8.241096496582044,5.3434600830078125,9.419998168945328,8.0,4.0,01-15,1.2539397875467924
11-02,1.6503162384033203,2.8146286010742188,4.149806976318359,1.7335052490234304,3.7533226013183523,2.6274871826171875,-6.344413757324219,2.007537841796861,-0.33664703369140625,-9.596763610839856,7.368247985839844,9.419998168945328,9.0,3.0,01-16,1.6039188702901181
11-03,1.4229736328124964,2.68631362915039,2.4608268737792898,1.6627769470214844,3.528308868408203,2.6274871826171875,-5.450042724609388,2.329505920410156,-0.36551666259765625,-6.895225524902344,7.941108703613281,8.050003051757798,9.0,3.0,01-17,1.6665433247884085
11-04,1.5745353698730469,1.6768188476562569,2.5560760498046804,1.6804542541503975,3.528308868408203,2.096504211425774,-4.0246429443359375,1.9791259765625,0.3751373291015625,-6.992744445800781,7.941108703613281,8.559997558593762,10.0,2.0,01-18,1.7458899815877291
11-05,0.9430217742919922,1.7538032531738281,2.75601577758789,1.6804542541503975,3.7983245849609375,0.8788795471191406,-4.378662109375,-0.937469482421875,0.9522705078125,-6.992744445800781,7.950981140136719,4.699996948242188,9.0,3.0,01-19,1.0920726458231609
11-06,0.6735973358154332,2.3355560302734304,3.1124801635742188,1.2470588684082102,3.267284393310547,-0.01830673217774148,-4.835186004638666,-0.8048934936523438,0.9522705078125,-9.157882690429703,7.131187438964857,4.010002136230469,8.0,4.0,01-20,0.6594306627909345
11-07,0.7241191864013672,1.9933624267578047,3.1124801635742188,2.3437652587890696,4.131343841552727,-0.2746467590332031,-4.0339622497558585,-0.8048934936523438,1.0773162841796875,-10.142906188964844,8.711517333984375,4.44000244140625,8.0,4.0,01-21,0.9397915204366042
11-08,0.3283729553222656,1.9933624267578047,3.1994361877441406,3.3343467712402344,2.6912193298339844,-1.2267684936523438,-4.3041343688964915,-2.140098571777344,1.4524383544921875,-8.972587585449249,8.217674255371081,4.44000244140625,8.0,4.0,01-22,0.7511053085327101
11-09,0.3283729553222656,2.0361289978027344,4.5122108459472665,3.811935424804688,2.2051773071289134,-1.1077651977539062,-4.3041343688964915,-2.2537384033203125,3.7032470703125,-6.4368591308594025,6.963302612304702,4.44000244140625,8.0,4.0,01-23,1.1581567128499335
11-10,0.3957309722900391,1.1977272033691406,3.5211105346679688,3.65274429321289,2.0431861877441406,-1.1077651977539062,-4.853794097900412,0.1988677978515767,2.452789306640625,-5.1982269287109375,7.002799987792982,0.0,8.0,4.0,01-24,0.7754308382670091
11-11,0.0926189422607422,1.189167022705078,2.5908355712890625,3.467025756835937,2.0431861877441406,-0.8422775268554759,-5.9251708984375,0.5681533813476562,1.933380126953125,-4.281463623046875,7.002799987792982,0.0,8.0,4.0,01-25,0.6531879107157396
11-12,0.3873233795166016,2.249988555908203,2.8342552185058665,3.467025756835937,2.3312072753906183,-0.4211273193359446,-2.37567138671875,0.02841186523436079,2.5105209350585938,-4.281463623046875,7.358367919921875,0.0,8.0,4.0,01-26,1.1740698814392072
11-13,0.050510406494137065,2.1558990478515696,3.112468719482422,4.1215248107910165,1.089092254638679,-1.0894432067871094,-4.066421508789055,-0.07573699951171875,2.5105209350585938,-4.876396179199219,7.6546783447265625,0.0,7.0,4.0,01-27,0.8822247187296565
11-14,-0.5978107452392543,2.40399169921875,3.112468719482422,5.359722137451172,-0.3960342407226491,-0.712921142578125,-1.2099990844726705,-0.07573699951171875,2.491294860839844,-4.827629089355484,6.568214416503906,0.0,5.0,6.0,01-28,1.0096300443013495
11-15,-0.4210033416748011,2.40399169921875,2.75601577758789,5.5100746154785165,-1.1640129089355469,-2.1171913146972656,-1.4345703125,0.04735565185549717,3.7994613647460938,-7.217063903808607,6.449676513671875,0.0,6.0,5.0,01-29,0.7177278200785334
11-16,-0.4210033416748011,3.0370750427246165,3.2776679992675715,4.507499694824219,-0.7760391235351491,-2.852825164794922,-1.4345703125,-0.236724853515625,2.9145126342773438,-8.192352294921875,5.915847778320298,0.0,5.0,6.0,01-30,0.478257338205973
11-17,-0.5894050598144496,2.857421875,3.9731826782226562,4.626239776611322,-1.0561370849609375,-2.852825164794922,-1.3134384155273295,-0.13256072998045454,2.0007247924804688,-6.728065490722643,5.88613128662108,0.0,5.0,6.0,01-31,0.5559390385945658
11-18,-0.5725574493408203,2.001914978027344,3.7560882568359375,4.572906494140619,-1.0561370849609375,-2.4042320251464844,-2.2806472778320312,-0.5602645874023295,2.444160461425781,-6.708488464355455,5.88613128662108,0.0,5.0,6.0,02-01,0.4232395490010585
11-19,-0.7830619812011754,2.277061462402344,4.513542175292977,4.572906494140619,-0.7051010131835938,-1.4209709167480469,-0.4268035888671733,-0.9002227783203267,2.183502197265625,-6.708488464355455,5.72808837890625,0.0,5.0,6.0,02-02,0.6942043304443368
11-20,-0.5296192169189453,2.4416465759277344,5.491405487060554,4.546375274658203,0.5129776000976634,-1.2465782165527344,-1.547218322753892,0.02233123779295454,2.183502197265625,-5.8600006103515625,6.125,0.0,7.0,4.0,02-03,1.0116518338521334
11-21,-0.376220703125,2.3643569946289062,5.491405487060554,4.270809173583984,-0.046512603759765625,-1.1716117858886648,-2.063667297363281,0.02233123779295454,1.1542892456054688,-3.934761047363267,4.511878967285156,0.0,6.0,5.0,02-04,0.8518581390380872
11-22,-0.4438667297363246,2.3643569946289062,5.161033630371102,4.300327301025392,-2.287048339843736,-1.4556846618652344,-0.35126495361328125,-1.1613388061523438,1.2580642700195312,-3.904045104980483,7.391380310058594,0.0,5.0,6.0,02-05,0.90599282582601
11-23,-0.4438667297363246,2.8520126342773366,5.306102752685547,4.282543182373047,-1.681488037109375,-1.685565948486321,-0.35126495361328125,-2.2718276977539062,-0.130706787109375,-3.610427856445313,6.284286499023423,0.0,4.0,7.0,02-06,0.7124830881754548
11-24,-0.3007144927978516,1.8076248168945312,6.2737083435058585,4.434349060058602,-1.5278816223144531,-1.685565948486321,-0.7518692016601562,-1.86273193359375,-2.4669952392578125,-2.211631774902344,7.195785522460952,0.0,4.0,7.0,02-07,0.7420064608256046
11-25,-1.322771072387695,2.082042694091797,6.2737083435058585,4.754276275634767,-1.5278816223144531,-1.6214866638183452,-2.153076171875,-2.271720886230483,-2.5425033569335938,-1.7027130126952983,7.195785522460952,0.0,4.0,7.0,02-08,0.5969716707865421
11-26,-0.6157302856445348,2.803386688232422,4.786792755126953,4.754276275634767,-1.6448974609375,-1.0972671508789134,-3.3315277099609517,-3.2401809692382812,-2.484588623046875,-1.7027130126952983,5.605590820312528,0.0,4.0,7.0,02-09,0.3194284439086929
11-27,-0.5142593383789098,3.52325439453125,4.568523406982428,5.1788063049316415,-1.9862174987792969,-0.5824775695800781,-1.5442581176757812,-2.460289001464844,-2.484588623046875,-0.34708404541014204,5.002037048339859,0.0,4.0,7.0,02-10,0.6961205800374376
11-28,-0.462789535522461,3.2398719787597727,4.568523406982428,4.904468536376947,-1.0646705627441406,-1.2077751159667969,0.2408370971679972,-2.460289001464844,-2.648109436035156,-1.6819839477539062,4.8809738159179545,0.0,5.0,6.0,02-11,0.6924214363098162
11-29,-0.7502670288085902,3.2398719787597727,4.168609619140631,4.4164772033691415,-1.1369667053222583,-0.9968948364257884,0.03499603271485796,-1.7121963500976562,-5.657844543457031,-2.054504394531236,3.9892959594726562,0.0,5.0,6.0,02-12,0.2950480779012083
11-30,-0.7502670288085902,3.428096771240241,2.779651641845696,4.433845520019531,-0.802459716796875,-1.042865753173828,0.03499603271485796,0.6741943359375,-5.722450256347656,-1.9461746215820312,4.345642089843763,0.0,6.0,5.0,02-13,0.4526840845743842
12-01,-0.9102458953857422,2.547348022460937,2.3335952758789062,5.319484710693359,-0.7030754089355469,-1.042865753173828,-0.4215011596679688,0.9822769165039062,-4.5185546875,-1.7392501831054688,3.0180130004882812,0.0,5.0,6.0,02-14,0.4054354031880696
12-02,-1.0449657440185511,1.8453483581542969,1.4706153869628975,5.728286743164055,-0.7030754089355469,-1.2717323303222583,0.5474090576171875,0.38419342041015625,1.9126663208007808,-1.2694854736328267,3.0180130004882812,0.0,7.0,4.0,02-15,0.8847727775573727
12-03,1.684774398803711,1.0318260192871094,1.1312026977539134,5.728286743164055,-0.01902389526367898,-2.260482788085937,1.1068725585937358,0.7320861816406392,2.8201446533203125,-1.2694854736328267,2.326629638671875,0.0,8.0,3.0,02-16,1.0844025611877424
12-04,1.4074134826660156,1.5963287353515625,1.2010574340820312,5.613288879394523,0.34101104736328125,-2.0300140380859446,1.19476318359375,0.13289642333985796,2.8201446533203125,0.21294403076171875,3.2451934814453267,0.0,10.0,1.0,02-17,1.311252276102703
12-05,1.086503982543945,1.5877342224121094,1.2010574340820312,5.4629440307617045,0.5317268371582031,-1.2956695556640625,0.05263519287109375,0.13289642333985796,1.9159622192382808,1.4905624389648295,4.553512573242188,0.0,10.0,1.0,02-18,1.393322149912515
12-06,0.8243694305419922,1.5877342224121094,1.6705436706542969,4.993766784667969,0.29889297485352273,-0.3132743835449148,-0.4901046752929688,-0.26482391357421875,2.714340209960937,0.482513427734375,4.8907623291015625,0.0,8.0,3.0,02-19,1.3662266731262218
12-07,0.8243694305419922,1.7930641174316406,1.7140235900878906,5.011604309082031,0.5786705017089844,0.22007369995117188,-0.4901046752929688,0.0381927490234375,3.0047073364257812,2.4629135131835938,2.950569152832045,0.0,10.0,1.0,02-20,1.5090069770813
12-08,0.7906723022460973,2.289268493652344,2.706405639648437,5.509666442871087,0.16302871704101562,0.22007369995117188,0.0875244140625,0.30750274658204546,4.103569030761719,2.724922180175781,2.702865600585966,0.0,11.0,0.0,02-21,1.8004582722981803
12-09,1.1374740600585938,2.5212974548339844,2.0111312866210938,4.194370269775384,0.16302871704101562,-0.127838134765625,0.5064620971679688,-0.4986572265625,3.9565811157226562,3.4197769165039062,2.702865600585966,0.0,9.0,2.0,02-22,1.6655410130818702
12-10,1.6602954864501849,2.2388954162597727,2.418563842773437,4.194370269775384,0.44205474853515625,0.6778297424316406,-0.212646484375,0.2901611328125,3.0877151489257812,3.4197769165039062,3.3843688964844034,0.0,10.0,1.0,02-23,1.8001154263814303
12-11,1.5175056457519531,1.525604248046875,2.37491226196289,4.2297325134277335,1.7033119201660083,0.715801239013679,0.24353790283204546,-0.02367401123046875,3.0877151489257812,3.848907470703125,2.6828765869140625,0.0,10.0,1.0,02-24,1.8255192438761405
12-12,1.4158859252929616,0.933063507080078,2.37491226196289,4.34454345703125,1.3425369262695312,1.759857177734375,0.5978469848632812,-0.02367401123046875,3.905319213867188,3.4617080688476562,-1.830078125,0.0,9.0,2.0,02-25,1.5234934488932286
12-13,1.7456626892089844,0.933063507080078,2.6183624267578125,5.196125030517584,0.8285560607910156,2.501571655273437,1.5710372924804688,0.203582763671875,4.089653015136719,2.034164428710966,-4.367073059082031,0.0,10.0,1.0,02-26,1.4462254842122426
12-14,1.7456626892089844,1.0442771911621094,3.8207244873046804,4.80389404296875,0.4333343505859375,2.0877723693847727,1.5710372924804688,1.32037353515625,4.7642974853515625,1.5351028442382812,-6.9617919921875,0.0,10.0,1.0,02-27,1.347057024637858
12-15,1.6446304321289062,0.8292770385742188,3.0646133422851562,4.716983795166024,0.7405586242675781,2.0877723693847727,1.095916748046875,1.6338806152343608,3.9748153686523438,2.9484024047851705,-9.200912475585938,0.0,10.0,1.0,02-28,1.1279948552449557
12-16,1.4927520751953196,0.6943054199218821,1.9778480529785158,5.5523834228515705,0.7405586242675781,2.124382019042983,1.1349258422851562,1.7764358520507812,3.13348388671875,3.0462799072265625,-9.200912475585938,0.0,10.0,1.0,03-01,1.0393702189127634
12-17,2.0911731719970668,1.0625877380371094,2.575992584228516,5.5523834228515705,0.6505508422851491,1.1830787658691335,1.2984695434570312,0.9811019897460938,3.056243896484375,3.0462799072265625,-8.242843627929688,0.0,10.0,1.0,03-02,1.10458485285441
12-18,2.732803344726566,0.24754714965821026,2.602184295654297,5.3931732177734375,0.6165390014648509,-0.411479949951179,2.725410461425781,2.4552993774414062,3.056243896484375,3.7289886474609375,-10.235115051269515,0.0,9.0,2.0,03-03,1.0759661992390972
12-19,2.767566680908203,0.22178268432617188,2.602184295654297,5.422016143798828,1.48291015625,-0.30821990966797586,2.9522705078125,2.4552993774414062,3.0466232299804688,6.334068298339844,-11.730621337890609,0.0,9.0,2.0,03-04,1.2704900105794277
12-20,3.0465965270996094,0.22178268432617188,0.7068672180175781,4.898162841796869,0.20186614990234367,-0.8325347900390625,2.868049621582045,2.2848434448242188,2.88165283203125,5.9993362426757955,-10.922889709472656,0.0,9.0,2.0,03-05,0.9461444218953468
12-21,3.0465965270996094,0.15334701538085938,0.820465087890625,5.216300964355469,0.1403350830078196,-1.080810546875,2.868049621582045,2.634193420410156,4.0863800048828125,8.206184387207031,-12.140274047851562,0.0,9.0,2.0,03-06,1.1625639597574888
12-22,2.9539813995361293,0.7218322753906179,1.073577880859382,5.3683509826660165,0.3029899597167969,-1.080810546875,2.262474060058608,3.1748886108398287,4.646797180175781,11.824005126953125,-7.503509521484375,0.0,9.0,2.0,03-07,1.9787147839864088
12-23,3.0634384155273438,0.21488189697265625,0.8654518127441406,5.883804321289055,0.3029899597167969,-1.4012527465820312,1.930328369140625,2.245277404785156,5.4945831298828125,10.864906311035142,-7.503509521484375,0.0,9.0,2.0,03-08,1.8300749460856105
12-24,3.4953956604003977,-0.10221481323241476,-0.1213531494140554,5.883804321289055,-0.18305587768554688,-2.0536193847656183,2.8280181884765625,1.543792724609375,4.886383056640625,10.864906311035142,-6.871376037597656,0.0,6.0,5.0,03-09,1.680890083312989
12-26,3.3347988128662114,1.2030982971191406,-0.0951690673828054,6.4151039123535085,-0.7238044738769531,-3.109893798828132,2.249542236328125,1.990806579589844,4.886383056640625,8.249092102050781,-7.0989685058594025,0.0,7.0,4.0,03-11,1.4417490959167452
12-27,3.4278240203857417,1.2030982971191406,-0.0951690673828054,6.8515625,-0.8144035339355469,-3.9813385009765625,2.305702209472656,1.990806579589844,4.481704711914063,8.241325378417981,-13.092475891113267,0.0,7.0,4.0,03-12,0.8765530586242706
12-28,3.4278240203857417,1.1175498962402344,1.3954925537109375,7.3207359313964835,-1.9952545166015625,-4.3399505615234375,2.305702209472656,2.331329345703125,4.282951354980469,9.436424255371094,-11.306838989257828,0.0,8.0,3.0,03-13,1.164663791656493
12-29,3.4530830383300817,0.18096160888671875,1.109600067138679,6.9935302734375,-2.013336181640625,-4.3399505615234375,1.998252868652329,3.253768920898437,4.64813232421875,8.335189819335938,-16.171470642089847,0.0,8.0,3.0,03-14,0.620646794637044
12-30,3.5459480285644567,0.4123115539550781,1.4401779174804759,6.966876983642577,-2.013336181640625,-4.0836181640625,1.9403610229492188,3.443000793457017,3.6756515502929688,8.35476684570314,-16.171470642089847,0.0,8.0,3.0,03-15,0.6258891423543304
12-31,4.068136215209962,0.8665542602539062,2.051742553710937,6.966876983642577,-2.2653770446777344,-2.7461814880371023,3.2277069091796875,3.640922546386705,3.2605209350585938,8.35476684570314,-16.033203125,0.0,8.0,3.0,03-16,0.9493721326192226
