,2009,2010,2011,2012,2013,2014,2015,2016,2017,2018,2019,2020,ups,downs,avg
01-02,-30.873213724853848,10.163605499783495,-1.690615473837496,4.0029385637601385,12.112475263427608,-4.0613781280841765,-4.483462250045816,5.357145003768617,5.46349215097865,3.397354911692744,12.352997531217193,-17.93754645192389,7.0,5.0,-0.5163505920097325
01-03,-25.429187564959694,10.518514374156057,-1.690615473837496,4.0029385637601385,12.118491755014805,-2.9094818600454952,-1.556355689781959,5.839322067277802,5.46349215097865,3.4226809699505965,13.546828045075975,-29.7678703683527,7.0,5.0,-0.5367702525636094
01-04,-18.72037443434911,10.518514374156057,-1.0566356788347342,4.5545637234448,10.691148838347123,-1.5732377578926635,-1.0164154862033152,5.839322067277802,3.5723563004395573,4.592345335080209,12.187830972164075,-18.247803691440502,7.0,5.0,0.9451345468491076
01-05,-18.72037443434911,10.617282066816164,-1.0335407720815184,5.096822853450611,11.843756401545113,-2.5285220077329082,-1.0164154862033152,6.374924478465373,4.683446451213151,3.3903906774157786,11.245175383655068,-17.88114010517602,7.0,5.0,1.0059837922515322
01-06,-15.132015123453336,8.650259959816246,1.1041641235351416,5.0192373526434295,13.15092773569676,-2.5285220077329082,0.06255029718549313,7.869533604637993,5.575535125992831,2.8736933238293068,11.544011882919946,-17.88114010517602,9.0,3.0,1.6923530141579066
01-07,-9.384358623697825,7.686514111360984,3.286386109799285,4.797795105042302,13.15092773569676,-3.006470752223476,-1.0056558701861849,9.27298388609152,4.0250051752082525,2.6677078773778518,11.544011882919946,-16.702846162386948,8.0,4.0,2.194333372916872
01-08,-14.208208092836975,7.331821486770827,3.0055228486796075,4.587321149165642,8.702559880644735,-5.4902493370002015,-4.5548016589679925,9.692427327746794,4.1249163720059085,2.6677078773778518,10.033670621817336,-14.502431599520989,8.0,4.0,0.949188072990212
01-09,-5.615064847687889,7.859823103085723,3.144142364067154,4.587321149165642,9.029502609162149,-4.633204633204633,-3.2812775691465568,10.567439518700224,4.1249163720059085,3.571823952501716,11.426944716673248,-23.94335857139073,8.0,4.0,1.4032506803276623
01-10,-6.373194809530514,5.97701165104963,3.144142364067154,4.292553553347023,9.530584015618563,-6.013398447639941,-2.944886215089813,10.567439518700224,5.243980298391236,2.6034571843596024,8.908793062578377,-37.960205521870854,8.0,4.0,-0.25197694550160915
01-11,-4.755746450856741,5.97701165104963,2.368313307989766,4.0740754869249125,8.8571412222726,-4.629042116253107,-3.79486062514639,10.567439518700224,5.339557479317777,0.5992816217401087,9.357954817136546,-31.95548508949769,8.0,4.0,0.16713673528147024
01-12,-4.755746450856741,5.925924915457933,1.892937685644247,5.194326113959726,9.567523102654466,-5.6001220319080804,-3.79486062514639,10.541825783405542,4.293919078036197,1.8705379696227105,10.887711581108034,-28.85340048238282,8.0,4.0,0.5975480532995684
01-13,-4.852798471060441,5.0205992669377615,1.6132344207362623,6.26365393554245,9.567523102654466,-5.6001220319080804,-3.4772922239230946,11.81212669520674,4.0720472914903585,2.0890144516736595,10.955267178122435,-28.85340048238282,8.0,4.0,0.7174877610908078
01-14,5.9113303674687945,5.9815956453942345,0.8793461999141285,5.676219307144046,9.567523102654466,-7.3619637055886615,-2.572243479929463,11.164232404431457,4.839760440772506,2.0890144516736595,10.955267178122435,-28.7757782883405,9.0,3.0,1.529525301976425
01-15,3.1464123661795598,8.415461314226363,-0.5120852141801722,5.933742997853577,9.002651635390627,-6.767155701403303,-0.9496651966175256,13.076233154148262,4.802705780979537,2.0890144516736595,10.149734102722212,-21.32016921712098,8.0,4.0,2.255573372820985
01-16,1.6478197619062,7.171620957335388,1.108422508866956,5.933742997853577,9.271640470823842,-5.803646416303352,-1.2087919129376878,13.233981794599524,4.802705780979537,2.0890144516736595,10.810813723512288,-25.765958745428858,9.0,3.0,1.9409471144067565
01-17,6.551056673613318,7.171620957335388,1.108422508866956,5.933742997853577,9.2589323450285,-1.7246587230932326,-1.0862698704918694,13.476438661192004,4.802705780979537,1.7202402240396382,9.831750300292224,-16.75954993559282,9.0,3.0,3.3570359933352685
01-18,6.400771184790474,7.171620957335388,1.108422508866956,5.135676020143213,8.144636282651597,-0.1789636267352178,-1.0862698704918694,13.476438661192004,4.397602428541679,2.8832282249712464,9.302754366572907,-16.164352210067857,9.0,3.0,3.3826304106475438
01-19,6.400771184790474,7.171620957335388,2.912433409259465,4.3819636768666435,9.103615457182773,-0.04468093471788172,-1.0862698704918694,13.476438661192004,5.533179146690994,-0.7733427758623068,10.05409313240651,-20.185010241913094,8.0,4.0,3.0787343168949257
01-20,6.400771184790474,7.445998522980183,5.00196369021113,6.272728659889914,8.156777863117561,-0.04468093471788172,-1.0862698704918694,13.493178595739991,6.291690975279164,2.344795144447375,10.263328048769075,-20.185010241913094,9.0,3.0,3.696272636508502
01-21,7.295474983980229,8.683545076394383,6.12045581828614,6.6594220091471295,8.156777863117561,-0.04468093471788172,-1.0840452403307057,15.665697260517645,5.590306274366914,2.5080816218506,10.263328048769075,-20.185010241913094,9.0,3.0,4.135779378288999
01-22,8.706236943225438,9.07715201203159,5.6633085839194655,6.6594220091471295,8.156777863117561,-0.464903355091448,-2.470304862866028,13.50906496944955,4.771299678558613,2.5080816218506,10.263328048769075,-20.301608250950025,9.0,3.0,3.83982127176346
01-23,8.645352746291817,9.26019161989567,5.626700571138773,6.6594220091471295,8.57596074234131,-0.3937040166959431,-0.5995538766393966,13.995366030860875,4.771299678558613,2.3520238901850234,9.916745024995985,-24.60983087838397,9.0,3.0,3.683331128474657
01-24,4.195583254562433,9.624060164752848,5.626700571138773,6.912775625864767,7.113570453935371,1.4368615688190547,-1.0457928078420164,14.260069592050481,3.338592079910485,2.4336333412637403,10.676844618754435,-16.236602087634303,10.0,2.0,4.028024697964674
01-25,4.195583254562433,9.624060164752848,5.80132251717909,5.530210884036409,7.7318685184308125,3.720572520901503,-0.5518800046098772,14.260069592050481,4.050697143039436,-1.05084780245851,10.643177081827574,-15.199757416647214,9.0,3.0,4.062923037755414
01-26,4.195583254562433,9.774439540683694,4.122494171054042,4.030177807433618,9.567678672171695,4.287434223248956,-0.5518800046098772,9.6050335608226,3.7289966264774437,0.8453861216139046,9.504443473214039,-15.199757416647214,10.0,2.0,3.6591691691687775
01-27,3.0283942230803516,9.902960134940988,3.3161278065975917,3.453375242636552,10.847159972878003,4.287434223248956,0.8356966171537954,9.179054446260311,4.48692544625856,5.3817922757483005,10.23477950147394,-15.199757416647214,11.0,1.0,4.146161872802511
01-28,1.7868143563303411,12.218964378631279,4.475520275554514,2.268464718806263,10.847159972878003,3.8798305822861434,1.9580003830960664,8.647883129037954,5.434217894798858,4.899725358337569,10.23477950147394,-14.685520244037994,11.0,1.0,4.330486692266079
01-29,6.149252137141452,13.48451354701282,2.67314634724974,3.2838597544637267,9.310046866471069,3.5763179224825175,0.7717777059580475,5.765252131960121,5.434217894798858,4.899725358337569,10.179749065409686,-11.36298315406832,11.0,1.0,4.513739631434773
01-30,6.179600832846558,13.584447011678446,3.143888738762806,3.2838597544637267,9.77731206792232,0.7880131746155026,0.504492658496972,6.804999392322975,5.434217894798858,4.9430867843834685,10.669345419399617,-8.641749382454298,11.0,1.0,4.705959528936412
01-31,6.281250715255737,14.887500210000107,3.143888738762806,2.745831753312652,9.437614415774078,2.1322337049995648,-0.3791495756073911,7.520149250818656,5.135201563014218,5.6957917509370635,10.144134765362397,-12.857844512266269,10.0,2.0,4.490550231696967
02-01,7.323859068393397,14.887500210000107,1.8742449117188449,1.761466210041571,5.705000690075232,6.981676049639728,-0.8571443103608629,7.520149250818656,3.004067709147036,6.371971603352426,9.409406129148328,-12.709095988597408,10.0,2.0,4.272758461114755
02-02,7.323859068393397,13.642884429826019,2.1542173027362908,2.3668686217741897,6.534195284635416,6.981676049639728,-0.8571443103608629,8.786293045239702,3.25857667712303,9.023427767081412,8.912610862679058,-16.159712185948884,10.0,2.0,4.330646051068208
02-03,7.169343791922157,14.994093749498957,3.6432371750643933,1.4188325986157575,5.089982407733523,6.981676049639728,-0.7460336836557653,6.755889902532416,4.516627430295994,13.263289674697928,8.912610862679058,-16.159712185948884,10.0,2.0,4.653319814422939
02-04,1.6870666113285395,18.086348368671604,1.9963736144798798,1.834862385321101,5.089982407733523,5.906402821870824,-0.3332850416822849,8.845428563066838,5.440249113452944,12.791552430561815,8.912610862679058,-15.872383428740466,10.0,2.0,4.532100725728616
02-05,-1.3818666880951305,18.383037572814327,1.4550519610905568,1.7988244318478213,4.471912669573214,6.174702100301008,-1.5436047395731671,10.686920507799794,5.415866424703536,12.791552430561815,7.799674181292991,-15.729017685288868,9.0,3.0,4.193587763918991
02-06,-7.041278848482753,17.835431208825714,1.4550519610905568,1.7988244318478213,3.041964186724294,6.1138646740006815,-2.4199974916893114,8.080551813145606,5.415866424703536,12.36272316637187,5.673166929881978,-14.173300944106069,9.0,3.0,3.1785722926928277
02-07,-2.2627492822804016,18.065267422717703,1.4550519610905568,1.9089591120886051,4.012350809189502,5.351818805296902,-1.4827810699544195,8.449289391258073,6.2153443006408295,11.550637368290325,5.785049615741767,-9.1266077090129,9.0,3.0,4.160135893755545
02-08,-3.0282453742089595,18.065267422717703,0.697625048624656,2.4752516797887063,5.319150399635285,6.225972682887423,-1.2245554145738058,8.449289391258073,5.487017039079226,13.828891201152961,6.921877255488344,-9.121749014925962,9.0,3.0,4.507982693076968
02-09,-3.0282453742089595,17.435904640752454,2.960781022614124,2.058664748916609,6.641737094677375,5.639876894264081,-1.2245554145738058,6.719309523028443,5.667391062974543,12.919973512617776,7.595857528436582,-8.936970580682319,9.0,3.0,4.537477054901409
02-10,1.0888047004755317,18.60788150116041,3.3871868794016047,2.2484287573626793,7.203539282874724,5.639876894264081,-1.3517787208691896,5.586662366191899,4.482761174236852,11.35436981799088,7.495002101310337,-8.936970580682319,10.0,2.0,4.7338136811431255
02-11,1.7749520288414615,12.349676099219884,3.2081365882532085,2.979827219556568,7.203539282874724,5.014873914031706,-1.1757256031346333,6.726908370761381,5.461708203241326,11.325821662844325,7.495002101310337,-9.172154017016062,10.0,2.0,4.432713820898685
02-12,2.2457076940413807,11.74013396225981,5.015429140563573,4.725558464533751,6.70796622217229,5.077200048476566,-1.2324202370259612,4.707661034347821,6.188550868850952,11.325821662844325,6.9310556461404325,-9.226816559840367,10.0,2.0,4.5171539956137154
02-13,3.473368352498728,11.545667955712705,5.543831441461582,4.725558464533751,5.340929495807977,4.051238077792553,-2.818914822835595,7.481550524335938,6.188550868850952,3.6822332248946448,6.075828306901753,-11.601991820017224,10.0,2.0,3.6406541724948136
02-14,6.666666666666668,12.060536002703595,5.543831441461582,4.889128688346656,4.188481170587973,3.183863728296853,-3.934376025374592,7.51626088674824,6.944787952056551,2.8087426580981023,8.660924146890293,-3.6329687967391897,10.0,2.0,4.574656543311893
02-15,9.061386270113267,12.060536002703595,5.620564444929348,3.834862665298882,4.046970055142536,3.1883183880790282,-4.316548034967388,7.51626088674824,7.094813938736127,2.4502470981810682,8.426156377230122,-3.6697264074973774,10.0,2.0,4.60948680705812
02-16,9.061386270113267,12.060536002703595,6.054243595665422,3.7233087816014487,4.188945700604871,3.619096526667667,-4.316548034967388,7.51626088674824,7.596520388154696,1.7860942983372323,8.710890864883519,-4.705668803608672,10.0,2.0,4.6079222064086585
02-17,9.061386270113267,14.318394239353587,5.605342990735704,3.1003461360250686,3.1007773262156952,3.619096526667667,-4.316548034967388,7.466260689355094,7.312180591483306,2.6512757458418057,9.981379975642227,-4.705668803608672,10.0,2.0,4.766185304404781
02-18,10.409285781856488,11.942377510020227,6.322165506010946,3.969266950109312,3.1007773262156952,3.619096526667667,-6.057680287928213,3.5526275634765625,6.995013496037947,1.6205704835400916,9.981379975642227,-4.705668803608672,10.0,2.0,4.229101002336689
02-19,10.524605387349306,12.708952300820716,7.426497346935627,3.7227192824871316,3.1007773262156952,3.973814111211359,-2.7946810317656543,5.165909303225303,7.284028381159064,1.6205704835400916,9.981379975642227,-7.405678156120451,10.0,2.0,4.609074559225034
02-20,12.799234722779682,12.178306942354492,6.552317886247477,3.7227192824871316,5.989205229757987,2.7444538432502474,-3.4552831708985585,3.8943854102207096,7.284028381159064,1.6205704835400916,9.504422888291607,-8.281515890402963,10.0,2.0,4.546070500732248
02-21,16.09195101305059,10.070585363051453,6.552317886247477,3.7227192824871316,6.715488522081128,3.146536621723656,-5.190470862010146,3.6527191583028737,7.284028381159064,1.0535547141526842,9.4246779721987,-4.840376291089858,10.0,2.0,4.806977646779561
02-22,16.756411337710535,10.070585363051453,6.552317886247477,4.340691206702179,5.796326052593157,3.013409548341472,-5.023769010462647,3.6527191583028737,8.76028665301206,1.7884256315565,11.27629453125224,-3.4577506728842677,10.0,2.0,5.293828973785252
02-23,16.756411337710535,10.447055592256431,6.9133385444006255,1.0424448260719772,7.196296685874693,3.1738876411045065,-5.023769010462647,3.560077949877825,9.510438978445448,1.9504365608466396,10.888833490558069,-4.148386847989081,10.0,2.0,5.188922145724585
02-24,13.652199897388618,7.035782892816969,7.432691539892724,0.6717682577468287,7.722282467324071,3.1738876411045065,-5.071322749633857,2.8267078168495874,9.877592188668977,1.0680071208789388,10.904465776050772,-4.148386847989081,10.0,2.0,4.595473000091588
02-25,11.30378490497068,4.9082784698732995,8.057414515737143,1.0410882390027294,7.722282467324071,2.827925372865407,-4.5238071017795365,2.5432649088253334,9.699320652764603,2.345095015754913,10.904465776050772,-1.9835989118326782,10.0,2.0,4.5704595257963945
02-26,11.830360075301336,8.610059490638367,8.072525255260741,0.9121401104472844,7.084661822284832,2.6386725447703645,-4.9081733633749804,4.206402472023395,10.124289986215166,2.345095015754913,11.123783264150717,0.7490290190423088,11.0,1.0,5.232403807709537
02-27,9.745901163636024,7.537332089796822,6.665379579004071,0.9121401104472844,4.574691923653167,1.6218565265870284,-4.4560756614274055,4.372084414279676,10.124289986215166,3.7220300328623694,10.256633927336836,4.770759147823653,11.0,1.0,4.987251936684556
02-28,15.340181996318252,8.598879937677786,6.665379579004071,1.8056612037627875,4.514078555479748,1.9703730830439812,-4.707922779857847,4.060917183684,10.088090181336902,4.6593482289417025,10.448939504071886,4.928979384917652,11.0,1.0,5.697742171531742
02-29,0.0,0.0,0.0,1.4747077095907923,0.0,0.0,0.0,4.060917183684,0.0,0.0,0.0,0.35593566911958513,3.0,0.0,0.4909633801995314
03-01,12.56215083176395,8.598879937677786,8.041080172059772,0.8428559057573412,4.483741232686914,2.477975945141246,-3.373228831306774,3.0326718411099933,7.839575083486083,5.6103519611443815,10.629437206364676,-1.1325948865922737,10.0,2.0,4.967741366607758
03-02,12.56215083176395,7.895967450300341,9.60549037216091,-1.662524176271811,5.150972913819631,2.1713042449047317,-3.373228831306774,4.147872865172388,8.03105995641536,3.9520213482497115,10.063730225481756,-1.1325948865922737,9.0,3.0,4.784351859508161
03-03,13.423928494593644,6.221909249192321,7.054105036384742,-3.1117061140806785,5.770243071682936,2.1713042449047317,-2.424992249635964,2.2996027600228848,7.975307463317182,1.8458164781836173,10.270220304497997,-0.3319702922903027,9.0,3.0,4.263647370564426
03-04,13.346349497927086,2.8669491405807968,9.410430299596486,-4.036660967433422,5.770243071682936,1.5423761577189619,-0.6287435483295417,1.8087874654767442,8.624229146867089,3.3568519979853964,10.270220304497997,-4.860436659605901,9.0,3.0,3.955882992247052
03-05,15.791191558977168,2.1343707928343645,8.134614504300632,-4.036660967433422,5.06440625483821,0.07578516097873472,0.26073340015682545,-0.4244027696927671,8.057848021123446,3.3568519979853964,10.393850993556168,-2.443353061018319,9.0,3.0,3.8637696572172033
03-06,17.58064762238532,-0.34722071108152536,10.257372029733569,-1.7160707665042056,3.87130747485113,0.5896573831983982,2.116976761372209,-0.6245863398048173,8.057848021123446,2.9613045171577768,11.935853714601151,-3.024485338193863,8.0,4.0,4.304883697403216
03-07,19.065901945562704,-0.4967729043159994,10.257372029733569,-4.088550582399426,4.45067623814565,1.350733803967241,2.889992644196582,-0.6245863398048173,8.27661358729537,3.3765692946355355,12.216559742491516,2.1980201821125167,9.0,3.0,4.906044136801704
03-08,18.492272903237687,-0.4967729043159994,6.575239583128044,-7.183097867246543,3.1721018747438348,0.37988149107195024,1.955390768712209,-0.7176091900695598,7.548084969944051,3.8584872857555865,11.119957177121346,2.8349838234335456,9.0,3.0,3.961576659626347
03-09,18.492272903237687,0.1987034766333675,6.982450737386932,-5.893986276294969,2.8777033796181914,0.6967572066984533,1.955390768712209,-1.336005371256946,7.904325021838633,3.34006948015834,10.098701423035324,2.8349838234335456,10.0,2.0,4.012613881100064
03-10,15.238406282452257,-3.5732630723001804,8.54912726453159,-5.949789113371309,2.225758916526257,0.6967572066984533,2.6122809477372484,-0.05310090874158645,7.303229949077197,3.3844192594306786,9.836504403640614,0.4022658592169737,9.0,3.0,3.3893830829081826
03-11,15.786086924461856,-4.262468522094991,6.633052545677794,-4.995101420509592,2.225758916526257,1.4541035039168906,3.208063708358989,-1.323703505349196,7.741317769454542,3.5179059277535467,9.836504403640614,5.104876586637797,9.0,3.0,3.743866403206209
03-12,12.361741266604849,-4.744624956012792,5.964638861499318,-4.995101420509592,2.2080904195776108,1.4843922710831738,2.09488113680331,1.4925365680049474,7.962584768255423,3.5179059277535467,9.624391730262357,10.172228741583274,10.0,2.0,3.9286387762421193
03-13,10.625815503436833,-4.629873081238683,7.030349118065637,-6.581783860071671,2.261082433309173,2.68506779768125,2.1705450013626453,1.4538318697253128,7.962584768255423,3.8154920582613636,9.6067190455105,8.2873446345647,10.0,2.0,3.7239312740718726
03-14,13.468221418156862,-3.707545544439492,7.030349118065637,-6.679725559988973,2.134413677516953,2.242757653355864,0.2813823694559089,1.4538318697253128,8.226406836025381,4.272501646859485,8.914659858746784,19.780926695275085,10.0,2.0,4.7848483365629
03-15,10.846905019383497,-3.707545544439492,8.413371019160916,-7.500975153441434,0.9249385387280776,1.5011340554670312,1.0701029861718634,0.2488471719827443,7.374986893982795,3.988088959568996,8.748779975842401,21.91915160321671,10.0,2.0,4.485648793802008
03-16,10.846905019383497,-4.589060077180119,9.104881969708561,-8.160444612345056,1.611474814486959,1.516070366707154,1.0701029861718634,-0.26195753979551223,8.520496778292157,4.177296161444732,8.139948908060662,21.91915160321671,9.0,3.0,4.4912388648459665
03-17,8.925086678741973,-5.003889863744986,8.791842506868178,-7.651353062838619,1.2617719543215131,1.516070366707154,1.3492597724694335,-1.0859634014661654,8.640512834192924,3.5901817187568623,7.976928222898024,14.304758477982244,9.0,3.0,3.5512671837407117
03-18,2.9885051711383284,-0.7008730261567915,8.098792991211297,-9.464610631233338,1.2617719543215131,0.7428712410108168,0.8373346545471796,0.3240860798263734,7.925247817694474,4.257130735392929,7.976928222898024,13.30645042756399,10.0,2.0,3.1294696365179
03-19,3.0957787318142977,0.12543712065965745,8.25842644456651,-9.464610631233338,0.8174854820161677,2.2751274276664573,0.20385928678381784,-0.15531337544608897,8.434308455668246,4.257130735392929,8.074533026207893,11.23081264456228,10.0,2.0,3.0960812790549017
03-20,8.330738422031454,-1.6128961373993955,6.005367071301258,-9.083622801318796,1.0307479652116271,2.898322243461409,1.0485163812887024,-0.2201763644101636,8.434308455668246,4.44870194327891,8.422169859987067,16.971815063254393,9.0,3.0,3.889499341862892
03-21,6.23859131567812,0.40150527864140734,6.005367071301258,-7.124532742857037,0.8110065043546321,2.631578947368421,0.8756862652229235,-0.2201763644101636,9.69298351499776,2.9571093652057794,6.82439830195955,25.10930620708125,10.0,2.0,4.516901972045325
03-22,6.067072614043468,0.40150527864140734,6.158862529271701,-7.441308800968352,1.0729935128001382,3.0655372121349327,1.1693171299297558,-1.1138461605350714,10.908884105112994,5.184863353073375,8.945011889357387,25.90925034462935,10.0,2.0,5.027345250624257
03-23,6.067072614043468,-0.2509467820514514,5.753322317174944,-8.104340095368933,1.0251004105417787,2.9922862057268538,1.1693171299297558,-1.0213328133311514,10.622029392389836,7.553807714873612,9.687175048583645,25.90925034462935,9.0,3.0,5.116895123928477
03-24,7.195118164321142,1.6084427618062431,3.949169887593592,-8.968247036154413,-0.3944087944024352,2.9922862057268538,0.9978163326140086,-0.2461171618097794,10.75130563959344,6.0796413924555095,10.77434936661301,22.263419396604327,9.0,3.0,4.750231346246792
03-25,5.905627752881905,-0.9880423223115756,3.1256143228564977,-6.475370723774807,-0.3944087944024352,3.0376221285423086,1.4705861289678044,-1.5825674908009826,10.364997967250194,6.069645783579652,10.77434936661301,19.58266381665396,8.0,4.0,4.2408931613379615
03-26,-0.12330738970626713,-2.89321004965028,3.872611455415424,-6.475370723774807,-1.5597037748679987,4.449119402950863,2.022400842794137,-1.0582006935473278,10.584664997560447,6.069645783579652,9.980359503227596,15.167552333508134,7.0,5.0,3.3363801406241307
03-27,1.984737483599736,-4.1315781442742585,3.359677864637965,-6.223340384877647,-0.9950273373087034,5.096113772222285,0.8941171683517157,-0.7591306338444335,10.584664997560447,6.208073265582211,12.234888383223913,17.238951853671466,8.0,4.0,3.7910123573787247
03-28,6.268926911348735,-5.183415253334114,3.359677864637965,-5.775895416480273,-0.614032410738761,4.402806137242209,0.7014820767508526,-0.7591306338444335,10.059519781757832,5.233802408005189,12.901899576591134,10.660618594856428,8.0,4.0,3.4380216363993967
03-29,7.140716883782818,-5.183415253334114,3.5177842548893343,-4.790072993210873,0.3846781103140324,1.5343346066417691,0.8405932733298377,-1.0164705392682143,9.630497459791973,4.0892608171060045,13.658498347934566,9.996413555829552,9.0,3.0,3.3169015436505567
03-30,7.140716883782818,-5.6353078329973565,2.8772777770850277,-5.794861837885316,-0.21108663113977968,0.7507507679512725,0.8405932733298377,-1.2083846642796734,10.262697908851141,6.27797847879696,12.130855379718904,9.996413555829552,8.0,4.0,3.1189702549202827
03-31,6.570664029684372,-1.9430052581552004,0.5357151777565615,-5.0219612788916566,-1.6413951760311092,0.7507507679512725,1.1207930105052633,-0.2685507954766079,9.889986348527591,6.606480212316768,11.437266360775766,10.838407864809644,8.0,4.0,3.2395959386477213
04-01,8.639432066326188,-0.9455633063763534,1.3022390159519452,-5.830284218061202,-1.6413951760311092,-0.6756825644846879,1.7443613379306315,-3.0085928566289883,11.29032643592278,6.774808535118227,11.437266360775766,7.712231094031025,7.0,5.0,3.066595560372852
04-02,3.703709933204695,-1.7183845604072796,0.8914711203012132,-5.830284218061202,-2.1052637310217106,-1.5733750976325689,2.214308245014855,-3.2312940107458283,11.362322378849635,6.774808535118227,11.840158856009904,8.74145693917904,7.0,5.0,2.5891361991507487
04-03,1.3217255311069345,1.2450199250491774,-1.0871698663800302,-6.330569604680796,1.134581105762796,-0.4065601990328457,1.3847761341795242,-3.39361108181556,11.362322378849635,5.04665198434227,10.975811684905503,10.644152197042636,8.0,4.0,2.658094182444104
04-04,0.3941815340195917,2.4354283918944866,-1.0871698663800302,-4.6009923601913245,0.6486724064573247,-0.6093868519169843,2.342065365218157,-3.39361108181556,11.02608943331069,5.429054915393827,9.984177058373733,6.1737566729672935,8.0,4.0,2.3951888014442666
04-05,0.8750782162595397,2.4354283918944866,-1.9173773824420763,-3.9602060009486015,1.8375905640117425,1.3719337207726794,2.2064442899965924,-1.8605846103555637,11.770846724735474,4.761901317171748,9.511525737985384,5.75250333478246,9.0,3.0,2.732090358655322
04-06,0.8750782162595397,2.2386219268227543,-1.716997785713834,-2.9076446694244047,1.6567854210174384,0.9838073692769004,2.2064442899965924,-1.9346449110243056,10.959858642715131,6.684939458773112,8.787346378540443,5.75250333478246,9.0,3.0,2.798841472668485
04-07,4.345198108720517,1.4571502300076755,-0.9112501756022612,-3.280566871431666,0.3710231274452648,0.9838073692769004,2.623047388183043,-1.3097577210023796,12.20748857393732,4.6153829964149535,8.726241921761439,5.415770944903072,9.0,3.0,2.9369613243844896
04-08,1.6065552198504145,0.8144171454259348,0.5725585524003682,-3.6562017343873854,0.3710231274452648,0.3329820216729095,2.834378074566064,0.3349679554628949,11.508804316082596,5.008450860459309,8.726241921761439,2.6918378455199696,11.0,1.0,2.5955012755216478
04-09,-1.7927686275400745,-2.0448870973234903,2.436647209727374,-3.6562017343873854,0.2826852503985002,0.6598716847517717,3.0019896722141515,0.4119460524807662,11.620690356725936,5.008450860459309,9.42132120842552,0.3066931558870387,9.0,3.0,2.1380364993182845
04-10,-2.5921236867320867,-5.153841850085137,2.035625195578834,-2.105663167645935,-3.488793051017232,1.3807567265029697,3.068699727531608,1.213123455317915,11.620690356725936,2.0287385686049766,8.989230333469703,4.834964602589769,8.0,4.0,1.8192839342367764
04-11,-1.9869587328145943,-6.271049907687094,2.035625195578834,-5.417563856635726,-4.452118512241678,2.515436337247073,2.6848726477545553,1.213123455317915,11.586209001212284,0.9129951536544514,8.142062166976878,4.737531507467193,8.0,4.0,1.3083470379858406
04-12,-1.8920495158091175,-6.271049907687094,3.34703284275885,-5.375094187321974,-3.775304807033223,1.2272690281723484,1.5826170540947182,0.9194243942663894,12.197646135815349,-0.0755691427181428,7.130831207062966,3.3887142576485374,7.0,5.0,1.033705613270801
04-13,-1.8920495158091175,-6.6338464969385065,2.361276603985617,-6.645637561476357,-0.9660932799859818,1.8074965495922144,1.5826170540947182,2.4332380373015896,12.67281061435082,-0.6183550585128541,9.226828344795713,3.3887142576485374,7.0,5.0,1.3930832957538664
04-14,0.7444220408558534,-8.858774404793477,1.857345248112852,-7.295370686292522,-0.7823877589860901,1.8074965495922144,1.7843254703412452,-2.2149797371233717,11.326604103413056,-1.7258100419818474,7.841327274094183,1.8123520427534017,7.0,5.0,0.5247125083321249
04-15,1.8203837705922696,-9.318525140025676,1.58699325776187,-6.978121323616496,-0.7823877589860901,0.5422512632342029,1.9912862532740856,-6.2332461407381965,10.536072495234167,-2.3995647351651708,7.841327274094183,6.198883144547177,7.0,5.0,0.400446030017194
04-16,9.382497034919096,-9.199787566867784,3.9325819862483327,-6.978121323616496,-1.637557388775822,-0.1357321227551117,2.2797843654924903,-5.205436233222186,11.11239345242959,-2.3995647351651708,8.067758545398682,5.449315521780603,6.0,6.0,1.2223442946555183
04-17,12.192958649314965,-12.326613968401409,4.707918370171355,-7.431501067972372,0.7218941111359488,0.6566220375754215,1.4119885506419003,-3.7930083243137034,11.11239345242959,-4.375677357290335,11.394492600397598,5.775741472397036,8.0,4.0,1.670600710507167
04-18,14.628369757460046,-13.484924683431563,4.707918370171355,-7.817140032383767,1.159209201704971,-0.10446156184551417,1.5054086209525408,-3.7930083243137034,10.767284685945492,-3.1280353300797383,12.972492945540333,4.500804397605236,7.0,5.0,1.8261598372771408
04-19,14.628369757460046,-13.484924683431563,3.593394914841503,-6.836438257834831,1.5549578552660923,0.636943107049635,1.5054086209525408,-3.5583885350647835,10.336449338446178,-1.5206744914397263,12.344086869134482,4.500804397605236,8.0,4.0,1.974999074415401
04-20,14.628369757460046,-13.114751783436567,1.9984644451015663,-7.522037629728666,0.8757849361663772,0.636943107049635,1.5054086209525408,-3.975489277677736,10.024278394134583,-1.1351523015272762,12.344086869134482,4.500804397605236,8.0,4.0,1.7305591279361856
04-21,12.318625380580164,-13.432051486108026,1.8532694265862688,-4.7894932419888265,0.6093192782018421,0.636943107049635,1.6465410530394746,0.6950530032269457,10.211838227324336,-0.8120548840354812,11.826129595337632,5.233077723415434,9.0,3.0,2.16643309855245
04-22,13.837587617253542,-14.566719026649823,3.9819734781102953,-3.2933553825212507,0.6093192782018421,-0.1629397228126122,1.5191815648970046,-0.6441861159856875,10.08268097689191,-0.38302012824105697,11.826129595337632,5.494310206912742,7.0,5.0,2.358413528449544
04-23,11.263003695891678,-13.699718817782829,3.837473516521551,-3.2933553825212507,-0.6451623929637292,-0.6892404842619441,1.3325008255509596,-0.3810917399787633,10.299000766959978,-0.38302012824105697,10.911448322030344,8.654435480552975,6.0,6.0,2.2671894718131598
04-24,8.657619026028996,-15.425812260298024,5.6304215251184,-2.8555112028503986,-1.1095184682065802,-0.5823493841118331,0.8615276249153511,-0.35559917055282303,10.299000766959978,0.8617912299218883,12.690593996117213,9.665104271368675,7.0,5.0,2.3614389962009037
04-25,7.1560249778305876,-11.918982998296707,5.6304215251184,-4.800000871930802,0.7947735277791546,-1.0840127078470196,2.3483702403793103,-0.35559917055282303,9.806389585076838,1.4702764715333767,12.165960667566189,2.2318711773934585,8.0,4.0,1.9537910353374963
04-26,6.69753667113049,-11.918982998296707,4.301270251275674,-5.907502855833943,2.6537822420684685,-0.9963823722741312,1.024586578266376,-1.5113061642001941,9.12839473549917,0.8503433632946009,10.1379142764686,0.309925151133691,8.0,4.0,1.2307982398776742
04-27,6.69753667113049,-10.880297647438157,4.066983949699924,-10.197102917031089,4.238755701174036,-0.8745504127315883,1.024586578266376,-1.8728516507982582,10.557379735481977,1.7244999116321955,10.276456864158344,0.309925151133691,8.0,4.0,1.2559434945564951
04-28,7.407411768057939,-10.015368226738408,3.412651734670455,-10.18798661100667,4.716821606592354,-0.8745504127315883,1.0403528715308443,0.6266449357850536,9.060022336930986,2.715638948888376,9.920700723884943,1.5496325115300602,9.0,3.0,1.6143310156161954
04-29,5.027752453667055,-11.445326869384026,1.9076125574666032,-10.725165200879108,4.716821606592354,-1.2062772247271991,1.356253922758306,5.236904124762867,9.572411236574576,2.278428405332953,9.920700723884943,3.2348806575872797,9.0,3.0,1.656249699469717
04-30,5.136039268874928,-10.104888072449777,1.0488809983060714,-10.725165200879108,3.4257215927690834,-1.750673098877802,2.5282672780086424,4.427316286351345,10.395594123428644,2.278428405332953,9.985437598678061,6.846450914418976,9.0,3.0,1.9576175078301683
05-01,7.893154816490402,-7.165639678393406,0.7887289557658451,-11.050169972156509,6.490219983020341,-1.2660195728757608,0.3267959500335226,4.212893856896985,10.395594123428644,2.2366214285355457,9.038864205693686,6.4268719879344856,9.0,3.0,2.360659673697816
05-02,6.0006054529681245,-7.350043857765431,0.7887289557658451,-11.172272431139671,6.789610977630452,-0.21039883937808626,-0.03128004096535029,4.212893856896985,9.86739275955224,3.321496110435101,8.435299694675855,8.167827529369657,8.0,4.0,2.40165501400381
05-03,10.485714503696997,-7.350043857765431,1.6338008110512163,-10.01204186033233,6.308562163576852,0.1197273741695098,-0.03128004096535029,5.5839501053023755,9.229381201250488,3.95277737054256,7.378782809903813,9.40627974873342,9.0,3.0,3.058800860763677
05-04,10.485714503696997,-6.981317923506881,1.1995450545014334,-8.219181871919018,5.653711245326947,-0.5877911056780765,-0.03128004096535029,5.7737931685381625,8.9902727139564,1.1040827196791527,6.609294232708173,9.40627974873342,8.0,4.0,2.78359353708928
05-05,10.514286586216516,-4.525332413903097,2.487659280453632,-7.567243036646055,5.5742696425587495,-0.5877911056780765,1.4701261290242218,4.829830704189695,8.77602981743069,1.9442057795405003,6.88901661161249,10.466500260881274,9.0,3.0,3.3559631879733782
05-06,11.667604330737865,-3.8413223925688214,0.7166429187051172,-6.519576008276914,5.5742696425587495,-0.03014962007681986,1.8662589746236624,4.542616338952473,8.056603409456962,1.9234830289518157,6.88901661161249,10.559533844245935,9.0,3.0,3.45041508991021
05-07,11.383039469199094,-1.5609237483144853,2.4094151913867927,-6.519576008276914,5.456385348915976,-2.2297472010692174,1.45471656614475,3.855814605527641,8.413802319661228,1.9234830289518157,7.739008866723932,11.66666677316296,9.0,3.0,3.666007101001132
05-08,12.451142162117614,-4.719328378269414,1.5451285086481568,-6.917112795158482,5.632630191284458,-0.9840936660896588,1.2507805636519465,4.6699873692195455,8.413802319661228,3.022617340237685,8.33869628151068,9.858330158416264,9.0,3.0,3.5468816712691686
05-09,12.668535154044125,-4.771367020028581,1.5451285086481568,-5.935717196950482,6.075868807199647,-1.8195638902865097,0.031706495217345435,4.6699873692195455,8.44710099933301,3.4983937325075565,8.427877955656154,10.044002975063592,9.0,3.0,3.57349615746863
05-10,12.986284492289196,-4.771367020028581,1.2624800693388034,-6.904807508140202,5.281686357173871,-5.915582119634487,-0.09524027506511544,4.009964007881363,7.614263583087001,2.0776758082394915,7.76226445576946,10.286921891482056,8.0,4.0,2.799545311866072
05-11,12.986284492289196,-4.845916667259139,2.9157246830503945,-7.251909800875541,6.026523704850397,-6.015394913145687,-0.09524027506511544,3.890418458056846,7.798014959613477,0.8934186247362711,9.40486618228501,10.286921891482056,8.0,4.0,2.999475945001514
05-12,12.790371545966675,-1.5223581724805713,1.0746600395652437,-7.343593499599358,4.633732854089522,-6.015394913145687,-0.8095211452907987,3.5172779806814933,7.858259391059008,1.4564614811798993,8.508393045561585,12.278483587981265,8.0,4.0,3.0355643496306897
05-13,16.403435996853112,1.0070264578285224,0.796507059722028,-6.038507495590488,4.633732854089522,-5.214386351975003,-2.9939205475379325,3.7273243793470607,6.832794025450468,1.4356598354875971,8.508393045561585,13.525839194731715,9.0,3.0,3.5519915378306823
05-14,14.808657394815766,6.119162118047647,-0.6849253924053859,-6.038507495590488,4.088588576976918,-4.687251639530452,-5.603237383761387,3.61145879908584,6.166250801407012,1.4356598354875971,8.362395556844621,13.79049188058447,8.0,4.0,3.44739525433018
05-15,13.049646472254546,4.824561789730574,-2.817169057417737,-4.84296510282368,2.8625333892264293,-3.9055170975332407,-6.223518757987306,2.9101852224027813,6.166250801407012,2.776316678574256,7.87504104244395,15.310804094906485,8.0,4.0,3.1655141229320054
05-16,11.352591026942212,4.648478395484048,-2.817169057417737,-2.951209326394633,2.3645132280918304,-5.134318153029208,-5.393265595820536,2.9101852224027813,5.984552338375701,2.633495146594842,8.338017054813413,11.774672737437015,8.0,4.0,2.8092119181233106
05-17,10.456380830649822,4.648478395484048,-1.0297236579114026,1.0069143551158302,2.427768751740957,-6.386709431718546,1.039931918432284,5.418965916551344,6.5000013871626425,9.339164691785443,8.932290254550882,12.339025615655752,10.0,2.0,4.557707418958255
05-18,10.456380830649822,6.753010800868488,-3.883680325103916,1.545163998355932,2.2777839189243103,-7.277405568585812,1.039931918432284,5.202818589465419,0.2065340468808743,8.721953601371938,8.698810157046857,12.339025615655752,10.0,2.0,3.8400272986634953
05-19,9.705369170038876,6.350321587219248,-3.800200725562157,-1.0997861831980915,2.2777839189243103,-7.277405568585812,0.3918645700224204,4.259403706902045,-1.7669594708803271,8.220246162119592,6.593948065521006,12.692529678929706,8.0,4.0,3.0455929092875675
05-20,11.263575409575589,9.68190898187173,-2.9803930544385717,-2.7224707829228048,2.2777839189243103,-5.957167785996653,3.022223578559028,2.5989069071770765,-0.39994448323405696,8.220246162119592,6.593948065521006,11.449410211780233,8.0,4.0,3.5873355940780383
05-21,11.970213679863406,11.072822949668092,-3.2852629497208965,-2.7224707829228048,2.3976669392290426,-8.052370363035545,4.233666776547654,2.375668555442225,-0.7173207755509119,8.220246162119592,6.230369769692769,8.776042428971474,8.0,4.0,3.374939365858675
05-22,14.013452794939285,11.210863457280247,-3.951618869892838,-2.7834191343101873,5.508261134143694,-7.8357549765012156,4.131983991878934,2.3884126408966,-0.7173207755509119,8.269062965408521,3.751272647412948,11.427612312065243,8.0,4.0,3.784400682314193
05-23,11.869602399911226,11.536694851680892,-3.951618869892838,-5.1060316199684985,6.266535952733593,-7.510584417452931,5.829529024999763,2.3884126408966,-1.1428601111322187,8.632750756697668,4.2874069670557144,7.6462649509469784,8.0,4.0,3.3955085438729955
05-24,11.001692892620246,11.536694851680892,-3.7701669437706067,-1.9976028217481017,6.253126435997815,-8.16794428051944,7.033856284865028,0.3132413006533976,-1.3860174950132977,9.673390818855378,3.5445861470580766,7.443390937109591,8.0,4.0,3.456520677315748
05-25,11.001692892620246,12.31651174270601,-9.73862327217893,-1.2605063503108735,5.044560178948875,-7.200904514816957,7.033856284865028,0.5600420838919412,-2.1733862339267205,9.720753615213633,5.696625146412744,7.443390937109591,8.0,4.0,3.203667709211216
05-26,11.001692892620246,11.63803357038348,-8.881436352529475,-1.3186810339117827,5.092434923188013,-7.200904514816957,7.033856284865028,0.20889938681938605,-1.9700325415723168,9.888947553237381,7.200396081328366,7.443390937109591,8.0,4.0,3.3447164322267464
05-27,12.510685011566403,8.727438096580254,-15.399914889937213,-1.5825339433181205,5.092434923188013,-7.200904514816957,5.6896288333744325,-1.273468877538449,-2.175493229672905,9.372573437924789,7.200396081328366,4.343022651117914,7.0,5.0,2.1086552983163767
05-28,13.788219065580616,8.933058730911153,-12.444724444159894,-1.5825339433181205,5.092434923188013,-7.112694256545384,6.250912915436831,-1.6846521752358783,-2.4975721080891278,9.372573437924789,7.200396081328366,6.4150956191856645,7.0,5.0,2.6442094871839186
05-29,11.399999346051887,9.541451835957774,-17.595247093844982,-1.5825339433181205,6.745110514637051,-6.430407467899897,8.795763547249544,-1.364472446695337,-2.4975721080891278,9.372573437924789,8.277045308866285,4.794872316539797,7.0,5.0,2.454715270614972
05-30,9.431312628505752,6.711243444656247,-17.595247093844982,-0.08026710688410718,4.790414678285304,-7.126763998315767,7.632261861817096,-1.364472446695337,-2.4975721080891278,9.566893450844118,6.25206440398537,4.557135336795545,7.0,5.0,1.6897502542550094
05-31,9.913192400687027,6.711243444656247,-17.595247093844982,-1.5634371393853237,5.812022466045268,-6.6559769485822855,7.095081913387432,-1.364472446695337,-4.2939515498359695,9.826135796519454,5.63979025393795,5.6482330220931365,7.0,5.0,1.5977178432485513
06-01,9.913192400687027,6.711243444656247,-10.073918926039038,-0.5602216523836858,5.799503046385078,-5.371572424121313,7.095081913387432,-1.4586079272117647,-5.0158300185004006,8.510852813557388,5.931366415609532,5.6482330220931365,7.0,5.0,2.2607768423433034
06-02,7.980953646566546,5.073847287616637,-8.723853661506919,-0.5003001678863722,5.737030045405091,-5.371572424121313,7.022387470311048,-2.341884890427644,-4.1249523795501695,7.962347989106978,4.2488854766920685,5.097804072955853,7.0,5.0,1.838391038763484
06-03,8.812904854220644,4.922336042300208,-5.638173193249941,0.2779971960914817,5.737030045405091,-4.9279045797401455,7.083875816487822,-2.2516515870757448,-3.7462217209922586,7.381089399884182,4.2488854766920685,4.421193057868753,8.0,4.0,2.193446733991013
06-04,7.334279923447817,8.144255873900534,-5.356397914430727,0.2779971960914817,6.184711419834603,-4.798857789969557,8.515821302050524,-2.5678453721979033,-2.7528370297466935,7.381089399884182,2.8297885807519125,5.35910084277477,8.0,4.0,2.5459255360325783
06-05,6.593725729084437,10.834894460637226,-5.819549408953511,-0.0794299345562645,5.777030303323189,-5.102684962348719,8.289339224081028,-1.7152598055938897,-2.7528370297466935,7.3218851757260275,1.0141169264495034,4.101478625049551,7.0,5.0,2.371892441929324
06-06,6.133560983332558,10.646295794410495,-5.819549408953511,-1.8160323458618703,5.076744965005014,-5.386306986083662,8.706861909819969,-1.7152598055938897,-2.309994296445661,7.632531372668202,0.01662922500324844,3.647773602436683,7.0,5.0,2.067771250811465
06-07,7.013063983800208,10.646295794410495,-6.489425255212202,-2.607664406710915,3.781231625590952,-4.83394080193948,7.755752514851983,-2.243035925196702,-4.334597963036127,9.264309142228463,-1.4140716444689494,3.492225783917181,6.0,6.0,1.6691785706862423
06-08,7.013063983800208,10.693300396343018,-9.713789345166488,-3.618749934938162,3.623190967897477,-5.458828795189973,7.755752514851983,-1.1584008439899578,-3.7735829781385113,8.944192974578227,-3.6507436638255717,3.492225783917181,6.0,6.0,1.1789692550116193
06-09,6.246452829894402,10.214802954960883,-9.494214144155169,-2.7794352899870374,2.9032306534297763,-5.458828795189973,7.176962871752229,-1.315449534108104,-5.104925476944838,9.168362026105397,-3.2598670325638883,4.435382031113448,6.0,6.0,1.0610394245255934
06-10,5.553978559434562,8.226349943409884,-7.946033429625371,-1.8292688874597527,2.9032306534297763,-5.301956475949755,5.6265636083819555,-1.4267165964864608,-4.0428635944759534,9.07152605414563,-3.2598670325638883,5.027650794281271,6.0,6.0,1.0502161330434914
06-11,4.490604100066048,6.095505669407554,-7.5684691476101955,-1.8292688874597527,3.4804804730897936,-4.176440100422092,4.185774006074155,0.7240723882985167,-4.693054530585168,9.07152605414563,-2.723539721889297,11.50254898194216,7.0,5.0,1.5466449404214455
06-12,4.16901279503191,4.879238638945108,-6.587943391378848,-3.009438974635804,5.940595580571763,-3.8981445832647137,2.3733932858792097,1.0311975159525937,-4.693054530585168,8.751694856162844,-0.8959696555930433,11.543950910537585,7.0,5.0,1.6337110373019532
06-13,6.1989311324104035,5.0645191911689995,-6.587943391378848,-2.8701519196376637,4.261362350531791,-4.221598226417257,1.9377544319808968,1.0311975159525937,-5.599803529770532,8.347102965314463,-0.3825038053396634,10.767793013675485,7.0,5.0,1.4955549773742227
06-14,5.3454573536997705,5.0645191911689995,-6.8986906666205146,-3.069660335810445,5.04411319242598,-2.6266421657651793,3.657626255273321,1.4694500679840206,-6.376415949913232,8.612718861817841,0.7438644034792546,11.121412294865939,8.0,4.0,1.8406460418838129
06-15,5.3454573536997705,2.215728887689256,-6.820100296895566,-3.48446286817664,2.7404265708111697,-2.562499046325684,3.657626255273321,2.2415780797242904,-4.660764650724851,9.202221792933972,1.0946517128022122,11.121412294865939,8.0,4.0,1.6742730071397658
06-16,6.226894343835138,0.7325988558516756,-4.474223028753221,-3.216946654324162,2.839656426876106,-2.562499046325684,2.7132327738482274,2.5105150886417595,-4.996330695572249,8.711139767953018,1.3868393508465895,9.451938641397804,8.0,4.0,1.6102346520229167
06-17,5.557140936049933,3.6181782999198466,-0.7383734332031368,-3.338571924726116,2.839656426876106,-3.6406278610229488,4.212246451756674,3.0845396583255313,-5.7926829268292686,9.417383856492188,1.3868393508465895,10.945438613594458,8.0,4.0,2.295930620673321
06-18,5.119352188272457,1.1466240582030274,-0.6758102629835714,-3.338571924726116,2.4995769195318256,-3.234374523162842,3.6036072580095615,1.3597657410430968,-4.555862026857087,9.417383856492188,1.9448569954961268,9.430288367611144,8.0,4.0,1.8930697205774845
06-19,4.275745128078069,3.7214957862480027,-0.33677096906534504,-2.9654402799082917,3.7578691507625392,-4.154957515758442,3.0730398991506407,0.4616575979148802,-4.555862026857087,9.980895179403008,2.0105013425004605,9.11394625488171,8.0,4.0,2.031843295612512
06-20,6.20972164553575,6.2207669593676735,-0.33677096906534504,-2.592308635090481,6.569835247081702,-3.865932452922259,0.45593166845574795,0.4616575979148802,-4.7245969763432685,9.608402914822301,1.5449131770029294,9.999997446227782,8.0,4.0,2.4626348019156183
06-21,5.768096265088008,6.2207669593676735,-1.6244051154123518,-1.3077072150760296,6.427482580727936,-2.8664370125163914,1.4741325322622707,0.3847179261901605,-4.857175750277424,11.079272982076109,2.3236818351496598,12.031734686280961,8.0,4.0,2.9211800561550483
06-22,5.768096265088008,8.793261153239412,-1.2084005861394242,-2.1125363525952348,6.064754438253642,-3.4595625433218125,1.4741325322622707,-0.423177978269239,-3.83925255476584,11.536626813748136,0.7271230551500325,12.031734686280961,7.0,5.0,2.946066577410909
06-23,5.208947856410662,9.752100871447821,-3.2926807048040763,0.5686292461320466,6.465365352930122,-3.4595625433218125,1.955479822673988,-2.783119321497612,-3.48117059364932,13.348371230368624,2.591441363655691,12.121707374346993,8.0,4.0,3.2496258295577607
06-24,5.120652993555073,11.177963709082949,-5.45946830641676,-0.19758639184967816,6.465365352930122,-2.851802841316436,3.0535594256700627,3.044471387844243,-4.6726719395176435,14.79016449885746,2.591441363655691,13.348600858553384,8.0,4.0,3.867557509254038
06-25,3.456357136121025,11.6533568380169,-7.317071996954643,-0.19758639184967816,6.4141903617266385,-2.5486586041460115,4.600769665308687,6.116285761827122,-5.178033789424101,14.79016449885746,0.7216703831339724,9.708819226817159,8.0,4.0,3.5183552574528774
06-26,2.7405208385350237,9.95869658154821,-5.215425028928712,0.059274410067363587,6.035223957419919,-1.7024550035373711,4.147455664278456,7.086813272542704,-5.178033789424101,14.300241428232805,1.6171610015053808,9.265498557021367,9.0,3.0,3.5929143241050867
06-27,3.3190266726464617,10.553903273639898,-5.215425028928712,0.1377946769202927,5.298237161254906,-3.5543240369318823,6.292259888013206,7.086813272542704,-4.248647359432892,15.465809037264929,-0.5542735055951524,5.867652681239878,8.0,4.0,3.3707355610528027
06-28,3.923791086905666,10.553903273639898,-6.411050748214652,1.8644452668009712,6.6610352320657835,-4.89981373791419,5.960456142799597,5.72922956989467,-3.9708164939460335,14.077851924555402,-4.399662410497943,7.328865412147156,8.0,4.0,3.034852876519693
06-29,3.923791086905666,12.90175515208053,-6.530199674614512,0.11739654191837995,5.950581300468671,-5.461128691698141,5.960456142799597,3.1435398214234285,-3.1853951069749065,13.983051443035095,-4.332126610925734,7.328865412147156,8.0,4.0,2.8167155680471025
06-30,3.9806590391517696,14.00636632907723,-8.860229116675463,-1.1525691901075097,5.982183933797213,-5.461128691698141,5.916197099074092,-2.1559491204281125,-2.044170356701968,13.757833364372567,-4.754277602822715,5.013144510401772,6.0,6.0,2.0190050164533946
07-01,3.288913615981471,14.519426569761837,-11.194654324936847,-0.9750390247705378,5.982183933797213,-6.248034566415896,4.573314931263638,-0.8406521650192027,-2.2065785799905333,14.443736301229894,-4.754277602822715,4.019113393932724,6.0,6.0,1.7172877068342542
07-02,5.157829875896542,14.883620144265207,-9.608247108066204,-0.9750390247705378,6.234244982544763,-4.624544451956761,5.356083870362307,-1.5217955780801218,-3.053256604798446,14.443736301229894,-4.1389225118336785,2.8641427612091057,6.0,6.0,2.0848210546668398
07-03,7.660166805334627,16.948396545934095,-7.98293792752137,-2.4375975619263444,5.528318467300467,-6.810207983741457,4.316548284506866,-1.7448603156224298,-3.053256604798446,14.078070766801947,-6.666662358100065,3.2079271381300845,6.0,6.0,1.920325438024831
07-05,10.670975530428967,18.32896072697516,-7.98293792752137,-0.0762503168612967,6.133953550495336,-6.119185184566683,7.531866590357988,-1.7448603156224298,-2.851417568786132,15.566669746497238,-6.979736451848257,2.1312682163379315,6.0,6.0,2.884108882990537
07-06,10.670975530428967,18.32896072697516,-9.103719041600577,1.793897736705221,4.385812248813151,-8.017557905198355,7.531866590357988,-1.0783007977369201,-3.0692934744673765,15.471698785754118,-5.965298350659356,2.1312682163379315,7.0,5.0,2.7566925221424974
07-07,12.26084387557611,15.640751293946927,-10.379851021464043,4.5681330578160075,5.513117946737678,-8.017557905198355,6.865581982782808,-1.1469064525113932,-3.101584528045525,14.777308365382854,-4.809801069508234,2.2246711317553136,7.0,5.0,2.8662255564391788
07-08,12.290192933433099,13.761872054869619,-11.727119894943302,5.1326056755212965,5.513117946737678,-7.724826891598764,7.278573042255171,-1.5010816639281337,-3.2024375541708427,14.424547084926555,-4.809801069508234,2.6129689575882376,7.0,5.0,2.670717551765198
07-09,11.662132166264687,13.380439944335235,-11.094951244714402,5.1326056755212965,4.018601684801377,-7.662339833800572,5.569622626181811,-1.880075844244052,-2.5313518760451994,14.424547084926555,-4.877427298579165,1.1126553973489188,7.0,5.0,2.2712048734997077
07-10,11.474970476102085,12.530764480207988,-14.54584591074754,5.609613881451191,3.3605064668986326,-8.338787281789305,5.84059900733259,-2.269827621599924,-2.5313518760451994,13.515699643918088,-4.862115766757396,-1.3221683916697902,6.0,6.0,1.5385047589417848
07-11,10.18867637402625,12.058493854561428,-14.54584591074754,6.5489763533666725,1.5272276859371987,-8.415028834934771,3.715906213544176,-2.269827621599924,-2.3803940513049304,13.403926006817349,-5.057173601843217,0.7871962839717587,7.0,5.0,1.2968443959828708
07-12,10.81370677067911,12.058493854561428,-14.374462383473176,6.872980933610793,1.241721822935147,-9.189370553027842,3.6292713825279774,-2.5376250186551443,-3.2849701461753,13.216100318516169,-4.496194120740693,-1.150348602236949,6.0,6.0,1.0666086882101269
07-13,10.81370677067911,8.323961078588683,-16.266377482624595,5.337134457460209,1.0759833264703302,-9.08196871397925,3.6292713825279774,-0.9690464149670556,-3.3947690052202435,14.05145397062024,-3.7212015468917286,-1.150348602236949,6.0,6.0,0.7206499350355604
07-14,10.786934457865751,7.838693095415138,-13.802814130597065,4.520104275725928,0.8297378259656056,-9.08196871397925,4.109180662757319,-1.7768771539676482,-3.0774528621528665,14.223980247192106,-3.1900565268181227,-3.718564465526702,6.0,6.0,0.6384080593233494
07-15,4.917145628264866,9.30181087066994,-12.01872309638201,4.1883843391698115,0.8297378259656056,-9.540983106269213,2.5304876311346147,-2.3827833314437403,-3.504323821933537,14.097603843191633,-3.1900565268181227,-5.0240506701613405,6.0,6.0,0.01702079878237539
07-16,1.7592066268776154,10.695060103722136,-8.420836258241682,4.1883843391698115,1.3773614992963448,-9.056538967314326,1.8769964145454452,-2.7913633367247206,-3.755488751580163,14.097603843191633,-3.391538635305522,-4.585191310983845,6.0,6.0,0.1661379638877274
07-17,5.916999129207205,12.568785045379178,-13.09966997229185,3.840960481990424,1.9646667206615127,-5.946558565763383,0.3429481145286639,-1.6537374909861342,-3.755488751580163,12.854511308118726,-3.8765562406100127,-6.265575718481046,6.0,6.0,0.2409403383477601
07-18,4.173358289766541,12.818261581553678,-13.09966997229185,2.5377713787293152,-0.3017607721228573,-6.963567695154352,1.5090904220673944,-1.6537374909861342,-3.697708475142888,12.66383058433811,-4.794811265864891,-5.922569709001121,5.0,7.0,-0.22762609367575445
07-19,4.12205805773099,12.818261581553678,-17.283678260504807,1.933861956497844,0.9146835644281812,-7.742999512133511,3.032140733414308,-1.2848265212931052,-3.456585259007776,10.590306533272868,-4.178982444212012,-5.37986230694833,6.0,6.0,-0.4929684897668064
07-20,4.12205805773099,11.633017761199806,-14.202707770062812,3.15036918290942,2.373548468354404,-10.361126186725873,3.032140733414308,-4.002077456191256,-3.927701871787274,11.125543506770565,-4.665594950789205,-5.37986230694833,6.0,6.0,-0.5918660693437717
07-21,4.710926411877024,11.889635883915592,-19.006048861602746,4.029304406449787,1.0617110195898871,-10.361126186725873,4.366278492104976,-3.2683098561010118,-1.8548076169279843,12.02959033996624,-6.770702463199828,-4.399296370308702,6.0,6.0,-0.6310704000802196
07-22,1.8945597512339636,7.155472506882981,-23.95419439283197,4.324428315949319,1.0617110195898871,-7.543032985674027,6.305767398089316,-4.007236879088497,-1.164761705012218,11.907407972547743,-6.770702463199828,-4.221638681259442,6.0,6.0,-1.2510183452310644
07-23,0.08305310128456513,5.926412564179193,-18.096299530189928,4.324428315949319,1.1778352668389769,-7.3150112994248575,8.120041188403295,-5.059130816448493,-1.4976170909518358,11.907407972547743,-7.941052261187888,-4.953481650748138,6.0,6.0,-1.110284519979004
07-24,1.7706285137353006,6.3953434406385075,-15.484011647943378,6.304053154431397,1.7244245558189588,-6.122109911511209,9.73542363044515,-5.04532427683144,-1.4976170909518358,12.268518518518519,-7.218021746196546,-3.7538151966878632,6.0,6.0,-0.07687567137787017
07-25,4.2899857521115985,6.3348386907459036,-15.484011647943378,5.658579280178107,2.976884888958549,-5.429188913525696,9.308509469050293,-5.04532427683144,-0.6240107278947944,11.541687742670893,-4.76433670046281,-4.6176684953416345,6.0,6.0,0.34549542180963266
07-26,4.9096296460944675,6.3348386907459036,-15.111698530305596,5.250139504575518,3.849983006048643,-6.717555611911407,10.629002918787727,-5.5051930203721176,0.090766770602092,10.357374884548188,-6.803363479129628,-4.235514850412314,7.0,5.0,0.2540341607726236
07-27,4.9096296460944675,6.658048185191264,-10.735804061126107,3.3581345671767164,2.678863288736284,-4.989989602530433,10.629002918787727,-4.018791565218482,0.6547773979062489,4.430200356817867,-8.851719611572207,-4.235514850412314,7.0,5.0,0.0405697224875862
07-28,5.664954117640038,6.325819277724754,-11.512515403033344,2.321982886713088,2.1415405211538907,-4.989989602530433,9.289459871528909,-4.944471039064236,6.952296619408865,3.045782428606852,-7.263048455234313,-2.6700292269899952,7.0,5.0,0.3634818329936727
07-29,7.284416736979058,7.428934216759402,-8.065193529259428,1.3869878951358259,2.1415405211538907,-4.522701905846229,4.7106116741026485,-2.9361467367184733,8.522663966871164,-0.07811153337722357,-7.263048455234313,-1.9653286830605359,6.0,6.0,0.5537186806254822
07-30,7.898894250021772,7.851950902546406,-6.963086563705044,1.3869878951358259,2.3088523633029063,-6.0621570249478856,3.928269359968093,-3.0238399524369703,8.408782541707385,-0.07811153337722357,-6.292920664844611,-0.941705441748537,6.0,6.0,0.7018263443018431
07-31,7.984196398101615,6.768044421411526,-4.701295336828141,2.3051383802149497,4.168719682923718,-6.260866911514945,3.9393492862672734,-2.220450164506921,8.408782541707385,-0.009765803953608631,-4.049522124785425,2.4059674222787635,7.0,5.0,1.5615248159430155
08-01,6.203997249085886,7.520715824259062,-4.701295336828141,3.998438109532168,2.506103981134724,-8.810966066305644,4.104909823954122,-2.220450164506921,6.6206410521864045,-0.8467073081968179,-1.0573331970933788,-0.9356976236473212,6.0,6.0,1.031863028631178
08-02,8.254047659684662,7.520715824259062,-2.4840876764835933,5.192269902753141,2.3255792462719835,-8.849089789816187,3.4304570869268964,-1.2556131407087774,7.051642009728622,-1.308412996645243,-1.873110226609155,-1.9065623275130603,6.0,6.0,1.3414862976540294
08-03,8.254047659684662,7.711920738581169,-2.8192304069951297,2.7016508630446454,2.073808659300253,-8.36864712137175,3.4304570869268964,-1.3626226466359808,7.417825990026483,-1.9089543995240872,-1.649593263452637,-1.9065623275130603,6.0,6.0,1.1311750693392886
08-04,7.714065433486549,7.2143074766034205,2.467106862659304,4.087509198171288,2.725061254816922,-8.36864712137175,2.497485157886968,-0.9864527318711817,7.3982478642156515,1.3162873198232845,-1.394302064026391,-1.8722090857674167,8.0,4.0,1.8998716303855545
08-05,5.729442450132448,6.650977132781737,-0.5052666915090461,5.698114071252212,2.725061254816922,-7.644777326473715,1.2627419313873434,-0.5118102431333944,7.012817776745815,0.7712793605837802,-1.394302064026391,-1.7362939109901319,7.0,5.0,1.504831978463965
08-06,6.401710905383607,6.5342755789982,6.814909191040701,5.698114071252212,3.536091242853685,-6.712920779624858,2.104801930682601,0.2879974112592246,6.613996288118665,0.7712793605837802,-3.6806096432585798,-1.125917666668175,9.0,3.0,2.270310657551755
08-07,5.888620187463986,5.627426800871395,4.735845252556493,5.566039175357458,5.179282868525896,-4.906304992645824,1.7145263392890722,0.4053414936993155,6.613996288118665,1.3997273265059271,-4.384384793265356,-3.5605717931316367,9.0,3.0,2.023295346112116
08-08,5.584029435838479,7.638740195205604,4.735845252556493,5.346991694679568,4.510204994555036,-3.864090039052994,0.8086249284981003,0.4053414936993155,6.613996288118665,1.2563513961529031,-4.321619986448735,-0.03420050943951673,9.0,3.0,2.390017928696909
08-09,4.423809336799984,7.638740195205604,0.04208933650360301,4.795564222804267,5.397325486001731,-1.485714036591199,-0.07155491684266031,0.6537656616808589,6.949454055878773,0.4026056079121619,-2.6972012417470372,0.6285016792897583,9.0,3.0,2.2231154489079867
08-10,4.423809336799984,8.883728927399524,5.29718639231078,5.116018158480714,6.257778295060657,-2.5911861542670116,-0.07155491684266031,-0.3290772620546842,8.621070712002151,1.5292910922545602,-2.897305972325952,0.6285016792897583,8.0,4.0,2.9056883573423176
08-11,3.003818968337926,6.955557929144948,2.3510067331095805,3.3455802994895194,4.940800834741277,-2.5911861542670116,0.9875517593850448,1.3737754505950257,7.738963814577347,2.199072890225537,-2.2748556756109064,0.8493290454761558,10.0,2.0,2.4066179912670367
08-12,3.927896573566292,6.814649826450324,3.590162420847728,2.800464173448104,4.940800834741277,-2.904766986467867,3.5208333623176635,1.844153466162744,6.968131612530527,-1.3189445150615742,-2.2748556756109064,0.18595319520159928,9.0,3.0,2.3412065240104916
08-13,2.6785657150771995,7.513815526804212,-0.14477703626337332,2.800464173448104,4.735596009880759,-2.1528032653512743,3.319331506909017,1.9480519480519483,6.305790864918502,-1.3189445150615742,-3.280223552890047,-0.1436401952996096,7.0,5.0,1.8551022650186555
08-14,3.981574969963907,7.2441304873246075,1.0827427696291498,2.819908595636423,5.1132786812142905,-1.9702862674097936,2.005610440349801,1.0095669030508676,6.305790864918502,-1.898482704952688,-1.4913925810605313,-0.8768932294611426,8.0,4.0,1.943795744100283
08-15,4.245935748803396,7.305732501289567,1.0827427696291498,2.0614500123298853,7.9029217685573245,-4.853404599992923,1.212122124513895,1.0095669030508676,6.486606398845513,-0.04935869474912519,-0.381748038786695,-2.248161210390727,8.0,4.0,1.9812004735916773
08-16,1.9757289215636664,7.305732501289567,1.9816163546161225,1.4780209035328162,7.604795687495617,-3.967347437021684,2.449550693956382,1.4553468333709951,6.060264494819836,-1.305298476112834,-1.7343511883976277,-5.2608188132155185,8.0,4.0,1.5036033729914442
08-17,1.9757289215636664,5.601060176788466,3.044448926453458,1.3255366769762502,7.4519610975982,-4.342129409935128,2.449550693956382,0.6423674247652471,6.5961594809825215,-2.5958450270152,-1.4429154110612126,-5.2608188132155185,8.0,4.0,1.2870920614880947
08-18,1.524134662365359,5.9252715726277305,6.126607105213171,2.0910005791840147,6.796726874583678,-4.342129409935128,2.811408052839372,-5.217755906799345,4.984961374314636,-1.4698607313786984,-0.8134182144261006,-4.931459049423849,7.0,5.0,1.1237905757637363
08-19,1.454953646734074,6.6399275207536625,2.7308762558997928,1.3845536298244008,6.796726874583678,-5.0794667149374,4.465020584811999,-7.474798649776629,6.408638854499025,-0.8827006021579754,-0.8134182144261006,-4.205772885886311,7.0,5.0,0.9520450249935184
08-20,0.056642472347227114,6.137022797859446,-1.0606014192159685,1.3845536298244008,6.639397623544495,-3.305786656607882,7.463292612804272,-9.175864451311837,6.7726868210921465,-0.8827006021579754,0.31027483990108634,-3.0326994696537337,7.0,5.0,0.9421848498688066
08-21,-2.004010182718865,7.2144326196284725,1.164273988602598,1.7745707275240823,8.198257225687879,-2.7152933501505254,10.71051304755414,-8.714044648526091,6.7726868210921465,-1.3044349185927284,-0.9987306728196028,0.3299766321959281,7.0,5.0,1.70234977412312
08-22,-0.8522705413586326,7.523309145647539,1.164273988602598,4.3101842075844194,6.73031660375511,-3.061719429230332,11.516854419910413,-8.714044648526091,6.0519399312420585,0.0,-8.800433179375059,0.37637751541577935,7.0,5.0,1.3537323344723171
08-23,-1.3706440204512214,7.523309145647539,-1.2489418535665036,-2.081225993865807,6.616731518899537,-2.2628788578658274,9.668170840503382,-9.052451120559283,5.76212234606529,0.8574174985376859,-10.665320845286672,-0.050396939988048436,5.0,7.0,0.3079909765058393
08-24,-1.3706440204512214,9.032400290242084,1.2075320205028657,-2.315284011018769,5.816869168202206,-0.12570998086418514,9.668170840503382,-9.468038414597453,6.740281166084562,-1.8845758245988076,-11.347316202934852,-0.050396939988048436,5.0,7.0,0.4919406742568135
08-25,-1.3420937023401132,11.142365620648437,2.8712013112670247,-0.6977641052348431,6.680134951502915,-0.12570998086418514,10.501163578982881,-9.32641883653716,4.030284386685982,-0.4226728605722633,-10.503242510159346,0.7727893950072937,6.0,6.0,1.131669770698885
08-26,1.3740933274355132,11.783708793132295,0.020610846998864868,-3.250204848938918,6.680134951502915,-0.5028279350930812,9.17630788809833,-5.569755532978834,4.503033779028102,0.5422887370510426,-10.503242510159346,3.5066349845996854,8.0,4.0,1.4800652067230473
08-27,0.9875803828539684,9.343983204136599,-3.5116727293902925,-3.250204848938918,8.730779100177134,-0.3134808234030125,7.644005338284888,-4.013732507618062,4.51417542872292,0.5422887370510426,-10.969040433422656,2.8721646166578068,7.0,5.0,1.0480704554259517
08-28,3.4970812218212317,11.449555265147414,-6.210259190808762,-4.2109596287734865,7.254373892430818,1.15794355237208,6.542440391206304,-4.886164477596234,4.51417542872292,1.1606899568250744,-11.389395713605365,4.091906300602743,8.0,4.0,1.0809489165287285
08-29,4.367175692643428,12.489322064611232,-6.210259190808762,-5.489947557594063,7.844359401598978,2.1357764465296656,7.776561108952955,-4.886164477596234,4.350872752685973,0.4090177079898789,-11.64220407468462,7.2251400177136365,8.0,4.0,1.530804157670172
08-30,4.39376545212332,12.489322064611232,-6.634169240927012,-5.102042356485138,9.131643596943496,1.1032810253363463,7.801802817842718,-4.766345096476137,2.1118462369200577,-0.3931307211771394,-12.562165370812595,7.2251400177136365,7.0,5.0,1.2332457021343979
08-31,4.39376545212332,11.080270302736624,-6.273683246813322,-5.763211884331416,9.363357843354997,0.9666982831344836,7.801802817842718,-9.169820836866501,1.5310363863968737,-2.8888695473947945,-10.561818680694262,7.2251400177136365,7.0,5.0,0.6420555756001962
09-01,5.06117836807754,8.279709778610918,-1.234572649498854,-8.16542597990793,10.32416313425716,0.9666982831344836,9.937030864274883,-8.517749306266628,1.997895966395364,-3.9070131933085785,-9.149788841443533,6.355301756572274,7.0,5.0,0.9956190150747584
09-02,4.550558992474118,6.0856321217254115,0.3943516511114957,-10.773238457516749,10.32416313425716,0.9666982831344836,6.101694221208015,-7.68603096406961,2.756687996175767,-4.2123778852197535,-9.149788841443533,4.192460190057466,8.0,4.0,0.29590087015785543
09-03,5.166668362087654,4.736042500518806,2.1197752131351053,-10.773238457516749,10.32416313425716,1.2009219645051652,5.788590022326008,-8.285639218624375,2.6088012042090187,-4.2123778852197535,-9.149788841443533,6.613903613383111,8.0,4.0,0.511485134301468
09-04,6.564968421455142,3.7756658200605058,1.6949145860284491,-10.773238457516749,9.704250484828515,0.13883073383169764,6.699031807591977,-8.00597990224378,2.6088012042090187,-4.2123778852197535,-10.382910377440572,6.966538160902799,8.0,4.0,0.3982078830406043
09-05,5.310211575658095,3.9029695757905087,1.6949145860284491,-10.50218657951166,9.932245950805328,0.4276212497502429,5.488404210976255,-8.00597990224378,2.6088012042090187,-3.2350409008786656,-10.221897014690624,9.051017158933293,8.0,4.0,0.5375900929022052
09-06,4.508190655658956,3.9029695757905087,1.6949145860284491,-9.980516881171493,9.678914133859976,0.43083364902365695,7.367565898985921,-8.00597990224378,3.7858577553401767,-2.5122301464171986,-9.552294059582009,9.051017158933293,8.0,4.0,0.8641035353505385
09-07,4.508190655658956,3.9029695757905087,-1.6767957501824995,-9.693232179109728,8.137906372789839,0.1851037223394738,7.367565898985921,-9.119324432580646,2.3817873662395246,-2.586044127030942,-7.782804048978366,9.051017158933293,7.0,5.0,0.3896950177379444
09-08,4.508190655658956,3.5188085459954985,-1.7072656999060114,-8.88368578108531,7.418998135939129,0.1851037223394738,7.367565898985921,-7.5492158090996035,1.9305036882101172,-3.2135360749296917,-7.5880774683366194,9.051017158933293,7.0,5.0,0.4198672477254292
09-09,3.4056624105010496,3.510316420672545,-1.3277156121929783,-8.814135154468824,7.418998135939129,1.46537210567283,8.007602472097759,-4.337286251828604,0.409498618371746,-4.074393729721506,-7.5880774683366194,7.616958838815843,7.0,5.0,0.4744000654601973
09-10,2.9444130168723195,4.367670830588566,-0.906217699182048,-8.814135154468824,6.886833234020245,1.8687244547840247,9.934038447259546,-5.751622299742517,1.6408575848426306,-4.074393729721506,-7.597112822000763,8.165502796886651,7.0,5.0,0.7220465550115269
09-11,3.2715396754512165,2.911777790653693,-0.1045353024178156,-8.984452408627538,7.160686835961489,2.0122850834082917,8.733916156413251,-4.000535644352364,1.6408575848426306,-4.036045616919673,-6.585798742747108,7.248648190390849,7.0,5.0,0.7723619668380768
09-12,2.126496109071221,1.6941703956835592,-0.1045353024178156,-9.222572834919664,7.8660368573453,4.040397494513213,9.65470196443743,-4.000535644352364,1.5484214849883686,-5.690820666326992,-7.201235113864803,6.684428131414751,7.0,5.0,0.6162460729643504
09-13,1.6707664302863783,1.6941703956835592,-1.4007905985700828,-9.491811337982249,8.141344514561348,3.948573861277168,10.177702857880051,-2.7155955885139655,1.5725084427672318,-6.660248380479295,-6.714740678282404,6.684428131414751,7.0,5.0,0.5755256708368743
09-14,1.6707664302863783,1.0781114856797778,-4.923276776297754,-9.771914792803432,6.102114413606071,3.8455622041154576,10.177702857880051,-1.7356997263048872,1.5999968155570654,-7.985339554771253,-4.984233042630115,6.684428131414751,7.0,5.0,0.14651820381100894
09-15,-0.7943054748274374,1.6139444379137715,-6.751243426495539,-10.758824783001273,6.291755288099412,3.8455622041154576,7.902524520266357,-2.40568139660345,2.3403260655886946,-8.797653696497475,-3.482592291545892,7.272156363068062,6.0,6.0,-0.31033601582660925
09-16,-0.7876179194214094,1.5102415777489802,-2.2217601707108714,-10.130305820371523,6.291755288099412,4.106015977194319,7.786832666198665,-1.47770005934306,1.6914062349119532,-6.988372928739989,-3.482592291545892,7.71099750820544,6.0,6.0,0.33407500518550204
09-17,-2.8682784284976703,1.351054565550116,0.20567354240627575,-10.130305820371523,7.550107530959967,5.820185608477801,8.78550030610135,-3.871564869662662,2.4211913845347395,-6.988372928739989,-3.953451203053058,9.129379727417595,7.0,5.0,0.6209266179269117
09-18,-1.6057636993524005,0.8320500736878927,4.469384557679137,-9.499782406725926,7.282518783347022,5.5938720703125,9.841570221105966,-7.420060511794963,2.4211913845347395,-7.26713221888288,-4.848002421282935,9.85032492336228,7.0,5.0,0.8041808963325366
09-19,-1.7625980871463407,3.3091358497250347,4.469384557679137,-9.713207756300818,7.409115363922834,6.052225374898046,9.790588032241086,-7.420060511794963,2.284148076479367,-7.0101096641912815,-5.110591854417097,11.096311883381276,7.0,5.0,1.1161951053730237
09-20,-1.3161489612559625,3.3091358497250347,5.237251032612033,-10.509759447597883,7.280282366270095,6.350417456895692,8.521578555054807,-7.570375638732427,2.5902056562280054,-6.189326884313745,-5.392376395262679,11.096311883381276,7.0,5.0,1.1172662894170202
09-21,-1.3161489612559625,4.5900971794939815,7.710560270253719,-12.18316786593326,5.933651476277776,7.872948243579702,8.521578555054807,-5.858526229235699,1.6552476866429942,-6.025945659941522,-4.782183864280578,11.096311883381276,7.0,5.0,1.43453522616977
09-22,-1.7274396279984974,6.440744404755852,10.107951813074298,-11.830924974922485,5.343989616084618,7.872948243579702,9.725419196167492,-6.8728994152302425,2.6572750428861047,-5.6672393459988735,-5.653962930615783,10.406706931885726,7.0,5.0,1.7335474128056596
09-23,-3.605100353721652,8.4612229941275,9.951216534870444,-11.428574657944761,5.343989616084618,8.264340890028656,9.22951111325289,-7.372586351326666,2.516851532325316,-7.227505960325371,-5.653962930615783,12.122875281491234,7.0,5.0,1.7168564756872022
09-24,-0.7665004197942186,5.6607714663216075,7.2963928805756755,-11.428574657944761,5.328320721995867,8.367131921824663,11.768661976564244,-5.772350041568828,1.5991789293372851,-7.227505960325371,-6.020758123482903,12.028836612101626,7.0,5.0,1.7361337754670745
09-25,0.7096024177518551,5.66835950585793,7.204898414671751,-10.031749584056712,5.961303683468717,8.179900103985903,11.708437481111526,-6.232980392519248,1.5991789293372851,-5.6537784697809865,-6.404650284764857,12.1542215046211,8.0,4.0,2.0718952758070217
09-26,-1.826603498830319,4.496792836211034,7.204898414671751,-8.66191493641186,6.368839992414242,6.830595587296072,12.839670032826113,-6.232980392519248,1.610523078637712,-6.858212544592713,-6.102780358802088,11.950474043617346,7.0,5.0,1.8016085212098367
09-27,-1.743392551374756,4.496792836211034,6.000791402850015,-8.218025379972246,7.6482351634904,6.806522775169718,12.219485606773851,-5.797488176671353,2.0819149073004364,-8.58975642294942,-5.362692943991938,11.950474043617346,7.0,5.0,1.7910717717044242
09-28,-1.743392551374756,2.7194870171640955,8.44364025859762,-8.225199676812563,6.4561259956312895,5.566599516171073,12.219485606773851,-5.943401406317508,0.9328779073829709,-8.707493895945545,-5.815610474230202,11.950474043617346,7.0,5.0,1.487799361721473
09-29,-1.8251212213349357,2.545451607933641,8.39739475650191,-8.378717761554261,4.8726436655083285,5.566599516171073,11.138477265595002,-3.290968674879808,1.1113671336727982,-9.222660021276011,-5.223414115091568,11.74672658261358,7.0,5.0,1.4531482278216454
09-30,-2.891763143344047,2.9536828809669537,10.552664402648091,-8.766033236061359,4.8726436655083285,7.172348479103112,10.172955453707925,-3.7528522032599123,-1.6776546837005573,-7.845488155657057,-5.223414115091568,11.29222129393238,6.0,6.0,1.4049425532293582
10-01,0.4374074743034581,3.433569271291105,13.834069579125815,-8.766033236061359,3.353898058203796,9.774668017376156,7.7134267080744054,-4.020435327880835,-1.3727013248338942,-7.845488155657057,-4.530513003417537,10.900402472830171,7.0,5.0,1.9093558777795188
10-02,1.1494306872447149,2.9298523974793955,12.65564513271821,-9.039308943969594,4.921139860396502,8.214724023410344,6.2991033805524825,-5.90006485768386,-1.3727013248338942,-8.225759227059042,-1.0246962391120928,11.566493272967788,7.0,5.0,1.8478215135092464
10-03,-0.1363863537060991,2.7218183924492867,12.65564513271821,-10.233046479418391,6.23234093116819,5.872220426180411,6.364623668040898,-5.90006485768386,-2.00714939989256,-7.655502719835049,-0.8949694061081623,10.234305694011848,6.0,6.0,1.4378195856603941
10-04,0.10884602864583333,2.7218183924492867,8.858950814234216,-11.487645811361439,6.586921698852875,5.625196129355416,6.8618018999841714,-4.175216009508283,-2.049318729628559,-6.727128011116988,-2.6329619876361363,10.234305694011848,7.0,5.0,1.160464175690187
10-05,0.10884602864583333,0.4714985456977749,8.551973626407209,-10.953985879501476,6.530173444169191,7.707634736961843,6.8618018999841714,-4.317436356094047,-1.3336353046051876,-8.64760627745101,-2.8319357103525187,10.234305694011848,7.0,5.0,1.0318028706561355
10-06,-0.21769205729166666,2.1092596566514974,9.183276152626648,-10.197641577118988,7.406274391377613,7.707634736961843,7.855679894898204,-5.0870685163144875,-2.3218229679058684,-9.93464925974467,-3.0774634517059054,10.226473622239917,6.0,6.0,1.1376883853895112
10-07,-2.3750362664890057,2.0165585876275878,8.118371715372772,-9.028500478761574,7.406274391377613,9.669018030552415,4.95433396791959,-2.493219866942538,-2.171398953174482,-12.637307557115507,-3.0774634517059054,9.897341268716707,6.0,6.0,0.8565809489481401
10-08,-3.924296786629853,1.9218582402055882,9.48456999136411,-9.028500478761574,7.6521254099861595,10.04354057965072,2.081287222936893,-2.662873076395935,-2.4672734950085045,-12.637307557115507,-1.5033577296735812,8.69054456096096,6.0,6.0,0.6375264067932899
10-09,-4.946120429544013,1.4547725538042815,9.536574924977149,-7.5098827403160096,7.733866032634704,12.766268778136434,1.9536721383383977,-3.53052932980096,-2.4672734950085045,-10.597348332355883,-2.8430170933866434,8.46328892727998,6.0,6.0,0.8345226612299111
10-10,-4.545458844512411,1.4547725538042815,9.536574924977149,-6.22535813548928,6.777846180855402,14.294226950903022,2.4063033086947456,-3.53052932980096,-2.478859428077338,-7.799174682777058,-1.1743201851707816,7.499411996749033,6.0,6.0,1.351286275846317
10-11,-4.545458844512411,1.4547725538042815,8.693988528149292,-6.391371485426074,5.982251852661173,16.26173293819836,2.4063033086947456,-2.3309692887752846,-2.351440676752821,-6.90453363971896,-1.1917212573874092,7.499411996749033,6.0,6.0,1.548580498806993
10-12,-4.545458844512411,1.560197498851906,6.7215665533897,-7.265496948601505,5.9681099411418765,16.69632522035193,2.4063033086947456,-3.1352276889611517,-3.1832971776311787,-8.658469492127836,-0.4160489868353311,7.499411996749033,6.0,6.0,1.1373262817091483
10-13,-4.793393154373235,1.8557118570433424,7.568494064341119,-7.209833222458844,6.732943608672619,16.69632522035193,2.9733010220919898,-3.519583419575865,-3.4225783001016508,-13.879604237690776,-0.9762007185715073,7.8755606956266675,6.0,6.0,0.8250952846129825
10-14,-7.520047991150999,1.838306398690634,7.493347858879713,-8.224652444495515,6.732943608672619,16.384938688812124,5.15927166180491,-3.28759427914608,-4.157399083186044,-11.310891644885714,-0.9762007185715073,8.753231028539961,6.0,6.0,0.9071044236636748
10-15,-3.6568651914055934,2.725195301867384,9.55826430694861,-8.224652444495515,7.757188972025553,16.163408175784152,4.92496652121898,-2.7369540641930707,-3.877598211075453,-11.310891644885714,-0.39222255301624415,8.831599575704985,6.0,6.0,1.6467865620398392
10-16,-3.0228148042543466,2.7818069105813388,8.460203201552169,-9.612956682404231,7.6957618194215325,15.045680802595218,5.250309041717624,-3.3640744526230337,-3.877598211075453,-15.070286953202805,-0.5661047967309885,8.823761525252332,6.0,6.0,1.045307283402446
10-17,-3.2178166922588702,2.4374961853027344,8.460203201552169,-10.94829284513088,5.950241528879388,14.156181455527422,5.47002026158601,-3.3640744526230337,-3.9243173353970664,-13.694915579021618,-1.3302090535086304,9.764124304425335,6.0,6.0,0.8132200816110796
10-18,-3.2178166922588702,2.4374961853027344,6.398149419686692,-10.404021714626948,5.29077117717255,12.196543832814722,5.47002026158601,-3.621809718846674,-3.4804901097226657,-12.882963670719054,-2.39958460857497,9.764124304425335,6.0,6.0,0.4625348888532378
10-19,-3.2178166922588702,3.374997774759944,8.440934900047433,-10.561892657126807,5.893676313017374,11.835532656666164,5.47002026158601,-3.743898657797858,-2.1786736480097257,-12.535062706711726,-1.8486518228722868,9.764124304425335,6.0,6.0,0.8911075021437487
10-20,-1.9526927187963847,0.9406370432779156,8.649267994574686,-10.184410071312119,6.282257004731778,11.835532656666164,4.7947096270407,-3.0940408518913936,-3.384328013743521,-10.52407947060258,-1.9719760639464798,8.34574208521318,6.0,6.0,0.8113849351009955
10-21,-0.8259890957634158,5.402564034709977,7.0538558934990885,-7.834297869191084,6.282257004731778,10.058735135984175,5.093724341342954,-5.051064490147642,-2.3215683179776536,-15.291639907807676,-1.9719760639464798,7.734505680882665,6.0,6.0,0.6940921955263905
10-22,-4.001109186685022,6.379883131688963,5.164493135587841,-7.834297869191084,5.264709959234887,9.350683015761463,1.8719897891084172,-5.450566337860156,-2.1103294946311597,-15.291639907807676,-0.8994991271595296,7.2878324639733565,6.0,6.0,-0.022320868998308246
10-23,-1.9867477170501069,5.374319764168424,5.363614413687066,-6.050042790171068,5.630863896846672,7.30683066029801,0.9433966258347296,-3.731640196413476,-2.1103294946311597,-14.970059829579732,-3.245955692734336,7.256486240843501,6.0,6.0,-0.018272009908456267
10-24,-1.9889430685951048,5.53236209073435,5.363614413687066,-5.045959892764538,4.921461744092193,4.1486073815456965,0.5162482581837421,-3.731640196413476,-2.2135568885581662,-12.33584683456759,-2.893717463934152,7.953923264110973,6.0,6.0,0.01887940062674957
10-25,-0.4625800515518708,5.53236209073435,7.711397141809463,-3.38573224776158,3.3383477003054294,5.539040719729687,-0.16859053957225872,-3.731640196413476,-2.8833806138163087,-11.222138195838776,-3.358171064600534,7.953923264110973,5.0,7.0,0.4052365005945912
10-26,-0.4625800515518708,5.76200845158495,5.774783360812126,-4.979676270218558,3.9515034966632094,6.082762790392954,-0.16859053957225872,-3.8110730581752996,-2.3357481230689494,-9.146279435814744,-4.685141364412209,7.953923264110973,5.0,7.0,0.32799104339585994
10-27,1.3061212033641585,4.845171671819375,4.9758883168436885,0.8507394257951415,5.922886629164331,6.082762790392954,0.3231291879003677,-3.7823112643494894,-0.8371598422955099,-7.100093303452081,-4.398512342206589,9.372305483323126,8.0,4.0,1.4634106630249566
10-28,3.591835904283589,4.537782772077144,5.1361262799565095,-0.1953858411974025,5.922886629164331,4.713750524016471,-2.9959808972040833,0.8957704388921017,-0.08102754406617853,-7.1459136342449785,-4.398512342206589,11.96615014452265,7.0,5.0,1.828956869499464
10-29,2.827615919920828,5.396285060498415,7.661211710848727,-0.1953858411974025,6.157450527217902,7.684165457804049,-3.5203193777348534,1.8950800043961744,-0.922144195648778,-7.1459136342449785,-4.6723201364530995,11.495962776255418,7.0,5.0,2.2218073559718667
10-30,4.074979473074364,6.294434004061673,7.393818673296863,-0.1953858411974025,6.184499818020631,5.743091593286018,-5.35662830151341,2.1905783872751226,-0.922144195648778,-8.440307131271872,-4.003136395684102,10.59478427066492,7.0,5.0,1.9632153628636688
10-31,5.158841790436306,7.033193643131593,7.393818673296863,-0.786159007045147,5.716383857749054,4.788130543988529,-8.419251419150504,2.1905783872751226,-1.634179474497054,-7.80291510947592,-2.0381730647651186,7.381865154682232,7.0,5.0,1.5818444979688302
11-01,5.313090585256676,7.033193643131593,10.81080802432628,-4.094827811713588,4.826453145139321,5.278500419458668,-9.882451308500302,3.3132504635974787,-2.0310558309254176,-8.92008513543846,4.6557626289134735,7.381865154682232,8.0,4.0,1.9737086648273292
11-02,5.313090585256676,6.825727932471312,8.803084219606086,3.3964432545719587,6.1098874270260985,4.442722909714165,-9.882451308500302,2.9025228915780947,-0.4057953323143116,-10.472545831379485,6.42383472049301,7.381865154682232,9.0,3.0,2.5698655519337947
11-03,4.581183666766902,6.514521452171318,5.070916161746138,3.646946839843319,5.764703189625458,4.442722909714165,-8.489331248342015,3.3546966085453795,-0.4390075017680875,-7.457019171902036,6.888870686827898,6.308285411217836,9.0,3.0,2.5156240837038557
11-04,5.069121612426752,4.068076114690465,5.283607701805675,3.684315565488744,5.764703189625458,3.5448872367194597,-6.269045806479305,2.843532432504252,0.4522256485494198,-7.57047644203894,6.888870686827898,6.707936304091977,10.0,2.0,2.5389795203509884
11-05,3.0451304215790507,4.229426449616419,6.133904730888905,3.684315565488744,6.205884148092821,1.4860667293316547,-6.8363591974431825,-1.3498848412848674,1.1400252251479754,-7.57047644203894,6.897434226296957,3.6830945268884587,9.0,3.0,1.7290467952136666
11-06,2.2075138374873777,5.563479843518894,6.872723786845351,2.7341474806206425,5.338231255026424,-0.03135851073449214,-7.6245078076603505,-1.1567752249440904,1.1400252251479754,-9.914475219531381,6.18627476423629,3.1423886192703163,8.0,4.0,1.20480567077358
11-07,2.331256775766922,4.787339437058199,6.872723786845351,5.1386494891619545,6.750000224393957,-0.4653256036653282,-6.356421061473633,-1.1567752249440904,1.2897226674557287,-10.980890746924258,7.460666218703799,3.479353044565445,8.0,4.0,1.5958582505786705
11-08,1.0708385756619174,4.787339437058199,7.06469628411578,7.2444281157550945,4.446754846464104,-2.0869085600239443,-6.8111381283677375,-3.075659231883641,1.7308511506314843,-9.590323067835744,7.091714725934549,3.479353044565445,8.0,4.0,1.2793289326729589
11-09,1.0708385756619174,4.8900705628885035,9.910251542031501,8.236195724215111,3.6474572205287146,-1.8806446732024664,-6.8111381283677375,-3.2723733584030916,4.344880315542319,-6.756063373096691,6.097029827746428,3.479353044565445,8.0,4.0,1.9129881066758296
11-10,1.2904926678623994,2.9021589493514344,7.856448684773023,7.939256116440222,3.3885605544915407,-1.8806446732024664,-7.68096556660766,0.2931310528500645,2.9156133650314646,-5.526746232610789,6.129503285316143,0.0,8.0,4.0,1.4689006836412821
11-11,0.3049642674861092,2.8952289903017863,5.777439416722602,7.566110557301426,3.3885605544915407,-1.4299127303463264,-9.535233735148127,0.828155278667201,2.2945230265320906,-4.508112049155316,6.129503285316143,0.0,8.0,4.0,1.1426022385140941
11-12,1.2756596828935165,5.407074632231494,6.337477466106543,7.566110557301426,3.8662433504739626,-0.7108624493599078,-3.7362682077037546,0.040792465220844204,2.959184467867013,-4.508112049155316,6.4407340418220365,0.0,8.0,4.0,2.0781694964748216
11-13,0.16639315309471273,5.190526256157028,6.916534258982135,8.994402092053285,1.8250477498810929,-1.8663717974206642,-6.969781618568161,-0.10894978989813307,2.959184467867013,-5.1345246878454835,6.603050028663043,0.0,7.0,4.0,1.5479591760804887
11-14,-1.972219679090712,5.7534835473216415,6.916534258982135,11.631473581719675,-0.6823740525819799,-1.6622257576947623,-2.2840128516716427,-0.10894978989813307,2.936503886060784,-5.096267597662828,5.677938328150346,0.0,5.0,6.0,1.7591569894695438
11-15,-1.3808340586631136,5.7534835473216415,6.124417062870207,11.973860635021383,-2.429023467607877,-4.11830814504902,-2.6334497852257557,0.06809621619229107,4.416858922915132,-7.598317663266616,5.605630439562235,0.0,6.0,5.0,1.3152011420058751
11-16,-1.3808340586631136,7.268630683803228,7.2291473584959505,9.50235541109268,-1.7433652305222986,-5.4598215429452255,-2.6334497852257557,-0.3409710870711418,3.399146062422724,-8.581938865538325,4.854707962016839,0.0,5.0,6.0,1.00946724232213
11-17,-1.933169789113922,6.85972529634807,8.741392122285141,9.59167896353086,-2.2411587046502204,-5.4598215429452255,-2.4484003141681487,-0.19063097085288816,2.370912745314853,-7.392278622926276,4.8300896891439535,0.0,5.0,6.0,1.0606949059971833
11-18,-1.8930967144749928,4.894373740585434,7.864957231558678,9.487084314959539,-2.2411587046502204,-4.670635696657781,-3.905479280800807,-1.2510361408226427,2.5316468912023486,-7.370356562046504,4.8300896891439535,0.0,5.0,6.0,0.6896990639997508
11-19,-2.621195933412244,5.160215296237125,9.481109461293704,9.487084314959539,-1.6256293708567249,-2.904764811197917,-1.0699571508513368,-1.7404366476919853,2.230607400006668,-7.370356562046504,4.692084118383129,0.0,5.0,6.0,1.1432300095686212
11-20,-2.193472298014952,5.483668605980763,11.374673232068822,9.429231261274527,0.4983642725227845,-2.5986363076970687,-2.738215217514246,-0.4057281748144553,2.230607400006668,-6.482236150947072,5.011158333110191,0.0,6.0,5.0,1.6341179129979968
11-21,-1.6629668616165771,5.308638060413191,11.374673232068822,8.88802275345197,-0.4702182455298458,-2.4551424868055767,-3.547390339487733,-0.4057281748144553,1.0066315166437223,-4.418883305134886,3.6447052260526194,0.0,5.0,6.0,1.4385284479367708
11-22,-1.8888897365993924,5.308638060413191,10.664921529384355,8.826346258386678,-4.526211107414972,-2.946266080388084,-0.9569336071641004,-2.096288032437617,1.1400252251479754,-4.36966181895491,6.0730085695333775,0.0,5.0,6.0,1.2690574383255422
11-23,-1.8888897365993924,6.481476975475577,11.136365820225306,8.791419714759117,-3.3960997253823364,-3.353361398691697,-0.9569336071641004,-3.709261083846347,-0.5244719489936758,-4.056087244515565,5.130397739689879,0.0,4.0,7.0,1.1378796254130636
11-24,-1.4166620042588975,3.9876038105986815,13.065423698068779,9.058036899411114,-3.1139625208132147,-3.353361398691697,-1.5447672315060716,-3.10382346627245,-3.4420758468715134,-2.5922655134985493,5.8708794749226465,0.0,4.0,7.0,1.1179188250907357
11-25,-4.900288591098582,4.629629774984659,13.065423698068779,9.676807685976948,-3.1139625208132147,-3.24263742926334,-3.6406491702452337,-3.7082498667846315,-3.520702847606147,-2.0671386742951965,5.8708794749226465,0.0,4.0,7.0,0.7540926278205571
11-26,-2.512135594578796,6.2500004822382245,9.880237490608687,9.676807685976948,-3.3226380977065832,-2.3193849089240186,-5.4696277269693825,-5.1423039889258915,-3.446630223303329,-2.0671386742951965,4.5049673914105846,0.0,4.0,7.0,0.5026794862942705
11-27,-2.162157293147372,7.8883988945187955,9.456662735785617,10.584007730619922,-3.9199951171875,-1.4301230262070228,-2.711219211323472,-3.970085720989682,-3.446630223303329,-0.6988943197769935,3.9989764290460457,0.0,4.0,7.0,1.1324117398362503
11-28,-1.976286841124656,7.2742011855391135,9.456662735785617,10.005669014000679,-2.2523176132841587,-2.51374459664478,-0.094072962477038,-3.970085720989682,-3.649380135567565,-2.0402176491585817,3.924588107479932,0.0,4.0,7.0,1.1804179602965732
11-29,-2.9646438042925563,7.2742011855391135,8.591840219618678,9.026848248490158,-2.3813252249910377,-2.1496923610941323,-0.3908894810407649,-2.8959852685785337,-7.594004071948063,-2.4262738921801525,3.1778930986132576,0.0,4.0,7.0,0.6056640540113308
11-30,-2.9646438042925563,7.718737886371048,5.524548918775258,9.078775717192912,-1.7859930392384682,-2.229896611401103,-0.3908894810407649,0.5301065533046001,-7.607107742720782,-2.3107238682726567,3.4812587757757254,0.0,5.0,6.0,0.7536811087044342
12-01,-3.5062698917748047,5.621601562527009,4.638007243609413,10.927714706088825,-1.6108892963971406,-2.229896611401103,-1.051352950032455,0.9493235402879256,-6.053268876955875,-2.0914771266918675,2.3537590182124317,0.0,5.0,6.0,0.6622709431226964
12-02,-3.9623697750720632,3.981409132838661,2.804268327648886,11.698321647937796,-1.6108892963971406,-2.622484549218183,0.3504544112069724,0.10748600124501713,1.8502046806998087,-1.6147820850541048,2.3537590182124317,0.0,7.0,4.0,1.111281459504007
12-03,4.854881473636619,2.071487455309577,2.0638291482225246,11.698321647937796,-0.4222716039454129,-4.318467315987882,1.1571590606605646,0.6095145150699914,2.8678645471997446,-1.6147820850541048,1.7435271693509442,0.0,8.0,3.0,1.7259220010333634
12-04,3.9695113035975296,3.4146347136670445,2.2133177843719984,11.453820853143403,0.20331131718800527,-3.901982225546909,1.2616262139906271,-0.2459020665028918,2.8678645471997446,-0.13618617265794294,2.5542675691402663,0.0,8.0,3.0,1.9711903197992395
12-05,2.9917952195390063,3.394995355902565,2.2133177843719984,11.134095115321959,0.5277807320002775,-2.633216607689333,-0.3651173544333129,-0.2459020665028918,1.8310209519693197,1.1381379023410811,3.657487187278529,0.0,8.0,3.0,1.9703661850082659
12-06,2.189000840536893,3.394995355902565,3.2436572560367893,10.156396119546445,0.12350502671935122,-0.9655130320581896,-1.1585095301917394,-0.8196805034566786,2.746531427953979,0.13756450257089586,3.93417023221688,0.0,8.0,3.0,1.9151764746480993
12-07,2.189000840536893,3.882902827273127,3.3390574415092487,10.186405168968603,0.6001954430514538,-0.07594625698414667,-1.1585095301917394,-0.38252243219271104,3.0602182423621946,2.128708795732196,2.281801868877305,0.0,8.0,3.0,2.170942700745202
12-08,2.0822178279769052,5.0620002709606,5.478671828717417,11.106979015261617,-0.10849302304131664,-0.07594625698414667,-0.3134737889181515,0.0,4.279647421118476,2.402759594367142,2.0693894779633077,0.0,7.0,4.0,2.6653126972851537
12-09,3.1398480039471544,5.574628186429987,3.9568348441181223,8.590016527921973,-0.10849302304131664,-0.6531980756727438,0.3001380785042807,-1.1502008884579444,4.1511079295434845,3.0803847643993763,2.0693894779633077,0.0,8.0,3.0,2.4125379854713067
12-10,4.748157422113193,4.910083295133676,4.876193091982901,8.590016527921973,0.371974389734092,0.6834704940334302,-0.7546694188877979,-0.026818974987367874,3.1943264927160278,3.0803847643993763,2.6693327865412977,0.0,9.0,2.0,2.695204239225067
12-11,4.290945414099266,3.2996540182197616,4.785514012812015,8.666536712501662,2.5289119941967404,0.7405136426307103,-0.08241422538278494,-0.4713149260068957,3.1943264927160278,3.510662910511753,2.0534243488079773,0.0,9.0,2.0,2.7097300329255187
12-12,3.993695225745177,1.9037654015411856,4.785514012812015,8.922075221623835,1.918313544984522,2.4596308072825224,0.4391377559529849,-0.4713149260068957,4.137093173723066,3.093485605548045,-1.964633758073528,0.0,9.0,2.0,2.4347301720944112
12-13,4.96748975165974,1.9037654015411856,5.3193534317328846,10.639907164625493,1.0408605795471313,3.68024484026258,1.8400765024569723,-0.14812901587285932,4.3262312576317115,1.6952506665346745,-4.3585772146638915,0.0,9.0,2.0,2.5755394471213022
12-14,4.96748975165974,2.175734167629452,7.844240370418874,9.94241930304234,0.3560305463957766,3.022016567778069,1.8400765024569723,1.4436044996956787,5.07747579476214,1.201261569545898,-6.90106329243968,0.0,10.0,1.0,2.580773815078772
12-15,4.655398907696928,1.6649123347209076,6.199510173660816,9.683564820840855,0.8777327893366115,3.022016567778069,1.1500555559455183,1.882734688525559,4.1859390542643435,2.6354735300443606,-9.209017349584208,0.0,10.0,1.0,2.22902675610248
12-16,4.197081816305026,1.3114093590943443,3.8512103225436567,11.273408774803569,0.8777327893366115,3.082762074921951,1.1972012826086331,2.0810995997538684,3.2737433577383035,2.731490161158446,-9.209017349584208,0.0,10.0,1.0,2.055676849056684
12-17,6.021281516548656,2.2005347703689955,5.194315978136109,11.273408774803569,0.7237468479112079,1.509206108904134,1.4591567818168012,0.9528909731803904,3.187204800358484,2.731490161158446,-8.282382636291064,0.0,10.0,1.0,2.2475711730746437
12-18,7.895406687719049,0.2317754160841336,5.24820106447259,10.936329561259797,0.6563887821001436,-1.1234216379441846,3.5273348343709245,2.9713312902684783,3.187204800358484,3.4217543589337858,-10.429687642608767,0.0,9.0,2.0,2.2102181262512026
12-19,7.936918437000892,0.16867347784089584,5.24820106447259,10.882460291680772,2.100648977047688,-0.9473642908540884,3.8120756213296985,2.9713312902684783,3.176019230647813,6.035591090565402,-12.06095030989746,0.0,9.0,2.0,2.4436337400085564
12-20,8.703332028406617,0.16867347784089584,1.1178479845273022,9.874700717137411,-0.04591884043483226,-1.8212125654241504,3.6957396380297975,2.7346756092883218,2.9999979426351824,5.753393078887986,-10.986674118793163,0.0,8.0,3.0,1.849546246008448
12-21,8.703332028406617,0.0,1.360025358297981,10.561803451657989,-0.1520889340244988,-2.2401608195378317,3.6957396380297975,3.2317596981170964,4.371095177972556,7.932287678554199,-12.271312133328195,0.0,7.0,4.0,2.0993734286788093
12-22,8.42583300710165,1.3574657793324048,1.8985002288459936,10.799252120790902,0.12134359272616717,-2.2401608195378317,2.822209380678982,3.9715994688320073,4.977876022172168,11.599491604282624,-7.3808638542246285,0.0,9.0,2.0,3.0293788775833703
12-23,8.753787270766907,0.1460152207538975,1.4432927180680517,11.750642265792628,0.12134359272616717,-2.7735440698667406,2.3138270404015007,2.696630369306054,5.927065608004434,10.737387943977195,-7.3808638542246285,0.0,9.0,2.0,2.8112986754754563
12-24,9.863691927495204,-0.6280076076737622,-0.6901852212513451,11.750642265792628,-0.6977083002327006,-3.890510267243489,3.5526275634765625,1.7225427729305405,5.269580687999743,10.737387943977195,-6.785183125347612,0.0,6.0,5.0,2.517073219993581
12-26,9.43255571613108,2.4751495192583777,-0.6323085643574082,12.818628315142007,-1.6126540460337897,-5.733873929070406,2.7444277687408642,2.330793014954979,5.269580687999743,8.119744526799153,-7.0083843701654285,0.0,7.0,4.0,2.3503048866165965
12-27,9.67982486288772,2.4751495192583777,-0.6323085643574082,13.538460709930005,-1.7693772198094069,-7.262740789675245,2.821357195384221,2.330793014954979,4.81377915349087,8.06210647527291,-13.376047415503967,0.0,7.0,4.0,1.7234164118194208
12-28,9.67982486288772,2.2722717098372134,2.590578292202944,14.471542081935699,-3.796497561314276,-7.922974423466552,2.821357195384221,2.8081704631077784,4.533952483826698,9.135463636047492,-11.318400340655913,0.0,8.0,3.0,2.106274033316085
12-29,9.754281995216337,0.062458421943189686,1.9611490831260563,13.800576780015163,-3.828409945755544,-7.922974423466552,2.3862855570277888,4.036981947078291,4.957039062029887,8.00899889528221,-16.83488090121106,0.0,8.0,3.0,1.3651255392738135
12-30,10.009912919801,0.6231808077776083,2.6679110930687946,13.753841240757634,-3.828409945755544,-7.4810571624191855,2.3218786469785035,4.299678243332655,3.856351230684565,8.026983948434005,-16.83488090121106,0.0,8.0,3.0,1.4512825101207474
12-31,11.534652651998213,1.714879762164653,3.914723532601767,13.753841240757634,-4.258912367888836,-5.160470254454552,4.130373850405873,4.586439556013693,3.397354911692744,8.026983948434005,-16.69358156021271,0.0,8.0,3.0,2.0788571059593743
