,2009,2010,2011,2012,2013,2014,2015,2016,2017,2018,2019,2020,ups,downs,avg
01-02,-14.418073579135346,-4.042282090368625,11.618336336341159,11.536452146605455,6.182205425684097,11.265256122346,-4.93742464454096,5.338948882746126,-6.6762863382741235,-9.420366122341301,-1.0257533101823024,-141.78161274222919,5.0,7.0,-11.363383326112418
01-03,-11.996830234360257,-4.76985681168542,11.618336336341159,11.536452146605455,4.784540677332531,12.108101632355512,0.13825200733054702,7.142857869078817,-6.6762863382741235,-12.448047226918144,-1.2605546041829692,-173.2797325443411,6.0,6.0,-13.59189725755983
01-04,-13.965489569131133,-4.76985681168542,11.819311634231822,12.142178715750447,2.4276660217412607,13.29033564333993,4.390032204021414,7.142857869078817,-8.128979199291756,-10.452961990043887,-2.1758050912099445,-186.3062615373292,6.0,6.0,-14.548914342543972
01-05,-13.965489569131133,-3.4860704022485094,15.044164913700724,12.527827886920324,1.005734904579813,12.5366579533255,4.390032204021414,6.543181772660923,-8.036917946150858,-13.91286359135516,-1.7549579360614334,-197.17742527292043,6.0,6.0,-15.523843756888231
01-06,-14.691186375803115,-6.646660225957019,13.999815220631444,12.7438445883422,0.1980354913105945,12.5366579533255,7.114498474626077,12.000000398922591,-9.343169559049231,-11.230629673126415,1.4391461697797685,-197.17742527292043,7.0,5.0,-14.921422734159831
01-07,-8.586331983491121,-7.470017809686452,15.385995650697286,10.931916149953821,0.1980354913105945,11.027565088463225,6.534121025224298,13.44704289075681,-8.981273641599724,-7.568238592824496,1.4391461697797685,-200.03360291937142,7.0,5.0,-14.472970206732285
01-08,-12.364809932326224,-8.25136945547302,16.24029954391889,10.227571952679922,1.6634969182962784,12.373247951030777,4.190563563045024,13.744079209106175,-8.84310087929476,-7.568238592824496,0.3858616632987214,-162.9138865999175,7.0,5.0,-11.759690388205016
01-09,-0.6961245032176693,-4.2489908922177415,16.76164004359998,10.227571952679922,-0.5891813709030413,12.857440757735352,1.730338107334094,16.113311081770725,-8.84310087929476,-6.613857974719749,-2.394961937694461,-152.93780895331003,5.0,7.0,-9.886143714019779
01-10,0.7958834607637444,-6.017067854798372,16.76164004359998,7.284070901819793,-0.8961394519960744,12.020046313964384,4.873924336052,16.113311081770725,-9.24458516528138,-7.402436621854247,-5.807005149108323,-149.7683681423529,6.0,6.0,-10.10722718728506
01-11,-0.2049197208848967,-6.017067854798372,15.20118908063555,6.50657037105407,-1.3799218122496606,14.673487255641938,6.058244779576563,16.113311081770725,-10.663433045764457,-8.766293903071663,-4.408281980057331,-114.87436754378824,5.0,7.0,-7.3134569409946515
01-12,-0.2049197208848967,-3.0787495770948383,14.764175454280748,7.025871178431751,3.2893641855251023,14.917754076476305,6.058244779576563,17.10145335439542,-11.079487738358257,-7.557866762557169,-3.946402475089346,-115.46989065783586,6.0,6.0,-6.515037825261207
01-13,-5.737710093223772,-9.326777161779855,16.74323647429545,8.131243267481285,3.2893641855251023,14.917754076476305,5.4468670250627635,13.680385620037661,-12.86142909560952,-6.6397041634695135,-4.144207580193739,-115.46989065783586,6.0,6.0,-7.664239008602808
01-14,-2.258425025447212,-9.387212865140503,15.079365283859337,6.7936714966969,3.2893641855251023,12.242343124839964,3.9623497399275043,12.16689171497076,-10.693674408125444,-6.6397041634695135,-4.144207580193739,-117.51072012625313,6.0,6.0,-8.091663218567497
01-15,-7.9413170809610465,-4.20611413577614,14.030250833482835,5.3908566822759685,2.9480183105477415,11.94045554732208,4.450087111242911,15.51052964971323,-8.742271501993395,-6.6397041634695135,-4.2287769900226655,-119.42828368919164,6.0,6.0,-8.076355785569135
01-16,-12.477938076004307,-4.296124162801837,13.6840379678709,5.3908566822759685,2.207483829194397,13.72489199430574,1.9861100967841776,19.178261088508865,-8.742271501993395,-6.6397041634695135,-3.601428372648668,-141.7222128974067,6.0,6.0,-10.10900312628203
01-17,-10.902120897902858,-4.296124162801837,13.6840379678709,5.3908566822759685,1.5928854753302557,13.870618192922835,2.573890879607841,17.21423226916784,-8.742271501993395,-9.35272501735206,-4.065983120585875,-143.8822146226356,6.0,6.0,-10.576243154674664
01-18,-6.301415030307579,-4.296124162801837,13.6840379678709,3.34800404409709,1.3384123140843345,14.513037993504765,2.573890879607841,17.21423226916784,-8.469695906162764,-8.520947569816355,-4.239736441966548,-133.9643797314674,6.0,6.0,-9.42672361451581
01-19,-6.301415030307579,-4.296124162801837,14.40384725940836,5.4185389070627785,1.9759806210427504,14.625166640416811,2.573890879607841,17.21423226916784,-7.831880215928674,-11.11435189690852,-0.8433082070359458,-142.89018676802738,6.0,6.0,-9.755467475358627
01-20,-6.301415030307579,-3.6475137729694516,14.384659909700035,8.98984997722624,-0.3172097785243008,14.625166640416811,2.573890879607841,17.001928687342627,-8.776817467599663,-11.183020875728438,-3.1193445072461383,-142.89018676802738,5.0,7.0,-9.88833434217578
01-21,-8.271171411105353,-1.0567006565046773,14.066064999191427,7.009509735473112,-0.3172097785243008,14.625166640416811,0.7454508836615206,11.50749696026244,-5.302798050353847,-12.143613082687054,-3.1193445072461383,-142.89018676802738,5.0,7.0,-10.428944586286955
01-22,-0.9185965103917576,3.804841688692444,12.991785023861107,7.009509735473112,-0.3172097785243008,14.69448652886962,2.5347842706587604,6.101551791339795,-6.025822036361826,-12.143613082687054,-3.1193445072461383,-116.94516447271769,6.0,6.0,-7.694399279086162
01-23,-9.670508827190508,2.474836825516808,11.392731016290396,7.009509735473112,-1.5383358133315812,15.220004078900649,4.3006237092173825,12.687837605300295,-6.025822036361826,-13.122778543947936,-3.0959769217123263,-105.13914034375695,6.0,6.0,-7.12558495963354
01-24,-17.30205031583613,8.453823813051441,11.392731016290396,7.934127069866338,-0.1923830571298848,15.485551790329001,2.057913313985894,13.521483997554135,-6.251279319180928,-13.49875870668676,1.4093069333430075,-102.51077315776631,7.0,5.0,-6.625025551848316
01-25,-17.30205031583613,8.453823813051441,13.012799520692464,3.3568577607312187,1.2766985218491451,17.890787353368346,1.8183741682528112,13.521483997554135,-5.966341960268013,-15.226132244285235,0.3819912243559593,-85.434299526361,8.0,4.0,-5.351333973907903
01-26,-17.30205031583613,10.217851062654658,10.797143282233824,4.057519960426097,3.1578971163803606,18.089938806008586,1.8183741682528112,7.2872821573296385,-7.220623187372317,-13.909852258520026,0.4768197445046803,-85.434299526361,8.0,4.0,-5.663666582524901
01-27,-14.990516229802571,13.621914565759695,9.95116282721691,3.090096443952356,3.4364782590126746,18.089938806008586,1.1059133404959642,7.5297375552236865,-4.392819158426,-8.28534076307549,0.6381088437066847,-85.434299526361,8.0,4.0,-4.636635419690709
01-28,-18.47586788885994,12.656289903311238,8.999733340231185,-1.259613037109375,3.4364782590126746,15.502775958562708,7.951103001928833,6.587728170502998,-3.391908242731673,-6.563071485403342,0.6381088437066847,-86.42632382818745,7.0,5.0,-5.0287139170862885
01-29,-11.768543439734064,15.637247703404903,2.600021862129588,-2.2923756001061815,1.3061675785717335,16.089087314146752,7.9511263763952735,4.040001900905703,-3.391908242731673,-6.563071485403342,-0.1418002480383848,-65.9085843910576,6.0,6.0,-3.5368858892931065
01-30,-9.359359864633344,11.016944034503224,3.815207664240978,-2.2923756001061815,1.5125486473557601,15.781197653305542,5.977403649991202,10.863121618215107,-3.391908242731673,-5.274219892676597,-0.7292551066828564,-69.16555156420462,6.0,6.0,-3.4371872502852887
01-31,-10.277589819826149,12.572053937843295,3.815207664240978,-3.0985940125962457,-0.6847709033460239,17.346935270814885,4.084597220404162,11.172541241694276,-3.78014372850579,-4.564463074959458,5.801918860507048,-68.42227331983693,6.0,6.0,-3.002881721963829
02-01,-12.66035782039641,12.572053937843295,2.920172985363233,-0.646265251175443,-10.680784406014318,20.01780015981661,5.553289600089969,11.172541241694276,-3.6003715387657222,-4.9540624809084735,3.202119256278991,-69.00308671611832,6.0,6.0,-3.842245919357692
02-02,-12.66035782039641,11.217862598158906,3.1430665810748573,-3.0484868576980984,-6.831724116999244,20.01780015981661,5.553289600089969,13.653889539548672,-4.255541322457112,-1.630341598556806,2.90180875914139,-78.91703143295294,6.0,6.0,-4.237980492602518
02-03,-14.601616249322015,12.036201856794401,3.5932977583500607,-6.149654472379134,-10.860478360779195,20.01780015981661,1.6843625370556408,9.793079753600258,-5.431381547590918,1.4305028749054562,2.90180875914139,-78.91703143295294,7.0,5.0,-5.3752590302800325
02-04,-17.070672050916112,13.557271358825892,2.812418212469084,-5.019078581742191,-10.860478360779195,16.635347238937907,2.8673444475446432,9.60242600842589,-5.135500393497501,2.9153752414820024,2.90180875914139,-84.55754292562516,7.0,5.0,-5.9459400871444466
02-05,-14.996661505058027,14.010554266798493,3.544354471130405,-5.6542185784585515,-12.19300441264991,17.09236612663707,1.0696296200972824,13.403931502541425,-6.871042951879693,2.9153752414820024,3.9081583386749035,-110.98029048731294,7.0,5.0,-7.895904030666463
02-06,-22.22619648041875,17.87283644818474,3.544354471130405,-5.6542185784585515,-12.453387316268616,15.446556778558993,1.99508593294641,13.522048931677434,-6.871042951879693,4.058486391654652,5.557733931898213,-81.33365791082416,7.0,5.0,-5.545116695983243
02-07,-24.30152530915236,18.137123819948478,3.544354471130405,-6.681385434206084,-14.395276339569385,14.759006046035474,0.6625938646996061,13.783548019188357,-4.180513975351225,7.243074421183919,10.474636175140104,-80.59266888722766,7.0,5.0,-5.128919427348364
02-08,-25.514544176170244,18.137123819948478,4.3025477591589665,-7.175836042871679,-14.501715663349955,14.89153645604249,1.7911975994503713,13.783548019188357,-5.187562893439195,11.34509095962613,13.607919806063599,-81.97530110677084,7.0,5.0,-4.7079996219269615
02-09,-25.514544176170244,15.491196393650016,7.03809941697425,-9.142966398673968,-13.965808835803951,17.110775641060084,1.7911975994503713,17.36173104679,-6.657400732676228,12.861369831124902,11.622888899624435,-70.79952338829267,7.0,5.0,-3.5669153919119174
02-10,-17.8140539510273,21.918417665899497,6.820420752198131,-7.944018801302802,-11.181519218370344,17.110775641060084,2.497435914255286,16.8898460435288,-8.214214586207888,9.992143567645881,9.361172915517926,-70.79952338829267,7.0,5.0,-2.6135931204246163
02-11,-7.052564460739043,19.92613737150052,6.38027326426083,-8.549545778925047,-11.181519218370344,16.858587417772362,5.159254979156388,18.981711514974148,-5.332215818257199,10.62391852176979,9.361172915517926,-73.32560433554694,7.0,5.0,-1.5125328022405509
02-12,-1.4722183506932158,19.114508675621124,6.104546742128379,-6.530110803639831,-11.815230352941404,15.389449686069007,1.9851097443269397,15.120367182776315,-6.404412121604349,10.62391852176979,7.995001917257847,-70.46584163848055,7.0,5.0,-1.6962425664508305
02-13,-2.0826707624041223,14.553988730857947,6.1381536141969,-6.530110803639831,-9.634010696178178,11.414580170307126,0.4519334825881953,17.987436106815213,-6.404412121604349,11.204506182156486,5.221396684412284,-74.53874363439999,7.0,5.0,-2.6848294205743586
02-14,11.27937810384209,15.170899974326966,6.1381536141969,-6.87775972360703,-11.929146034947006,9.769523190061092,2.0008137710960003,19.666314431977554,-7.337510314365686,9.233123921744808,0.9399245962005646,-68.20834447452161,8.0,4.0,-1.679552411999614
02-15,14.450861718902411,15.170899974326966,7.346097823499532,-5.823811177963227,-5.9542377741815615,9.696851431216016,3.2584720970608316,19.666314431977554,-8.333333333333332,7.791761625811615,-3.3505154639175267,-65.69586380122799,7.0,5.0,-0.9813752039857248
02-16,14.450861718902411,15.170899974326966,8.028223989696299,-7.8884666743039915,-8.451625887146928,8.204082566864637,3.2584720970608316,19.666314431977554,-8.291889912373309,8.910890194178005,-3.8105111050778486,-56.1818878306364,7.0,5.0,-0.5778863697109801
02-17,14.450861718902411,16.537840349265252,7.810704637497477,-4.134414913455248,-10.578129993889037,8.204082566864637,3.2584720970608316,13.518133810394868,-7.606215465445301,8.166041743354327,-8.510174933905981,-56.1818878306364,7.0,5.0,-1.2553905178326799
02-18,10.806554284530629,15.858014603226927,1.8478483925043503,-3.9737463234282897,-10.578129993889037,8.204082566864637,3.67862506509466,15.928350550259214,-8.272557142602075,7.449637657722932,-8.510174933905981,-56.1818878306364,7.0,5.0,-1.9786152586882029
02-19,15.526637185122958,16.660794800724727,-0.15718739394065948,-5.8290655359970875,-10.578129993889037,7.918041828594251,5.156722341188832,15.788837747715696,-8.402352773516823,7.449637657722932,-8.510174933905981,-62.66049570511322,6.0,6.0,-2.303061231274451
02-20,23.500832995584716,16.445933966564787,-1.9194589188541955,-5.8290655359970875,-6.451074905010308,7.2583951639730335,8.360999707843085,10.44276132427672,-8.402352773516823,7.449637657722932,-10.777168114486267,-70.49584560036249,6.0,6.0,-2.534700419355158
02-21,28.207297551642384,12.417987815892268,-1.9194589188541955,-5.8290655359970875,-0.048392931899686575,10.327455919395463,2.760736815185384,8.986636731180283,-8.402352773516823,8.792349271452354,-4.895486109508248,-58.771922164181994,6.0,6.0,-0.6978511941008249
02-22,34.24480801636526,12.417987815892268,-1.9194589188541955,-7.380934588442293,0.5553828725420792,12.959568330715966,3.3130011203366045,8.986636731180283,-10.079007290032989,6.6021342076062925,-4.701886251611652,-51.81325693887646,7.0,5.0,0.2654145922350981
02-23,34.24480801636526,14.50983623896451,-9.621467237507698,-10.646784107701052,10.258681957317224,13.923087928061342,3.3130011203366045,14.267708869830253,-7.361358542684862,4.442881364220692,-3.23600050142197,-52.50873348472845,7.0,5.0,0.965471801754322
02-24,31.21372027507939,9.465665899603373,-2.5409490557559318,-12.198154832657595,11.696880324393682,13.923087928061342,3.6495594803088927,14.447459001394341,-5.027811634422789,5.030794523115199,-0.7657143784432887,-52.50873348472845,7.0,5.0,1.3654836704956796
02-25,29.230139887113598,7.556520620701656,-0.3862740804478945,-11.183772595176132,11.696880324393682,12.205363874209276,0.5026751023562834,12.938485340227068,-6.841995104999085,7.046441113206314,-0.7657143784432887,-46.13873830885583,7.0,5.0,1.321667649523804
02-26,33.120855976946075,11.681843423385125,-1.31709436587273,-10.009518958319768,10.442345564782137,8.365282468704896,3.6042810123871987,14.165818255480328,-3.5646315992668236,7.046441113206314,0.12761365388204174,-30.821773890241747,8.0,4.0,3.5701218879227548
02-27,32.13074916967088,9.633374588200981,-5.267593015825434,-10.009518958319768,6.73133710968174,8.354515321596736,2.0630928687439343,18.800959315224308,-3.5646315992668236,9.211306893445164,-0.8488996921607241,-16.6180740724484,7.0,5.0,4.2180514940452145
02-28,37.76109194185954,12.668385380592966,-5.267593015825434,-10.95147697748501,5.89160251437608,8.616364683293996,4.656895335590433,19.397412711965753,-2.5914924101082786,14.73728392521487,1.0526315789473684,-26.92615996761487,8.0,4.0,4.920412141733952
02-29,0.0,0.0,0.0,-6.900758920951066,0.0,0.0,0.0,19.397412711965753,0.0,0.0,0.0,-26.427994905553252,1.0,2.0,-1.160945092878214
03-01,35.16780382474396,12.668385380592966,-1.1622437298663797,-12.165403335691519,7.975462644051483,10.007608357063505,2.772926809867739,19.0488086527517,-6.120072493815076,13.823356486421225,-3.1229926940591577,-30.41493696133725,7.0,5.0,4.039891911726932
03-02,35.16780382474396,12.50230279179672,-3.0041754162130565,-12.727633109487927,10.887537464531157,8.907608033583431,2.772926809867739,16.770186335403732,-3.980997248100667,14.518034473060386,-2.6181909228154976,-30.41493696133725,7.0,5.0,4.06503883958606
03-03,31.683729914658628,11.343451081167355,-5.358491811136021,-14.1013990453298,9.577549403854789,8.907608033583431,1.3427901179349495,11.951686387171831,-4.053622085731261,15.320639843663097,-2.5964359181801613,-29.52282015974084,7.0,5.0,2.874557146826332
03-04,28.39125835614347,10.264869229483624,-4.469914461878457,-14.401213177857652,9.577549403854789,7.815209458451779,0.2645271512003325,11.500803691306894,-6.650322649470838,16.20576332626029,-2.5964359181801613,-34.73507144817085,7.0,5.0,1.763918580095268
03-05,24.04395582038405,5.666963008117253,-2.8122348295981494,-14.401213177857652,7.4170356463613425,7.2951092787890275,0.9727035160148976,7.478237706194513,-7.6600354818157745,16.20576332626029,-1.208138387319358,-29.760902969559393,7.0,5.0,1.1031036213309198
03-06,26.71358556185737,5.31893600359184,-1.8383033520747951,-13.916123999138293,5.7198638918777025,6.800001190929878,3.5185220583407646,6.1435172446510755,-7.6600354818157745,16.864195772649822,3.4040742313312897,-5.4538533280870345,8.0,4.0,3.8011983161761536
03-07,29.99166826009648,4.753986550683156,-1.8383033520747951,-16.231768693428126,5.685768903073013,7.174979226121375,2.8140935690359177,6.1435172446510755,-7.079076973739616,20.039634144681987,1.7953109322862917,25.779710644744835,9.0,3.0,6.585793371344299
03-08,30.397575276549745,4.753986550683156,0.3939277691993007,-18.793486203240548,5.1102484354987325,7.2283814975837375,3.028960746739437,12.249727216661134,-3.424582076606475,20.03339247493881,7.728434927609115,28.585000219535278,10.0,2.0,8.107630569595951
03-09,30.397575276549745,4.088819493218064,0.17925730336924986,-14.750505847146828,4.1852808819461975,9.250193737978355,3.028960746739437,9.765234160860938,-2.0147099870330383,19.340913681225754,9.798175662765276,28.585000219535278,10.0,2.0,8.487849610834035
03-10,26.960245631950606,-2.6482452986996274,3.7622804871073936,-12.237245930926912,1.733742565229491,9.250193737978355,4.7203147095757005,10.689572073172043,-1.8043177898862632,18.673238697033092,7.157465572882023,20.987659509043766,9.0,3.0,7.2704086637049725
03-11,25.455551932541162,2.7935159169851462,-1.3429271231452338,-11.828915211092674,1.733742565229491,10.906298205598114,4.322348079026224,7.4935358551047715,-2.6153660443868665,18.15742496464627,7.157465572882023,26.191833838312768,9.0,3.0,7.368709045975098
03-12,15.684585844744065,-0.2259667412940977,-0.4431465505582997,-11.828915211092674,0.6491949074123712,11.131913222964942,6.317629155378723,9.346586597329722,-2.460341884479422,18.15742496464627,6.382520795867923,37.88226263461718,8.0,4.0,7.549478977961392
03-13,14.742015324507832,1.8437845321695572,0.6249983097189806,-14.896757109628176,0.8019459647941852,11.791086456536991,5.395526956925703,9.990374180101828,-2.460341884479422,18.645307919389477,4.6711912562921345,33.435348030571284,10.0,2.0,7.048706661408365
03-14,11.18809955374593,2.8574278475660098,0.6249983097189806,-12.763032199046636,-0.32725110695900683,10.565548217156472,1.4021312154853345,9.990374180101828,-2.071865983470715,18.775413349330787,-0.9454180998436597,39.541210708116544,8.0,4.0,6.569802999325155
03-15,9.887207436955796,2.8574278475660098,1.6417859672940942,-14.72367913790189,0.3133865752282317,10.61300977455588,1.235953341709094,11.398653119869465,-4.737239102611285,17.777964022553963,-1.9389567932595233,41.020290818400504,9.0,3.0,6.278816989196696
03-16,9.887207436955796,3.2684926575681503,2.5279842925565434,-14.77149757179054,1.6702276715682849,11.003901805292113,1.235953341709094,9.67742024353453,-5.284558740263028,14.699392725862241,-5.521751262646832,41.020290818400504,9.0,3.0,5.784421951562238
03-17,7.572870108629755,3.940245026417181,-1.352230628414346,-11.94926445390459,2.936090568028317,11.003901805292113,2.471906683418188,7.0473910530844535,-5.711465703521832,15.265465969821054,-6.35195863055061,41.418547965459815,8.0,4.0,5.5242916469799574
03-18,14.598543175479856,12.421371788174314,0.2034223001379076,-16.239233461517337,2.936090568028317,10.086510470671039,-1.6937769045266229,7.2820920235741475,-7.3644256548215825,17.777221556249934,-6.35195863055061,42.37025449142934,8.0,4.0,6.335509310194058
03-19,13.59475397053734,12.533384060124641,-2.070736804901267,-16.239233461517337,4.1858052483203325,12.098058498939665,-0.9471150239798168,6.637169967267496,-6.544130020903747,17.777221556249934,-7.462683009913093,34.824405679610344,7.0,5.0,5.698908388319541
03-20,19.251825107867624,9.253200100787002,-2.9670015824346927,-13.585505011308866,4.860957463984475,10.051986606302627,-2.163134433005606,5.9318896786716335,-6.544130020903747,15.389111536764274,-14.209147731377339,32.65779103485055,7.0,5.0,4.827320229183162
03-21,13.292215424631722,15.081206496519725,-2.9670015824346927,-14.612280021051905,4.027888715564602,9.071928077207913,0.8577438697340964,5.9318896786716335,-4.672795188556127,11.060180841457278,-18.307286267695037,36.98230240811719,8.0,4.0,4.645499371013868
03-22,8.943086524819712,15.081206496519725,-4.778628387355191,-20.377441560268224,5.1385173761414835,11.119445155770972,0.01123709245075672,6.0061900608310745,-4.7013273542737135,11.880014989326904,-12.935507838087961,37.61964677294311,8.0,4.0,4.417203277401554
03-23,8.943086524819712,12.631091053690549,-2.84915330301662,-23.595134370599013,6.234870811770787,10.87712644173641,0.01123709245075672,7.640702806686455,-5.720335900937655,10.794638709235263,-10.085429666721826,37.61964677294311,8.0,4.0,4.375195581004828
03-24,11.699046299396704,15.638387986092296,-4.513391464683687,-22.08555601276742,3.5792140916550736,10.87712644173641,0.19099628610237376,6.787098350084789,-6.345295802413044,7.728600098400732,-13.104961794432132,28.119920525875692,8.0,4.0,3.2142654170873155
03-25,13.345172216831546,13.176036485381811,-7.775539654104259,-18.162669432925068,3.5792140916550736,9.951112918263775,-2.9526229253271894,8.293340891068633,-2.8074373785726823,7.37902509028949,-13.104961794432132,28.032642740572516,7.0,5.0,3.2461094373917923
03-26,15.671337400337078,11.419817205318218,-9.615917719753742,-18.162669432925068,-0.29566574182324473,10.973126783918934,-1.8733277201815772,12.748770338428233,-5.933063683502773,7.37902509028949,-15.53090095496248,33.35019749789053,6.0,6.0,3.3442274219194665
03-27,19.525096568263,11.769173741501115,-8.720396353129885,-17.235567768588528,1.8677299853076923,11.51664505400351,-1.6271988983397527,12.687443478932376,-5.933063683502773,8.446700198164557,-12.246351140294404,42.03831968084048,7.0,5.0,5.17404423859645
03-28,24.09913102577795,10.451785694337387,-8.720396353129885,-14.855946315917532,3.4745143247237937,9.980823753047561,-3.423507887675852,12.687443478932376,-8.099829002898304,11.96472532335972,-12.576831656685176,41.1804290831949,7.0,5.0,5.5135284555889115
03-29,24.70431913965168,10.451785694337387,-9.84945427489799,-16.126970422442383,2.3628633381900537,9.75711023895749,-1.9135003400780743,11.609657440545512,-10.089659888850347,10.537946561429822,-11.713619383104328,37.12026088332149,7.0,5.0,4.737561582255026
03-30,24.70431913965168,10.085734964778817,-7.591626426052171,-20.85282073894001,0.4647247313757032,11.39566234104566,-1.9135003400780743,12.910851185316346,-7.870777302145193,12.778579406893297,-12.069366984284684,37.12026088332149,7.0,5.0,4.930170071740238
03-31,27.22923811091933,14.553640424948242,-10.067803614407119,-20.367421342374858,0.8640055031927746,11.39566234104566,-1.4157711839948963,11.010294257411811,-8.533607068004407,13.117245509753287,-14.006825629884904,35.430527630291316,7.0,5.0,4.9340987449080185
04-01,25.891809855962887,12.998360367705427,-13.064655166446636,-22.276162034189237,0.8640055031927746,10.587167041014716,-0.6287917101264409,11.487895987514,-7.0671396846471914,12.955602278921116,-14.006825629884904,32.35582122785369,7.0,5.0,4.17475733640585
04-02,22.275187198816095,10.261588451890416,-12.70113693452188,-22.276162034189237,0.4474286887353109,11.215620309157591,-3.5518824400019224,15.268745825232811,-9.029572418464866,12.955602278921116,-12.960136928925948,27.144760396809787,7.0,5.0,3.2541701994549386
04-03,17.193443423411885,11.408122415418179,-15.067560597022544,-22.502698270851578,5.422638009181823,11.726009042994068,-6.332662461977019,14.71373668557789,-9.029572418464866,11.145877636512287,-8.60215357286169,23.597011895922844,7.0,5.0,2.8060159823201065
04-04,17.81749219965173,11.432197496474886,-15.067560597022544,-17.00190314868815,6.74055299266955,12.505483021034195,-5.317496467763184,14.71373668557789,-10.480152550142057,11.367311111301527,-9.980040134718788,27.783880206764984,7.0,5.0,3.7094584012616703
04-05,17.133104760492216,11.432197496474886,-13.65801015576439,-12.975994406794836,6.4351621639716114,12.865912592757322,-6.5715640576484695,14.434741840694102,-12.109375924474607,8.582941868597612,-15.397210535580454,24.86661461678901,7.0,5.0,2.919876688292834
04-06,17.133104760492216,11.785489816254545,-12.990844276107044,-13.417078680534393,6.021333599135962,13.748459119676466,-6.5715640576484695,11.174855388338369,-10.765936251803815,12.596468955096807,-12.661381561473476,24.86661461678901,7.0,5.0,3.4099601190180144
04-07,20.86006659289676,5.742322219714367,-12.136922896928484,-11.974993078282282,6.41640031213053,13.748459119676466,-5.8975513345055965,11.670172472042687,-10.548428463402512,11.701404478457127,-12.216583919508643,21.246184848397398,7.0,5.0,3.217544195890652
04-08,18.099860628630378,2.9577228271869482,-13.637266529377895,-15.60146289983313,6.41640031213053,13.06147763913448,-5.888980408408433,11.684097770701804,-12.202619700512605,13.438836984631786,-12.216583919508643,14.434157085960484,7.0,5.0,1.7121366492279748
04-09,12.256864873075113,5.279815509501599,-10.255402169647748,-15.60146289983313,5.4133760130794135,14.55095480091168,-8.42868780372913,12.837122901624573,-13.142787634601405,13.438836984631786,-11.19007106395756,14.302102583848395,7.0,5.0,1.6217218412419658
04-10,8.165385095026547,-0.6857711393721635,-11.180187724970784,-11.900147695354853,1.8093062650495464,16.841839448391813,-9.661664770578533,11.471287694890652,-13.142787634601405,9.855142437403416,-7.960641499869771,17.417011774767225,6.0,6.0,0.919064354231808
04-11,7.9060776080278155,-0.3182365957874658,-11.180187724970784,-19.04485771506171,1.6411039032311892,15.9952353487168,-6.644894092851766,11.471287694890652,-12.350773837938249,6.1749545818735125,-6.885352843173862,17.479981564962493,6.0,6.0,0.35369482432655186
04-12,7.947116010656219,-0.3182365957874658,-7.785679202844935,-20.08673581650584,2.574371175272834,11.5554750898101,-7.188143951497983,7.284684747662791,-11.175727163323502,7.1977036752487855,-16.28754460870708,11.562818711327484,6.0,6.0,-1.226658160724049
04-13,7.947116010656219,-0.5054295526363972,-10.433303280913748,-21.707891606524896,10.726079223777216,13.842439254676128,-7.188143951497983,7.952664166512574,-8.941791083559119,4.973042109842644,-13.416261337433527,11.562818711327484,6.0,6.0,-0.4323884446477837
04-14,10.101009013497297,-4.493741985086974,-12.669181848919038,-22.40352282480244,11.877135333474829,13.842439254676128,-9.191762602665193,4.009375891790222,-9.554867298820662,7.2359656083112975,-9.700297307903002,13.728296457537356,6.0,6.0,-0.6015960257425151
04-15,13.68205733752018,-0.6558582881300853,-10.674772140946617,-19.876347391691393,11.877135333474829,12.851229498467578,-11.76268953691883,3.6645850459588774,-8.795452117919924,10.417173912949798,-9.700297307903002,21.368027302193887,6.0,6.0,1.0328993039212753
04-16,13.291882847909891,-1.9446054708448133,-7.284443723960902,-19.876347391691393,9.632160780990732,12.48483474382169,-11.287761431962712,5.272168267392965,-7.54886707943561,10.417173912949798,-9.947365453339641,25.102539551081467,6.0,6.0,1.5259474627426233
04-17,10.274786958611788,-7.731444697886549,-6.566444590355897,-22.24425399288392,12.357831837911375,11.55904679985616,-12.730438674705615,7.1907955710012805,-7.54886707943561,10.312272046983232,-10.563452028080413,15.730113057942676,6.0,6.0,0.0033287674132086074
04-18,17.594224485279828,-9.779399053154703,-6.566444590355897,-22.322679297035,12.43164947426238,11.406813076701205,-11.639057060897644,7.1907955710012805,-6.526629304743757,8.623483016905997,-11.496348930296032,18.732731360147408,6.0,6.0,0.6374282289845882
04-19,17.594224485279828,-9.779399053154703,-6.1784702627138754,-15.370101409731927,16.162881909533006,11.171174544439078,-11.639057060897644,5.165394369463113,-3.6555565728081603,8.350075837150229,-15.017728979374,18.732731360147408,6.0,6.0,1.2946807639443625
04-20,17.594224485279828,-13.357730022128115,-8.457809262617898,-14.338029165944874,13.975313261332504,11.171174544439078,-11.639057060897644,4.877755963253091,-3.6666700575086812,8.406332121529026,-15.017728979374,18.732731360147408,6.0,6.0,0.6900422656258104
04-21,16.210245315594314,-13.723695865677989,-7.00143422396691,-16.48301734910887,15.578766025711966,11.171174544439078,-10.325520241031343,5.106682570537148,-3.380474261454438,6.1764747497898345,-22.281866925789586,20.0552701895263,6.0,6.0,0.09188371071412534
04-22,15.930787827155525,-14.059346031228774,-7.043067886955289,-9.179048519862077,15.578766025711966,12.192197633454175,-13.909293193542636,4.552961389395737,-1.4831601996874402,6.1994641414407345,-22.281866925789586,13.457679507287404,6.0,6.0,-0.003660519385020914
04-23,6.398885583438406,-15.63962320068396,-6.877178052144001,-9.179048519862077,15.14360613822063,9.593049302113576,-14.707597459350119,3.6249394907720376,-3.809517935497738,6.1994641414407345,-21.745090733683586,12.470307165431533,6.0,6.0,-1.5439836733170462
04-24,-0.8622019665029022,-12.64897854363605,-7.890877050665612,-10.074820971741573,13.207405802536373,11.366164148236749,-13.667887393754244,3.6249394907720376,-3.809517935497738,6.403662458337604,-19.197254677772683,13.98531890180609,5.0,7.0,-1.6303373114901618
04-25,-3.037299904714432,-8.362235115588263,-7.890877050665612,-15.684782940408454,13.205123997229073,14.421500006295753,-12.26937181719999,3.6249394907720376,-5.503868685873588,6.346372031613258,-15.25347429466002,7.4204939711767155,5.0,7.0,-1.9152900260019607
04-26,-1.0522870428438609,-8.362235115588263,-9.240251185905754,-19.726387217363502,14.768168697405295,15.450944369427402,-15.232575537915672,-0.024162207044762955,-6.408665780429929,5.412139774927031,-8.574593007987971,6.112980175233238,4.0,8.0,-2.2397436731738947
04-27,-1.0522870428438609,-4.653173467877236,-7.928535820871988,-19.160563109203924,14.266629687367566,15.87165441617327,-15.232575537915672,-3.5534879355350286,-5.1560350890027005,7.405055531020812,-8.805382321661943,6.112980175233238,4.0,8.0,-1.8238100429264552
04-28,-2.6226305971819905,-3.0126124190050216,-9.870491923785703,-22.898712293093762,14.296762041513732,15.87165441617327,-16.53450298723898,0.7874988110844916,-3.213565236727029,6.930773385172597,-6.993156939988494,5.18549569073483,5.0,7.0,-1.8394573376951717
04-29,-4.9824321065200925,-5.389791093923073,-14.180386438341186,-19.51458515581179,14.296762041513732,14.53328343070368,-16.928481002808294,0.33775485421368506,-1.5447440894919666,5.206165010836361,-6.993156939988494,-7.6229162302291105,4.0,8.0,-3.565210643320546
04-30,-1.5679992675781251,-6.234604674981218,-12.1852595066546,-19.51458515581179,14.83798409812644,14.752956871555336,-17.04518083352443,2.771905834237648,-1.6120118023541192,5.206165010836361,-5.945289181475232,-4.647569878277551,4.0,8.0,-2.598624040491773
05-01,-3.5249881489198485,-6.3196331376162505,-12.128562466032465,-21.06008563555524,17.22048115303082,14.544653372074857,-17.444487116868903,1.2643101203413278,-1.6120118023541192,5.695496466340699,-1.1558818737202454,0.8453861216139046,5.0,7.0,-1.9729435789721208
05-02,-11.396324347077412,-6.489120600667444,-12.128562466032465,-20.021960589255702,17.303577764620723,16.103383602440562,-16.613863047047396,1.2643101203413278,-1.4353572442731315,6.0335088614428445,1.9031939800804825,1.1421258772674374,6.0,6.0,-2.027924007346681
05-03,-8.363413474487837,-6.489120600667444,-9.308670767344033,-15.904442839514008,13.626857213381856,12.50881711566926,-19.38738665423236,3.828720449289822,0.05445531390127077,7.899330756242236,-2.422536930567781,1.5170615674146075,6.0,6.0,-1.8700274042428675
05-04,-8.363413474487837,-3.375842549442612,-9.895563835612462,-12.923641492746224,12.811287324185095,15.243380620594895,-19.38738665423236,6.250739793464541,3.5593819252199768,7.984910440178286,-4.873560762953484,1.5170615674146075,6.0,6.0,-0.9543872582014641
05-05,-6.81407724210714,0.960546425284958,-3.122834229146925,-10.006298816730867,13.570596356745734,15.243380620594895,-13.561562661294108,3.376927930342992,1.1099066980686674,8.389639905710208,-7.101766931541612,2.9709226182294954,7.0,5.0,0.4179483895130244
05-06,-11.956676937612816,-0.08799762256486701,-5.83136918252072,-8.345398086355281,13.570596356745734,11.502990090712915,-15.38834959996141,5.489489122911974,0.010899135407363923,7.841076466929804,-7.101766931541612,4.140526045320391,6.0,6.0,-0.5129984285440435
05-07,-5.647363862607304,1.1469520378769775,-7.007594925568849,-8.345398086355281,6.9533012839125625,9.311987755994076,-16.149068322981368,4.144321657650547,2.7780672092157848,7.841076466929804,-7.735645203700081,-2.4385104529257378,6.0,6.0,-1.2623228702132387
05-08,-6.320884511654401,-2.2467559324127224,-7.234372712504476,-7.5387809158145584,6.1904803425276365,12.331952297217645,-19.979468284167485,4.226039696637955,2.7780672092157848,6.708205852643168,-10.066719470209415,-7.861635094382565,5.0,7.0,-2.41782262690862
05-09,-1.57047399993862,-3.973833008774921,-7.234372712504476,-6.972008625059638,8.468417631635154,11.941457222875467,-18.46631118733818,4.226039696637955,2.831087093694889,3.7584757717632233,-8.272055230364499,1.150333275328547,6.0,6.0,-1.1761036726704257
05-10,-3.2633078168915435,-3.973833008774921,-6.7816213092132465,-7.336489502182599,10.642854423359367,11.076793928848092,-20.39690500646328,2.8985473580887096,-0.9395656833333824,2.7789142364379016,-8.932463017207299,0.6973470486106756,5.0,7.0,-1.960810695726793
05-11,-3.2633078168915435,-2.265182324058725,-1.0704858932809866,-7.232517108446822,10.07803807121268,10.616643279506675,-20.39690500646328,1.4357567795022534,-1.4745399453107682,4.4359408441863515,-6.747350050467763,0.6973470486106756,5.0,7.0,-1.2655468434917707
05-12,-2.591034222107912,-5.01938028910379,0.9852707654730416,-5.801048079086224,7.2256563704355505,10.616643279506675,-22.76252879196668,0.5927430687028927,-1.4896575136823804,5.524599816644312,-6.637773351468228,0.9364363794896514,6.0,6.0,-1.5350060472635911
05-13,4.728353853418044,-5.619075439374236,0.7249756611465555,-5.5909691060955415,7.2256563704355505,9.297110015543039,-20.020962841189736,0.12698218936011904,0.14756971181123044,7.555697311657723,-6.637773351468228,1.330599245619189,8.0,4.0,-0.5609863649280239
05-14,4.4584304755740884,-2.284993337152444,1.7547177929407949,-5.5909691060955415,5.136398125267164,10.58519427314783,-20.715804864540697,-0.2983287784565995,0.02110463648169525,7.555697311657723,-7.5957983685382136,3.0179435452818715,7.0,5.0,-0.3297006912026944
05-15,8.142668645038071,-2.6551370954281293,-0.6053591383351381,-3.6785417005520533,8.604188841628323,10.520816811671898,-23.609780301798363,-1.1406413587781643,0.02110463648169525,6.34834181017392,-10.401309538644352,1.812193252118096,6.0,6.0,-0.5534545947020165
05-16,3.2543563591998605,-2.6551370954281293,-0.6053591383351381,-1.570518177021065,8.590643475067104,9.604021032072255,-19.453487149607515,-1.1406413587781643,0.9709743207866096,5.711625466002302,-12.919681185627265,-10.93716547255964,5.0,7.0,-1.7625307436857325
05-17,-0.21156773293461048,-2.6551370954281293,-1.4797741136189642,3.6333092968260408,6.5372166919819925,10.451676326403724,-18.08593462097444,-2.2436712746501737,3.1569142557990117,2.3228745740476047,-10.843659047514802,-8.123708508678318,5.0,7.0,-1.4617884373950885
05-18,-0.21156773293461048,-2.2673019437658377,-3.084213895382361,3.264363278120098,5.891745408438903,9.970953511854768,-18.08593462097444,-0.6383005337806953,3.909029343026124,3.163967031616824,-8.854291148909189,-8.123708508678318,5.0,7.0,-1.255438317614061
05-19,-1.5796827829103717,-1.6404866731365062,-3.911762611538757,-2.2344605288016446,6.790847831314927,9.970953511854768,-16.104971207229536,1.9828582346383492,1.3979418116323807,1.1555804753774224,-9.120561409695297,-4.453607932808472,5.0,7.0,-1.4789459401085612
05-20,0.6310001026671589,1.2410247020232372,-5.146620336727921,0.2488800473819973,6.790847831314927,10.331776949344592,-15.17697737458102,-2.820840288168156,1.4291747694321189,-1.4971707079612735,-9.120561409695297,-13.031342757005596,6.0,6.0,-2.176734039331269
05-21,5.781438403175841,1.8729936185039349,-5.080134020801693,0.2488800473819973,7.705001230750448,4.8245601804730995,-18.525709250000595,-1.7273717160608448,-0.8557202319527671,-1.4971707079612735,-11.391961506260236,-11.675563284649055,5.0,7.0,-2.526729769783429
05-22,9.732549166295817,4.267449821163086,-6.399261510764897,-0.8760626277230559,13.901501696758801,4.035542922440822,-18.07953853143542,1.3354450246892458,-0.8557202319527671,1.4414251517023418,-14.60466758585798,-12.745309431845374,6.0,6.0,-1.5705538447107823
05-23,10.561653489337463,5.475727562765473,-6.399261510764897,-5.805237247414224,14.134486738124954,7.011892057132095,-16.171493364047098,1.3354450246892458,-0.2274686797734354,2.3425688406997813,-7.7492110848830755,-6.14940073985921,6.0,6.0,-0.1366915761660771
05-24,11.215073540736439,5.475727562765473,-8.246574734464298,5.583137315665252,15.144630920970593,3.5901629338959267,-17.163892517477723,-0.14567817553275395,-4.2407160611453465,1.9851321235830992,-10.32911855963212,-1.3596032053379,6.0,6.0,0.12569009533555325
05-25,11.215073540736439,4.165049432550819,-16.357321332998445,3.7734045246625203,14.423708345806661,1.7910690581832909,-17.163892517477723,1.377013369101404,-0.6301821050921508,4.955608808742412,-11.280022954458714,-1.3596032053379,7.0,5.0,-0.4241745862984489
05-26,11.215073540736439,2.635693589700049,-11.791081530326764,3.5681417414398564,16.067088661748926,1.7910690581832909,-17.163892517477723,8.71783528293578,-1.7285637151876432,6.6061248899323575,-12.327526992117965,-1.3596032053379,7.0,5.0,0.5191965670190583
05-27,12.720537487032374,-7.304049812581768,-22.065466578386136,2.8174243489683595,16.067088661748926,1.7910690581832909,-14.57260511116395,10.026476505740813,1.6785504703063383,5.343323074012835,-12.327526992117965,-3.61564192308119,7.0,5.0,-0.786735067611506
05-28,2.8368829805295777,-4.9029355381066635,-20.11886270801352,2.8174243489683595,16.067088661748926,0.8202858167207329,-20.864966030266643,9.980080678443803,0.8079642942641053,5.343323074012835,-12.327526992117965,-5.797987987572575,7.0,5.0,-2.1116024501157526
05-29,3.950124182918846,-0.12910117850283545,-25.46269924108616,2.8174243489683595,16.23786082903007,1.029876250624693,-16.28426162972557,9.013640934509557,0.8079642942641053,5.343323074012835,-7.553508771430139,-1.0107057976293237,7.0,5.0,-0.9366718920037972
05-30,-4.013013826932529,-3.787957022517904,-25.46269924108616,7.695828092962436,16.463104066596106,2.3084025203630154,-14.825353987113528,9.013640934509557,0.8079642942641053,2.084862622241229,-5.783036637337508,-4.83610540853387,6.0,6.0,-1.6945302993820872
05-31,-3.410161337162668,-3.787957022517904,-25.46269924108616,9.719060841561284,18.68228107178676,1.2278612409890342,-11.047168519130995,9.013640934509557,-1.3352724139781942,4.0400743016170635,-5.082134468081773,-5.5408458183916585,5.0,7.0,-1.0819433691571374
06-01,-3.410161337162668,-3.787957022517904,-16.158474501160956,16.129921674809108,16.74039722799961,0.9120839065542276,-11.047168519130995,10.556046641731132,-2.1122814552882834,2.592593848460005,-5.641875311474514,-5.5408458183916585,5.0,7.0,-0.06397672213107497
06-02,-2.7227342992228074,-12.992868404306064,-17.8013827558183,18.078837538834037,15.760866277782169,0.9120839065542276,-12.310767296786118,11.743420441725226,-1.9206756249986452,3.575202353773916,-10.57051540925215,-11.652070081327107,5.0,7.0,-1.658383612753468
06-03,3.9698293133716516,-16.523314739873854,-14.819811514577815,17.683480443371895,15.760866277782169,-0.2914952444157458,-11.709339602561018,11.971290559856829,-2.50517167234283,-2.797986537793524,-10.57051540925215,-16.765080282406668,4.0,8.0,-2.2164373674034223
06-04,1.98152806072626,-9.459030579529124,-15.309785839721412,17.683480443371895,15.498715588453665,-2.347736393958941,-9.320651720002273,9.960121072892669,-4.965866585794012,-2.797986537793524,-12.343378499852689,-14.967688393714283,4.0,8.0,-2.1990232820768143
06-05,-2.3246184346741554,-6.28414827386158,-16.02127399850399,16.34492533065283,17.925788825526332,-1.706103544601432,-12.085986640120964,9.920200018333551,-4.965866585794012,-0.987525437923536,-9.46089686003696,-27.43876279878448,3.0,9.0,-3.090355699982366
06-06,-1.8940897034504105,-8.344939521008051,-16.02127399850399,14.478781875956724,15.981738520555988,-3.6896513121393486,-10.819545519237156,9.920200018333551,-6.883970631949603,-0.19842612395175635,-10.998417644241483,-34.00216322559289,3.0,9.0,-4.372646438769035
06-07,0.1625612937931847,-8.344939521008051,-14.946811757189165,14.155953905530822,13.104990140597913,-2.317110515947524,-15.622162920984044,5.3203313974865445,-5.720801666571657,-2.7533360238189744,-8.726386233869531,-36.176276648098074,4.0,8.0,-5.155332379173212
06-08,0.1625612937931847,-12.865562220185721,-24.31816256522488,14.319615300817967,14.875178325137153,-2.0786757851491933,-15.622162920984044,6.944295773974309,-4.7805975116323545,-2.526794119283529,-11.096615250909482,-36.176276648098074,4.0,8.0,-6.096933027312055
06-09,-1.1243590280221605,-13.428760234180407,-26.504509724058465,15.482207279229607,13.31665022943455,-2.0786757851491933,-15.59620694260056,7.824760394530151,-7.635319874822872,-2.182010839963389,-10.334104637905108,-30.388073722599174,3.0,9.0,-6.0540335738422515
06-10,-2.29744765836906,-18.978340430567588,-24.690214327234504,15.590857392323336,13.31665022943455,-1.3143211019326375,-17.82874978062882,10.540748934252976,-6.695156140399339,-0.5881370978529681,-10.334104637905108,-26.14513150325893,3.0,9.0,-5.785278843511506
06-11,-1.7152598055938897,-19.764522609763514,-17.691353993268088,15.590857392323336,14.96970249983268,-3.2745539946737305,-21.092707436264593,10.766363110835671,-5.604507823827054,-0.5881370978529681,-12.017610246824047,-17.884310314329653,3.0,9.0,-4.858836693283822
06-12,-2.360544470927711,-22.954515514938933,-16.44795508974466,13.534115322311962,16.04273963267033,-5.043757203036738,-29.266526159205828,10.294283722818127,-5.604507823827054,-0.9802263287336512,-12.60759683980808,-18.587858162453607,3.0,9.0,-6.16519574290632
06-13,-2.4727808726443823,-24.57123037814528,-16.44795508974466,13.37258658286049,14.870383100642151,-5.6327534409317765,-30.514921626833324,10.294283722818127,-6.403474220606843,-1.5893457473106551,-20.543551029643947,-17.643077575279452,3.0,9.0,-7.273486381234963
06-14,-3.0683921871620954,-24.57123037814528,-16.803826643726445,13.267839584752474,16.147918667575855,-4.232172933126266,-25.679678694901696,8.541827083937548,-5.093355493619196,-0.0595944963134877,-17.882350406844726,-20.68886063383058,3.0,9.0,-6.676823044283657
06-15,-3.0683921871620954,-26.183400143602896,-16.553365348667036,11.477511211373436,14.69063436009201,-4.990330667974175,-25.679678694901696,8.653736907029085,-2.9937270327108814,3.767384039795538,-19.271555753346775,-20.68886063383058,4.0,8.0,-6.736670328658838
06-16,0.16220970686233996,-27.44169463098332,-13.088483401162913,12.947984173318085,16.386556994005286,-4.990330667974175,-26.891117821864217,11.088933207096098,-6.139082762005433,1.1443574299837982,-17.840897089743056,-26.213593602807112,5.0,7.0,-6.739596538772887
06-17,-0.3974793299977737,-23.109614854686924,-11.687598680027287,12.327625468408096,16.386556994005286,-3.4803413664069214,-17.456122928781486,11.246434132809727,-5.917015127671469,1.8184846395968528,-17.840897089743056,-16.75194360731855,4.0,8.0,-4.571825979151123
06-18,1.5699679534183022,-25.87940188891127,-9.436013954014113,12.327625468408096,15.326728591740904,-4.5391771268491325,-14.875178325137153,7.638500362749886,-5.258756570060494,1.8184846395968528,-21.74273340393653,-14.542309789746694,5.0,7.0,-4.799355336895112
06-19,2.8888914320204,-27.328188227441487,-8.975057259601142,11.1985245365699,14.969277167289086,-6.836427441494249,-12.718681388056874,5.989372302305433,-5.258756570060494,1.431214822119104,-22.225290249395893,-15.350681652071845,5.0,7.0,-5.1846502106515056
06-20,4.446331446511324,-22.98198533229007,-8.975057259601142,13.984266713175025,16.61467404237959,-7.3716839333681925,-15.864253776033607,5.989372302305433,-4.995817373792195,-0.5472314636798938,-22.784630540337915,-15.9477974573747,4.0,8.0,-4.869484386008861
06-21,3.48969518865839,-22.98198533229007,-10.368297314195932,18.33033916762145,16.969123615037812,-9.005667681817908,-13.344489600765,4.045648421386066,-4.1233472608311965,1.9426500015526984,-24.504649827359124,-19.95422712532537,5.0,7.0,-4.958767312360682
06-22,3.48969518865839,-18.356675626723273,-9.450264981184835,19.095105930230282,19.57961904167519,-8.975316493478086,-13.344489600765,5.526047584696066,-3.1768498005665986,-0.2368254853647981,-22.163767589264584,-19.95422712532537,4.0,8.0,-3.9973290797843863
06-23,3.761437817923273,-18.79029735127516,-9.560277475626746,22.33808839838616,20.631654749292192,-8.975316493478086,-14.258141759866009,4.573690471123497,-2.4985398149722657,0.7222964581210228,-19.835910975656915,-20.045762399533576,5.0,7.0,-3.494756531296884
06-24,3.718533384166868,-16.873392372975353,-11.228068296855733,21.779988198126674,20.631654749292192,-4.900685802846501,-13.679059810389269,8.829159577305303,-1.7701136537193234,0.8991412028854631,-19.835910975656915,-12.013729767374176,5.0,7.0,-2.036873630670064
06-25,1.6198463993819492,-21.532156043370566,-15.374888324911842,21.779988198126674,18.924814747292285,-10.907175189888854,-13.169793388698409,17.125387724969784,0.5236187734347691,0.8991412028854631,-19.147811670156948,-17.62114140020171,6.0,6.0,-3.0733474142614505
06-26,4.129421898256553,-18.83665793814385,-10.654024326889145,22.64603060965919,18.323724161763774,-9.735689136773688,-14.527244450009851,16.67727248497518,0.5236187734347691,-1.518365361603792,-23.134918276164512,-13.027350513206775,5.0,7.0,-2.4278485062251787
06-27,9.071157469502623,-16.782986694663368,-10.654024326889145,23.7345426883648,18.98961568269871,-14.229358204010047,-11.061030044841113,16.67727248497518,-0.1707473289519678,-7.298701562922754,-20.4997353067288,-21.601761693078984,4.0,8.0,-2.818813069712073
06-28,10.04836527621195,-16.782986694663368,-12.948059700286882,24.557046656438718,19.53559573055989,-15.348932411891825,-12.11490921337898,13.326971729744391,-0.4740385735649741,-7.8885285952663216,-16.450004577636722,-18.60965313412096,4.0,8.0,-2.762427792321257
06-29,10.04836527621195,-11.044645609243982,-15.518205573244922,19.830961399404703,17.241591707282108,-14.55739453302774,-12.11490921337898,12.564180892200243,-3.7105338395917578,-8.843597478429041,-16.21722610639796,-18.60965313412096,4.0,8.0,-3.410922184361361
06-30,8.758737316798197,-10.070493144685738,-22.53868193356328,20.892998132179283,19.048757104717016,-14.55739453302774,-13.804761087291359,9.96222688064984,-2.9455206742881943,-5.317501497388466,-14.883373738461753,-21.02245367594284,4.0,8.0,-3.8731217375254214
07-01,12.731058081422784,-7.462044588433871,-19.70735234051677,21.278102497110613,19.048757104717016,-14.253505157376358,-9.877016814771665,8.819105486755435,-4.408275655099975,-4.669060176570831,-14.883373738461753,-31.2105279219778,4.0,8.0,-3.716177768600264
07-02,15.431196921963597,-6.5554180976775775,-19.008643070627702,21.278102497110613,17.511211536028362,-12.77896963936193,-11.043417335783836,8.451326615809101,-1.3940771610679108,-4.669060176570831,-8.05874229010267,-29.37260293162177,4.0,8.0,-2.517424427658546
07-03,18.75729142131005,-8.297181972981349,-17.652419217970976,16.011686519546355,17.745110924825738,-15.228977844108698,-11.330624098045954,6.4330073582040965,-1.3940771610679108,-4.694713313795542,-9.437746754850263,-28.695435802644678,4.0,8.0,-3.1486733284649278
07-05,24.750692608379246,-9.03035212679157,-17.652419217970976,21.78201168876145,15.319667483567125,-9.988597238452149,-6.442323916939049,6.4330073582040965,1.6125471205311348,-4.583263910936953,-3.42129883939483,-23.37248921783209,5.0,7.0,-0.3827348507395477
07-06,24.750692608379246,-9.03035212679157,-13.130525350477415,22.13058573758121,16.695481344887096,-10.019964512690658,-6.442323916939049,9.004942371435678,4.923840278030126,-5.793770210609324,-10.994829070378675,-23.37248921783209,5.0,7.0,-0.10655933878378576
07-07,27.213745779564494,-14.065937419514078,-14.85137405254534,21.04763545714447,18.644857111058744,-10.019964512690658,-8.481359234716589,10.289106831650118,4.954326124833453,-5.592298431008109,-10.858339724780755,-17.743514174503638,5.0,7.0,0.044740312874343324
07-08,25.19074641387502,-19.20098809691172,-16.134908486823168,19.441755648838797,18.644857111058744,-10.257629684472796,-6.0632613351957,8.339813305629724,3.7689193711504334,-4.95963982298941,-10.858339724780755,-15.173586327694824,5.0,7.0,-0.6051884690263045
07-09,23.503544508932986,-20.335114163062066,-13.64784092607816,19.441755648838797,17.212872239990144,-11.030666633042486,-11.854183926428867,8.296460036953613,4.841789704627076,-4.95963982298941,-9.628629931676013,-8.916730900885147,5.0,7.0,-0.5896986804016274
07-10,23.105313805787606,-17.763889400854186,-18.674339894600415,21.326055547930864,16.669590679599295,-10.146590073015432,-10.480926064164485,11.355854895633028,4.841789704627076,-5.658652871241442,-11.089330944827726,-16.980159544964913,5.0,7.0,-1.1246070133408943
07-11,24.039030395915013,-16.79946901575914,-18.674339894600415,19.084108512495877,14.993777934238025,-11.706314047752333,-11.951605580797539,11.355854895633028,3.7693810153478178,-4.571767988836932,-12.148143627025465,-16.905071186019615,5.0,7.0,-1.6262132155968068
07-12,22.35737435604652,-16.79946901575914,-18.53050344950503,20.096528749259992,14.301784797579774,-14.726305675137887,-15.292987443775782,8.960647513067745,3.536052525728587,-3.9176296174809577,-13.440664721851766,-23.55689786478671,5.0,7.0,-3.0843391538845553
07-13,22.35737435604652,-18.204954445692746,-28.912055298249182,17.91361093834545,16.590158439948606,-13.266108412696015,-15.292987443775782,9.469824224880377,2.8979433154160237,-1.5888388213923572,-12.9709811075364,-23.55689786478671,5.0,7.0,-3.713659343291018
07-14,21.335605292373973,-18.924948775765905,-31.18556359615624,17.061021719954116,16.244608941233448,-13.266108412696015,-16.68948834694609,5.704738436303098,4.590298189759973,0.8198016430281337,-15.605059112654766,-29.96151014611926,6.0,6.0,-4.989717013973794
07-15,16.951904031846553,-15.286072888672136,-31.96400891847164,15.696203300051193,16.244608941233448,-11.063249578306763,-13.636360322775657,5.780868853480499,5.130588499832046,0.5586122112203185,-15.605059112654766,-29.49521721291256,6.0,6.0,-4.723931849677456
07-16,12.275148393362059,-12.087669895119864,-29.143869552009644,15.696203300051193,15.649437834103189,-16.67994994217138,-13.20236363440076,5.9959323678622605,5.569254198460057,0.5586122112203185,-13.32552273578552,-27.69025025534024,6.0,6.0,-4.698753142480694
07-17,13.153626952205787,-11.146223025709181,-36.65364839408385,13.88788501108849,15.259454393430095,-13.417752421348078,-15.944115866580207,11.39846656963467,5.569254198460057,0.7900390097020134,-13.450534819668295,-25.961542674227186,6.0,6.0,-4.709590922257973
07-18,11.440465957517992,-8.729484617401964,-36.65364839408385,14.57597212440227,13.899136836744713,-13.909882975261574,-11.122206412716864,11.39846656963467,5.7747665065816065,2.6929119440514278,-13.937045185896018,-31.80437295660974,6.0,6.0,-4.69791005025311
07-19,13.423540651077586,-8.729484617401964,-40.03230245963503,12.315932776354638,12.17509496631222,-17.299540965003636,-7.04669922852991,12.686247642711134,2.592441793164608,4.06051604418554,-17.272971549410556,-32.721209197517794,6.0,6.0,-5.487369511974429
07-20,13.423540651077586,-11.010447521483593,-40.70208630543306,13.10097098224427,13.16293302743072,-19.927726748405565,-7.04669922852991,13.613889559119738,3.183785682936899,5.513944486951079,-21.83570390275816,-32.721209197517794,6.0,6.0,-5.937067376197318
07-21,13.076284898814823,-10.164565799895682,-48.655111087139794,15.581033990364196,13.268736966930584,-19.927726748405565,-6.2225255348907496,15.737774133788388,4.393904743421768,5.492307222806491,-24.942686635421857,-40.289371439973976,6.0,6.0,-6.887662107466781
07-22,11.906232156112935,-7.309970794578806,-55.781309735334396,12.495502929431947,13.268736966930584,-20.340738139402944,-3.3972008756749714,15.742375566886,3.3057020118199483,5.767758851688976,-24.942686635421857,-43.97589715418775,6.0,6.0,-7.7717912376441936
07-23,8.605750859086237,-6.905558426718758,-44.189511002029676,12.495502929431947,13.761894370333714,-19.46218819781529,0.9602879408435778,17.22724353037123,3.135060951994453,5.767758851688976,-25.487095284138093,-40.33322765566643,7.0,5.0,-6.20200676105151
07-24,9.477638458805014,-6.5652925813565615,-38.29426414592011,14.02592867683855,16.140858693224178,-20.327220995600836,6.8071887909486355,19.131236166433624,3.135060951994453,3.6508681990837695,-23.771887122865138,-34.50357143978145,7.0,5.0,-4.2577880290163215
07-25,12.154171857114381,-5.278120944802817,-38.29426414592011,14.117749045093136,15.590813787534096,-20.748768657878006,11.64895500130595,19.131236166433624,1.5156223987550932,1.420556634737994,-20.516079282879925,-34.92636595886847,7.0,5.0,-3.6820411749479214
07-26,12.288981401515555,-5.278120944802817,-38.76301492202223,11.363847763631634,15.67435980494389,-21.130219688418173,12.629813328917994,17.385500906431325,1.8643221075745384,1.6711197179761341,-20.828552658186624,-32.28003972855067,7.0,5.0,-3.783500242582453
07-27,12.288981401515555,-2.0706465540373262,-32.50572763139553,8.022215974390466,15.601305816253966,-19.913285022439588,12.629813328917994,17.871114596899513,0.21831695513322846,0.5237679465299506,-22.10096620121775,-32.28003972855067,7.0,5.0,-3.476262426500016
07-28,13.304210559402776,-2.0292208294861243,-38.090785311185066,10.346695342105338,15.630828411131477,-19.913285022439588,8.260712004598219,17.150560448789392,1.1191728819219562,1.8511613857539293,-22.350200684565507,-28.76600827200133,7.0,5.0,-3.623846590497878
07-29,20.949939128168374,-1.1260836083768695,-28.44729290532634,9.077627800371005,15.630828411131477,-20.812183601190494,10.684746040827251,16.024261301859042,1.6945643834821635,-2.7120998202534694,-22.350200684565507,-28.749674429192858,6.0,6.0,-2.511297331922185
07-30,18.638389768573038,2.0691016563970743,-26.803098977447878,9.077627800371005,15.986472414837642,-23.564591544895162,10.034366357395086,18.063514369870813,1.846694428857608,-2.7120998202534694,-25.47018829778288,-24.014909818874003,7.0,5.0,-2.2373934719125934
07-31,18.27114453212979,-3.6396707520294913,-25.53428854550277,10.493148734036103,16.796291327159484,-21.83012380121347,10.27548118484685,18.27622590422583,1.846694428857608,-1.953033286046008,-24.582780310206672,-22.61188065078877,6.0,6.0,-2.0160659362109588
08-01,14.481754016838465,-3.807597099980221,-25.53428854550277,8.540475941392803,15.039944881153398,-28.987581375424217,10.36584951269568,18.27622590422583,2.5482319332781787,-3.2478184994558372,-17.068591617074684,-20.005175114746965,6.0,6.0,-2.4498808385500284
08-02,16.17454125179471,-3.807597099980221,-22.557137522692624,11.638165264554413,15.481055538082586,-33.361167035335825,10.88831484122712,17.04050170516566,4.480084596682898,-3.0692420941507743,-20.92681644252501,-23.25890549822412,6.0,6.0,-2.6065168746167635
08-03,16.17454125179471,-2.9873386817642404,-22.139119753150762,3.1746031746031744,14.330170789572167,-26.81184062673007,10.88831484122712,13.748688223474312,7.990065205184671,0.13053441552843534,-14.07942238267148,-23.25890549822412,7.0,5.0,-1.9033090867630067
08-04,15.299655642647982,-4.029893725564805,-9.704683937490568,7.033585502245117,15.420484747195363,-26.81184062673007,10.538588300503873,10.838278079308072,6.954019339467562,-1.3414030435080786,-15.869756008204114,-28.814461617117338,6.0,6.0,-1.7072856122705844
08-05,16.233629853622766,-2.3990418871601578,-17.823355673903894,8.243665546775162,15.420484747195363,-23.205171270695285,12.680747221890009,3.8600929455190607,7.983580321125101,-3.1296838316402056,-15.869756008204114,-33.27205241522016,6.0,6.0,-2.6064050375580297
08-06,15.720285229702242,2.042830018177128,-2.9993047334798373,8.243665546775162,15.947113465410993,-16.840148254513668,11.222856794084821,2.6521997897062564,7.231538618184573,-3.1296838316402056,-14.813726061767658,-35.996798182320106,7.0,5.0,-0.8932643001400257
08-07,20.794907720712892,-0.4624035675010811,-0.8307678442259498,5.640402742530372,13.876177437366323,-16.26835796897859,13.029118901611845,4.628649284124245,7.231538618184573,-3.570834807159972,-16.14498569816962,-34.8715203798549,6.0,6.0,-0.5790062967799882
08-08,19.288217357813338,0.17978455876733007,-0.8307678442259498,5.969497580933416,13.716737785516994,-16.192320285857186,10.133151673383177,4.628649284124245,5.700395124638697,-3.5596739626115275,-24.705148301974358,-39.08489741534274,7.0,5.0,-2.0630312037362137
08-09,18.01162583755875,0.17978455876733007,-3.4027515310232945,3.2369293734794096,13.823790133378631,-12.777261718664345,8.963955891207636,4.92320684343705,5.649544216188482,-3.9432306126040166,-17.30712156468657,-43.678817252642354,7.0,5.0,-2.193362152133607
08-10,18.01162583755875,-0.5792990269169329,0.4007310382371223,1.8910023504060915,14.253308268755784,-17.627895525936417,8.963955891207636,5.784432916796758,7.971906116530891,-5.608599262852823,-12.002297701235015,-43.678817252642354,7.0,5.0,-1.8516621958408752
08-11,20.636969874481935,1.6700419786571556,-2.780839292306746,0.7806831715342146,11.028921578855376,-17.627895525936417,7.734537863397957,3.834681060336339,8.703725208992063,-9.341249997167814,-8.31247640338858,-40.717538929301774,7.0,5.0,-2.0325366176538577
08-12,18.873696099306105,2.003901959886522,-3.3706627504452573,1.2646738347598532,11.028921578855376,-15.879225366614078,6.841494799296247,2.584923870265744,8.799756631179598,-14.471453456452146,-8.31247640338858,-32.92715880564959,7.0,5.0,-1.9636340007500168
08-13,15.242264927205857,3.3757448660303826,-10.020571993652748,1.2646738347598532,11.320329899051194,-13.865092865821907,6.730656653938508,2.287682269425071,8.486743143642176,-14.471453456452146,-9.146502611004825,-26.419622209695266,7.0,5.0,-2.101262295214488
08-14,14.011050061511225,1.7336852867983028,-10.14642293796452,0.3161684586899633,13.79595424667516,-12.844736185721835,4.149177491062749,1.7256309403332324,8.486743143642176,-15.950631621001234,-4.237870460791251,-37.33180876495764,7.0,5.0,-3.02442169514364
08-15,17.206408761995498,1.7439492074823195,-10.14642293796452,0.7949388235569796,14.636941640955307,-19.970593658000034,3.2527145239137716,1.7256309403332324,9.495584750828264,-7.766989807223183,-3.3940383147586153,-34.586461686453525,7.0,5.0,-2.2506948129445417
08-16,14.750208615557721,1.7439492074823195,-8.190349819353878,-0.2619701206161133,14.762631809063214,-15.224044049372438,5.6374557467678095,2.040370377546561,12.319433592227904,-8.774405328204303,-6.854320771302224,-43.15596222193983,6.0,6.0,-2.6005835801786046
08-17,14.750208615557721,0.6265648086217892,-1.24946543285886,1.0941075854587892,17.50053980397881,-13.20734823849293,5.6374557467678095,1.656852712514278,15.324468142803793,-12.47549550502008,-8.355382542805781,-43.15596222193983,7.0,5.0,-1.8211213771178736
08-18,14.168737733056648,1.674746077941648,7.932341907491307,3.961781740863517,15.327454726886465,-13.20734823849293,5.165700207718563,-1.0242293765625343,15.512913323392814,-8.776413912758516,-11.763853043533244,-42.57151912376715,7.0,5.0,-1.1333073314802853
08-19,14.002792586048448,4.387802469781317,2.079839655601471,5.940422607817348,15.327454726886465,-14.925375212945971,9.880726473259603,-1.48197743244965,16.201061239812102,-8.95196566641974,-11.763853043533244,-34.26552537935855,7.0,5.0,-0.2973830812916998
08-20,9.919184105148489,4.840222276100857,-0.5472767067239505,5.940422607817348,14.257198720573438,-16.33051112475243,10.62317446626008,-0.010963697273403813,18.183594004932367,-8.95196566641974,-10.155126997853095,-28.796718201842708,6.0,6.0,-0.08573051783606189
08-21,7.539343922340826,6.148961160417351,10.089548468381588,6.627179468001504,14.887891517532813,-12.772224092447232,13.024281543185324,-0.2529093043374961,18.183594004932367,-9.635467893241199,-11.412500275190986,-23.442382663064464,7.0,5.0,1.5821096547091995
08-22,8.638552010777483,-3.486015330056526,10.089548468381588,6.818954293802848,13.73337938194656,-13.876979201233782,21.69586825790511,-0.2529093043374961,17.645911516477337,-9.757695167678945,-6.127899531759995,-26.584812254698463,6.0,6.0,1.5446585949604763
08-23,11.101993999879431,-3.486015330056526,7.361515647050741,7.109370684871956,14.629897860268054,-19.561368964217568,19.90285514226655,-0.2968953549790901,17.328797345044734,-13.727409146283787,2.6326535176176997,-23.00222171180831,7.0,5.0,1.6660978074711574
08-24,11.101993999879431,0.0338433884289696,10.106968643134703,6.76311451211324,12.58554256657202,-12.320503803622401,19.90285514226655,1.466114734226467,19.023920816667914,-10.446639181715678,2.3780598370890824,-23.00222171180831,9.0,3.0,3.1327540786026664
08-25,12.766704572144821,0.9400858788627752,13.198267239051335,10.501725557839258,11.05638521670046,-12.320503803622401,20.943680299168967,1.6884564272660256,20.989152150713924,-10.54691093049894,-1.162142050313839,-23.14095433053864,8.0,4.0,3.742828852231147
08-26,15.960463043500116,2.2457937592396946,11.189087575074165,9.025001525878906,11.05638521670046,-13.839753655500205,17.902166229213933,3.4785400721228066,21.387497026341077,-8.703618751436846,-1.162142050313839,-21.516854426216998,8.0,4.0,3.9185471303836072
08-27,19.247370983220826,0.06706635279204204,10.165832830995631,9.025001525878906,11.520610379207342,-9.740324614275023,11.11762179048932,2.37789332282521,20.06134375332273,-8.703618751436846,-0.3360480248071767,-29.988427943262725,8.0,4.0,2.9011934670791866
08-28,20.725109534241163,4.815741284977839,6.800366565094159,9.316666920979817,7.06375742385257,-8.879955868303242,9.441261483748727,2.451033830726086,20.06134375332273,-8.080622603319929,2.9569161729183846,-14.63656043209891,9.0,3.0,4.336254838844949
08-29,21.03531502630083,6.731998167579964,6.800366565094159,6.668388887589169,8.113014641600103,-11.553296703977633,9.55186428454733,2.451033830726086,20.300968018263163,-13.285646645587661,0.29450281164137393,-7.466228083460408,9.0,3.0,4.136856733359705
08-30,20.221606648199447,6.731998167579964,6.138660493352997,7.535799429261048,8.398946720793168,-9.073416794402693,6.012964659842273,3.5962759278353844,20.146975430698916,-12.700219177872196,-0.5012229045131972,-8.184205005163175,8.0,4.0,4.027013632967661
08-31,20.221606648199447,7.466973489478579,7.447025699177492,5.629138170286938,5.18851772055798,-10.403855862934904,6.012964659842273,4.469393838285659,18.732074607277323,-16.770373685860342,-1.1461267941022253,-8.184205005163175,8.0,4.0,3.22192779042042
09-01,21.750689477471433,4.43098304314179,12.10460889212846,5.170020079444182,6.508918683515746,-10.403855862934904,8.761405519077654,3.128761071844339,18.006890411115986,-19.447832231993694,-2.093370927268261,-7.87401395627616,8.0,4.0,3.336933683272214
09-02,21.314429789909177,2.7811027736184246,14.859784781515293,3.5638681137748938,6.508918683515746,-10.403855862934904,4.872081329399308,4.0677563990640895,16.199861692562582,-19.99592196530465,-2.093370927268261,-7.9278808382460095,8.0,4.0,2.8122311641338067
09-03,21.175138829118115,2.271987955412244,15.044940830453179,3.5638681137748938,6.508918683515746,-12.404798726062227,5.835869971742022,-0.2749308840747501,15.282160389201485,-19.99592196530465,-2.093370927268261,-1.0780476187240762,7.0,5.0,2.8196512209819757
09-04,22.15839813220149,2.570020745584127,13.635915209082837,3.5638681137748938,5.3869272636800964,-6.5709012913697995,9.317138153765725,0.4095771735441254,15.282160389201485,-19.99592196530465,-4.450589203336182,4.8732065244363545,9.0,3.0,3.8483166037717087
09-05,18.15959475181109,1.6191628192529812,13.635915209082837,6.559919513042876,5.805818604005142,-9.164506456558339,6.4111827905580485,0.4095771735441254,15.282160389201485,-16.04488989008685,-2.885132036384776,9.96691685810251,9.0,3.0,4.146309977130927
09-06,17.01600049315087,1.6191628192529812,13.635915209082837,3.6513195968917422,4.035131070115366,-3.8292265417009266,8.796239259600199,0.4095771735441254,13.388545588283632,-9.790877709649894,-7.26915541662906,9.96691685810251,9.0,3.0,4.3024623666703645
09-07,17.01600049315087,1.6191628192529812,6.5450409130424365,4.830961409196311,2.5254663819037977,-3.1323113736401433,8.796239259600199,-2.1442532331151103,12.829595625573573,-8.286824531358066,-13.636361173361838,9.96691685810251,8.0,4.0,3.07746945402896
09-08,17.01600049315087,1.99761584528572,8.779636814606018,5.235645436739577,1.9590248672009072,-3.1323113736401433,8.796239259600199,-2.447663705795481,14.451896006782222,-8.14492544217253,-11.018599376096342,9.96691685810251,8.0,4.0,3.6216229736469607
09-09,14.35802575982785,3.8618721743191924,11.134259143373413,4.258943726587458,1.9590248672009072,-3.030606805702221,6.920751500424488,3.1566809876314013,13.318219450984449,-11.684250696715171,-11.018599376096342,7.69569565864725,9.0,3.0,3.4108346992068905
09-10,11.159941470624672,0.32432762352195943,10.311427252997662,4.258943726587458,2.0488846192556376,-2.584472678727616,5.530678744679713,2.811743350576228,13.505806474853618,-11.684250696715171,-11.157370507804725,16.207273917143258,9.0,3.0,3.3944111080827244
09-11,13.869361890006418,0.2270260372677365,9.338810731821813,4.233391104009117,1.2757685271136183,-1.2974245356204022,6.5641252137306925,2.4036877997512502,13.505806474853618,-13.540446002058651,-10.5155470766006,13.891950273505811,9.0,3.0,3.329709203148368
09-12,12.576552425611892,-4.047355232018755,9.338810731821813,4.367696004209535,1.2694613463426885,-1.7677804132072823,7.436114099965674,2.4036877997512502,12.974623220796142,-10.320757020194575,-9.165642741752984,13.627344020093824,8.0,4.0,3.2243961867849347
09-13,12.941847903911158,-4.047355232018755,8.6649853296018,3.201947749386279,1.625391548151539,-2.360391885438309,10.2302080654368,5.1117826060529525,10.325817739848675,-15.809340894540856,-7.984226080804132,13.627344020093824,8.0,4.0,2.9606675724734153
09-14,12.941847903911158,-3.9458851413966833,4.213514446713581,-0.8315483994982454,2.0036641295176167,-5.3442277367220035,10.2302080654368,8.814436135832798,9.718674529710807,-14.901500529422238,-16.485314608246867,13.627344020093824,7.0,5.0,1.6701010679942134
09-15,9.813667015151779,-1.9821812013424336,0.5172237333522074,-1.147027870891129,2.009452693739956,-5.3442277367220035,9.26708884920162,5.240681634470937,6.611899914144472,-15.291814059788413,-19.093304169547185,14.906281254652713,7.0,5.0,0.45897833803521
09-16,7.223270308404945,-2.33918339393434,5.680503069157322,-0.042976409465905,2.009452693739956,-8.765767566870572,4.297852735968691,2.674654934578371,6.800874935084425,-13.269735682680114,-19.093304169547185,9.900767397669798,7.0,5.0,-0.41029926232455055
09-17,5.342202777456351,0.12329142439648087,10.658659129491006,-0.042976409465905,0.8451493508115612,-11.8209873314094,2.877338548582511,2.585460110911784,7.4129322868081475,-13.269735682680114,-12.94673492486463,9.173098097866546,8.0,4.0,0.0781414481586949
09-18,5.353216982049972,1.371549896756577,15.403890550030525,0.4039546427735141,-3.220573722425901,-21.056275229700024,8.594028697972455,12.163474443648413,7.4129322868081475,-15.110340958292275,-12.398066910687785,10.231531523195633,8.0,4.0,0.7624435168441039
09-19,7.939746362600432,4.256241420261418,15.403890550030525,3.4597073409899664,-3.4727246833570082,-19.635494385914622,8.958960303730679,12.163474443648413,7.333336066250777,-13.937609536460938,-15.10578117627183,14.421162780329787,8.0,4.0,1.8154091238198
09-20,6.671257093699026,4.256241420261418,16.020816907103406,3.4602955277881,-2.3454515861742418,-12.668875332655954,5.3673063746298775,11.822079120217365,7.955433359975071,-15.390573905357993,-14.422939613542447,14.421162780329787,8.0,4.0,2.0955626788561186
09-21,6.671257093699026,2.1935987854250003,18.62869277433154,2.8062103168495938,-2.0425459089191897,-10.827880698879113,5.3673063746298775,10.720766927860232,8.764944078786414,-15.63256403787949,-16.501888158709153,14.421162780329787,8.0,4.0,2.047421693960377
09-22,3.5136039582796763,3.728957998338213,25.165754848861212,3.3879511950536942,-1.0351197732280888,-10.827880698879113,6.975017743106984,10.728742512636046,6.432458984361138,-14.688740323526973,-11.214425897880693,15.214989952246885,8.0,4.0,3.115109208280749
09-23,5.3534440400691645,4.341796231678038,27.803348565224038,4.641174258402552,-1.0351197732280888,-9.847486912430677,9.816023160803883,14.08194448917931,4.568880615100078,-19.14096111017477,-11.214425897880693,19.779487779089067,8.0,4.0,4.095675453819325
09-24,8.062474638418658,2.405167100155005,26.89484149930951,4.641174258402552,-2.9677444565121327,-9.82795633295531,8.982477226270937,14.148310966397785,2.5996355239301057,-19.14096111017477,-9.035384082023453,19.184117400151244,8.0,4.0,3.828846052614177
09-25,9.54508367375075,1.5748021776403849,25.575074042819395,5.306606289572021,-3.628008116369069,-10.589532353004477,4.462529750532125,13.783441332291419,2.5996355239301057,-20.72643389841095,-8.754782016978996,17.420061691269428,8.0,4.0,3.047373174753511
09-26,6.0058683244364,1.030365487729335,25.575074042819395,6.55627078085009,-7.529369880823362,-15.52329564919493,9.959798008541043,13.783441332291419,2.0129454293784006,-22.696564112949705,-1.5278491987639884,17.442117119201093,8.0,4.0,2.9240668069595985
09-27,6.488510945941613,1.030365487729335,23.70183292077485,3.536430830712022,-7.9612978288115155,-14.268088618047528,11.418725774262386,14.45957828379373,2.406740369534448,-22.575040297134763,-0.6307894339390806,17.442117119201093,8.0,4.0,2.920757129501382
09-28,6.488510945941613,0.4555294824804437,26.175093964832612,4.824598779595009,-6.2582395163468565,-17.37527557550327,11.418725774262386,10.45458990641213,3.5561308063842203,-25.425229420043745,0.8284275087191628,17.442117119201093,9.0,3.0,2.7154149813279
09-29,4.726342556154265,-1.7239469587106913,28.886748164533127,3.8238025664657886,-8.332269762041589,-17.37527557550327,10.525644665852852,10.709247743827788,4.416560874555822,-26.86392268082887,0.6026475951211926,20.198456792979275,8.0,4.0,2.4661696652004745
09-30,3.6460091144285967,-2.4462823368629474,29.7278575045078,5.424876211902551,-8.332269762041589,-14.091480122741913,6.8815518449950615,8.617596701114168,3.091342752151188,-24.593481297926427,0.6026475951211926,20.749724727734908,8.0,4.0,2.4398410776985497
10-01,5.810575040877771,-6.030872552095643,30.548219632376266,5.424876211902551,-10.168949154131257,-11.501263865497801,1.7358833787592518,11.017499574594689,2.761659064245699,-24.593481297926427,4.138203312794149,23.13119783180507,8.0,4.0,2.6894622648086943
10-02,10.653830421997775,-4.440807012616347,26.575072441172104,4.638064082491994,-8.840616283178303,-12.376976348347704,-0.26020940236012924,7.7727651331761685,2.761659064245699,-25.084190915301967,9.007946962827614,23.24144973641997,7.0,5.0,2.8039989900439046
10-03,10.119826368948534,-6.213935090379793,26.575072441172104,6.269513265753548,-8.036723956691601,-13.159132691393747,-4.3337624086224595,7.7727651331761685,3.442067597930155,-26.791794769216573,6.1597584547165765,19.603086414041453,7.0,5.0,1.7838950632861967
10-04,11.574317548965164,-6.213935090379793,20.94021132366927,6.361879007251548,-9.296350528397884,-11.255405381762507,-6.398414615906301,8.703579094624187,3.321956622711125,-30.125892630758198,8.971897271984817,19.603086414041453,7.0,5.0,1.348910753003573
10-05,11.574317548965164,-8.000442592913823,18.67852491913359,9.142760557979488,-8.255564320983384,-4.3339883417761165,-6.398414615906301,6.293303532295201,2.029426624116504,-36.2124563962375,11.48330884750349,19.603086414041453,7.0,5.0,1.300321848018147
10-06,9.355906072183835,-8.849844567211203,19.594593908528346,11.378307522969761,-6.685186315465857,-4.3339883417761165,-9.287589713321989,6.596154433030349,3.7233521012410153,-38.102328348974225,13.438385275826436,20.63946441143888,7.0,5.0,1.4556022032057685
10-07,8.451312869328497,-7.516089808303863,21.628124134089266,10.31441206058705,-6.685186315465857,-2.710117662107056,-14.283756010099529,6.803247668290334,4.8604952088560855,-39.63217589126185,13.438385275826436,19.051818479285814,7.0,5.0,1.1433725007521105
10-08,3.5072561741462094,-8.746993308638876,18.944572141815623,10.31441206058705,-5.839510317201968,-2.2823155002729085,-21.85356368984989,5.690192456573246,6.7993054406778475,-39.63217589126185,14.716458021950393,16.934951628627644,7.0,5.0,-0.12061756523729066
10-09,5.375439683228255,-8.630655647595733,19.117943150054053,9.309917664843212,-3.744028532541608,3.2203722023779267,-24.270466977591195,5.129207196196477,6.7993054406778475,-42.34244065946915,15.58154296875,17.17750245410797,8.0,4.0,0.22696991191983876
10-10,7.353989013889993,-8.630655647595733,19.117943150054053,11.956261492476886,-3.7621624597399133,5.50178399101616,-23.23449618672334,5.129207196196477,6.528879733877527,-40.92935617481499,16.634405263525146,15.744210870751994,8.0,4.0,0.9508341869095216
10-11,7.353989013889993,-8.630655647595733,18.374415216391398,11.690922726080695,-6.212912980808714,11.887224608225045,-23.23449618672334,6.338371337462951,6.384006714220818,-35.524855852134266,16.223086218246085,15.744210870751994,8.0,4.0,1.6994421698339106
10-12,7.353989013889993,-7.921442460838898,17.549402427558633,11.968925266693859,-8.01813795067229,13.121046618993699,-23.23449618672334,6.094587824483608,9.12082471783256,-40.01833292924764,18.21779241110378,15.744210870751994,8.0,4.0,1.6648641353188305
10-13,8.325661930178358,-7.104125020128528,18.41757375482123,10.197928635174797,-7.607276518268152,13.121046618993699,-22.160151499387556,7.398426700884152,9.793668008583444,-47.92420805209571,18.63738882257711,14.796029350037811,8.0,4.0,1.3243302276142217
10-14,8.459302232329232,-8.266818414731064,14.541562810912199,9.296588044466029,-7.607276518268152,13.038073692303946,-16.40656254218996,7.399779979116562,11.150721295389003,-37.73457988218034,18.63738882257711,17.045203533242542,8.0,4.0,2.4627819210805924
10-15,7.397099131001512,-11.007543127623293,17.77598029934874,9.296588044466029,-6.959471708167351,6.251998609268097,-18.687008393996827,8.543009613825706,10.289776174857046,-37.73457988218034,17.372626157654373,16.03086414041451,8.0,4.0,1.5474449215723511
10-16,7.12499021799088,-12.613912036764221,15.584817916640564,6.425343473387379,-8.493029788602843,2.717973843586027,-24.13108618488592,7.742255414111747,10.289776174857046,-37.38622886966732,18.493724971322507,17.48621956338328,8.0,4.0,0.27007039127992744
10-17,4.956178437917732,-11.119639344415909,15.584817916640564,5.253637699534577,-7.229838887901664,3.2969368705426114,-19.299482244297764,7.742255414111747,10.068294205110174,-35.308028100987094,19.689683505843547,20.198456792979275,8.0,4.0,1.1527726887564829
10-18,4.956178437917732,-11.119639344415909,10.804651114220672,5.6564970885293935,-8.648610373198078,1.6643694098894355,-19.299482244297764,8.381705995638224,10.797339315559672,-33.517290043214906,22.492178356415142,20.198456792979275,8.0,4.0,1.0305295421685752
10-19,4.956178437917732,-9.090909851498305,8.886353668469749,4.670770497444755,-10.140424620125918,-0.06473051776019405,-19.299482244297764,6.483033810488845,11.701240358787675,-34.44927180337989,17.878378245733735,20.198456792979275,7.0,5.0,0.14413273122997486
10-20,4.895731988821903,-9.122618797364613,10.923004977586467,7.1860255314063695,-9.818881879114825,-0.06473051776019405,-19.383889602687642,6.289489725477388,10.258555229857508,-33.298935007898415,19.221583170372227,20.0,7.0,5.0,0.5904445682246818
10-21,5.940689466879733,-8.084453663261023,8.009338360116242,9.354786276096117,-9.818881879114825,-3.5922351032157533,-18.651746289624825,7.141445429943555,11.280879676843147,-28.29709658639959,19.221583170372227,22.55788288079891,7.0,5.0,1.2551826449528258
10-22,6.012339075060224,-5.370870781186401,10.221779624575118,9.354786276096117,-10.313392478718699,0.0,-21.203562568309163,9.580836470185568,12.584511895851232,-28.29709658639959,16.941263227676483,18.56670000496289,7.0,5.0,1.506441179982815
10-23,11.177519324873812,-5.773822151144816,10.34550141322917,10.931433222595663,-8.13234627408435,-1.2575928978474171,-22.603329407319336,9.650646337518898,12.584511895851232,-22.635472903735245,14.499639929570911,17.287762770404004,7.0,5.0,2.1728709383260445
10-24,12.395361297417185,-5.556154177062436,10.34550141322917,10.855212855376156,-10.25157715573052,-6.252882037220847,-18.90774655004597,9.650646337518898,13.026229972495527,-17.972655273482882,15.319445782239175,22.976843483007983,7.0,5.0,2.9690188289784527
10-25,12.685969361401751,-5.556154177062436,13.849788563853355,10.635933671088683,-11.840018085041562,-5.011282824584716,-23.87106323183738,10.567462157298495,13.339338287018998,-14.054519628388693,18.04613143814255,22.976843483007983,7.0,5.0,3.4807024179080863
10-26,12.685969361401751,-3.7041027847082915,14.419973702302745,9.445195434280537,-9.331729994525675,-5.676386212568168,-23.87106323183738,11.556921559088519,13.595435721618848,-12.749968416034887,20.427816862747548,22.976843483007983,7.0,5.0,4.147908790397794
10-27,12.776443792692456,-3.167423455152401,9.362495302853741,6.1623985528364775,-9.37762291888798,-5.676386212568168,-22.846104163901877,12.802966769240365,12.634192156365021,-6.825800357619894,18.651241091323172,23.748615226993426,7.0,5.0,4.0204179820145285
10-28,14.49011259917632,-0.72140917649567,6.8415366438698335,6.531332399130899,-9.37762291888798,-9.345123884207892,-29.52948686435261,11.861768578431649,10.903231944318195,-2.873271906414814,18.651241091323172,28.31312146551673,7.0,5.0,3.812119164283987
10-29,13.3367050044051,-0.8109576589883108,15.248291176805944,6.531332399130899,-10.972540583822974,-7.193830798324659,-30.52503208898818,12.553194550664456,11.141865118219512,-2.873271906414814,17.781084761231565,25.093710333666163,7.0,5.0,4.109212525632056
10-30,16.792333228073495,0.6823153511883612,13.317823114884325,6.531332399130899,-7.9820370245836445,-5.442490494006353,-34.835873948546705,13.820053615185607,11.141865118219512,-6.371609576839746,21.11047847412801,24.498339954728326,8.0,4.0,4.438544184296839
10-31,14.095574519324947,2.457100438049183,13.317823114884325,7.620936341505012,-6.948022605071688,-12.471897585018187,-36.79275619767069,13.820053615185607,10.838317255706636,-6.275215313715353,19.65920916241944,22.49172500868506,8.0,4.0,3.4844039795236914
11-01,16.151800910891627,2.457100438049183,16.7587488828043,6.96489707179544,-9.494670485875632,-9.7107951720085,-34.12810059339737,13.114749091664285,8.677797549616438,-10.34375591923884,16.803081947212114,22.49172500868506,8.0,4.0,3.3118815608498413
11-02,16.151800910891627,0.7614986458192365,6.910921178599121,7.5886462666153225,-8.813760422539929,-6.359701352761072,-34.12810059339737,13.324433827217625,10.587113519215617,-3.898077611022946,14.64149093195266,22.49172500868506,8.0,4.0,3.2714991924395798
11-03,15.098201527923575,10.001013999153011,3.7061980900220113,6.626699453751201,-7.689602052466552,-6.359701352761072,-37.83699465811585,12.612698651522471,9.680205050698877,-7.870983288847232,15.044957048372419,22.77838669002871,8.0,4.0,2.9825899299401315
11-04,12.74549796665246,9.779276144631366,1.319876357014493,6.8277937309223296,-7.689602052466552,-2.894917913573584,-34.75144723091135,12.894958171169186,5.670694364394526,-7.783521280730021,15.044957048372419,20.529212506823978,8.0,4.0,2.641064817691604
11-05,10.173470633370536,11.900975345784211,2.4585451424472384,6.8277937309223296,-5.500114512571887,-9.528152283901132,-32.500763699327976,11.423969158383349,5.787016440999303,-7.783521280730021,14.676038783782653,21.499449455469822,8.0,4.0,2.4528922428857016
11-06,6.730674189736193,13.044322052117336,3.9859584968768136,2.703995625254032,-3.686310610940022,-14.376519839247518,-35.4136811022191,11.356737236634785,5.787016440999303,-8.77673439020592,17.661978409182364,23.748615226993426,8.0,4.0,1.897170977931808
11-07,5.084742707580077,11.809939933561695,3.9859584968768136,4.2833234656911845,-0.8700738826772294,-10.231431450509213,-39.99672579113837,11.356737236634785,6.553336141463075,-10.621266394461124,14.111697601720516,11.113555171795971,8.0,4.0,0.5483161030448481
11-08,4.07972618132852,11.809939933561695,3.2836661234545623,8.140920602719147,-1.1837120741756295,-10.26530614685094,-41.71646807423335,11.42315060837182,8.674716577404396,-5.855623668514718,12.436995562055031,11.113555171795971,8.0,4.0,0.9951300664097092
11-09,4.07972618132852,9.315856023460988,6.518841220743762,9.677422654674254,-1.3118248991020098,-8.791693178685996,-41.71646807423335,11.179771711461948,8.385069281264625,-4.413655566332091,12.160877093487587,11.113555171795971,8.0,4.0,1.349789801655351
11-10,5.346207233454716,7.379640205102452,3.0244306279799087,9.280630722347457,0.15723519132399405,-8.791693178685996,-43.725098636581386,12.174081557481525,10.477656134005137,-4.532314022285141,11.15657365703735,6.968026358844,9.0,3.0,0.7429479875020014
11-11,6.563822940537323,7.48132178433625,1.5056783720316798,8.008014319654935,0.15723519132399405,-9.067814227362863,-30.69803873697917,11.647009017006411,11.354376840824564,-4.846225867210613,11.15657365703735,7.585443754032348,9.0,3.0,1.7372830871026843
11-12,5.518343724614316,9.515383845228216,0.7460606273777549,8.008014319654935,2.6904234127331805,-7.968124058885144,-23.73524173752825,10.60956787000595,11.825780359477337,-4.846225867210613,11.794434774688149,10.71664158583742,9.0,3.0,2.906254904666105
11-13,6.812678885480193,7.449686829673065,2.8461763739482,7.591183343248999,-0.17143024653357958,-5.573298279071132,-33.54440622865304,10.798846059601358,11.825780359477337,-2.0192574861804617,11.267262635211274,5.909592933514912,8.0,4.0,1.93273459830976
11-14,2.8022338710060564,9.630424903871717,2.8461763739482,9.304742341138258,-2.5010568598918117,-6.314309233657784,-28.41133194464408,10.798846059601358,13.50552868670346,-0.8535601082771479,9.392611325384939,0.0,7.0,5.0,1.6833587845985971
11-15,2.013205566229239,9.630424903871717,4.1662738039114835,7.272286441352963,-5.724860228179603,-3.602148896904401,-28.333587569502605,8.979789888386879,13.699443810953147,-2.512611404751704,4.123168133977903,0.0,7.0,5.0,0.8092820374454183
11-16,2.013205566229239,10.979659622182352,3.8758926573687353,6.062801098485412,-0.7774207883433876,-9.364358845503721,-28.333587569502605,8.78436461592185,13.867188803345424,-7.237511299242357,7.514601799091363,0.0,7.0,5.0,0.6154029716693593
11-17,2.6085031373913665,12.668282645089285,6.819060618732742,6.562156665232222,-2.350446716936802,-9.364358845503721,-25.594072559734048,10.262395560152141,12.815236066865904,-6.918171485665388,5.163690823708592,0.0,7.0,5.0,1.0560229924443576
11-18,3.026996183802123,10.162877492445016,7.093344785756801,6.103545838425585,-2.350446716936802,-10.862655914387279,-24.07111311903512,7.9545411710638465,11.921503816817156,-6.294622753471201,5.163690823708592,0.0,7.0,5.0,0.6539718006823927
11-19,3.8708251170945864,12.623367217053016,9.543995959741752,6.103545838425585,-1.9678139163497677,-10.594981195529764,-16.375676474983226,5.818077924372108,11.79130222486413,-6.294622753471201,6.308221855565428,0.0,7.0,4.0,1.7355201497318873
11-20,9.502879687126963,13.857326908195958,9.33899834480324,7.061429853146839,-0.475527155187933,-11.69269213168868,-19.597628648449763,5.27722953569771,11.79130222486413,-2.9260972864824315,4.959116527782236,0.0,7.0,4.0,2.258028154984023
11-21,9.120888988416024,13.744869598462909,9.33899834480324,5.472878687441393,-2.46307911530423,-9.965414564673017,-22.94519832107889,5.27722953569771,11.599996815557065,-6.8548419969264005,-0.5623316583755911,0.0,6.0,5.0,0.9803330261683506
11-22,9.27983222866709,13.744869598462909,10.311612853260234,7.4727898784161715,-5.199695880853521,-3.374519865419727,-17.63783562160813,5.6732706504293,12.813251575101381,-1.8715209941105089,-2.2698543573547543,0.0,6.0,5.0,2.4118500054158702
11-23,9.27983222866709,17.288326449874898,13.965066000924153,6.520545991091549,-0.3618463659544179,-4.5908131159860295,-17.63783562160813,2.7178809641516395,9.899847547348834,-1.3282347869845812,0.13584093966944058,0.0,7.0,4.0,2.9907175192662034
11-24,8.899170954799917,16.113964977338455,16.70180053437235,9.447294757335284,-1.0149841139694578,-4.5908131159860295,-21.29932530024095,4.9138091584174886,7.210655414864703,-4.260297413739939,4.5814487590871975,0.0,7.0,4.0,3.058560384356584
11-25,3.4338023563084867,16.72597941049458,17.435939703519757,10.040870538227992,-1.0149841139694578,-1.6283174520531958,-22.048503506132498,3.731187266976321,7.804560090732508,-6.612601986038161,4.5814487590871975,0.0,7.0,4.0,2.7041150889294605
11-26,6.06288737498712,15.787478688417512,13.983623953567035,10.040870538227992,-1.0209513397788483,2.2039741062210934,-22.308380001656484,3.8275554349798817,5.634334612640532,-6.612601986038161,6.67099180540678,0.0,8.0,3.0,2.855815265581205
11-27,4.7499436417853556,14.833906642459825,14.20750501813128,11.251636110059565,3.9365121640512255,9.468628884159443,-19.859705213040506,4.758506417351672,5.634334612640532,-5.999164716945735,4.639520423135235,0.0,9.0,2.0,3.968468665315658
11-28,8.51491746752847,14.17027047617258,14.20750501813128,10.341377326430251,6.515580736543909,9.619589391459753,-27.199275748364663,4.758506417351672,5.615430620111541,-11.59264332395145,4.640211189033209,0.0,9.0,2.0,3.2992891308705463
11-29,1.9832276092093295,14.17027047617258,11.838085647795316,11.734693527081488,5.281284218951889,8.419067911621083,-26.812584198467693,5.808026272357415,0.5344427064869108,-14.021622941300675,3.7991798348779486,0.0,9.0,2.0,1.8945059220654656
11-30,1.9832276092093295,14.430014853649931,7.745664135928473,11.789406046984803,5.568589232218201,6.394849012476352,-26.812584198467693,-2.71515795086734,-2.248426108585642,-9.659270313718665,5.348308531935785,0.0,7.0,4.0,0.9853850708969611
12-01,-0.056667104451895337,12.097084486543713,8.316196816134939,12.572712507359151,5.773514119760624,6.394849012476352,-27.754980820984997,-3.2630101330150008,0.2229937259066397,-13.050301908784736,6.089143678872316,0.0,7.0,4.0,0.6117945316514256
12-02,1.3032655867176597,9.138433845617989,9.543129261716434,12.245514590074249,5.773514119760624,3.1115815358823036,-22.906215967641806,-3.3781758258049925,1.3857696418748695,-11.741602698037793,6.089143678872316,0.0,8.0,3.0,0.8803631474193203
12-03,4.612340282064738,10.638706863465767,10.23296649639423,12.245514590074249,5.499403146163443,1.5021394230966008,-23.53569383736681,-3.1907494027736085,5.348444145951257,-11.741602698037793,8.755636395067434,0.0,8.0,3.0,1.6972587836749586
12-04,4.297651701297055,8.855630640354848,11.084984442252974,12.290422940263445,4.557133059062607,1.8987373352457253,-18.892173548110375,-3.682381225283034,5.348444145951257,-7.565891157441052,4.417609873963167,0.0,8.0,3.0,1.8841806839630504
12-05,5.979318110326702,8.360035720886682,11.084984442252974,11.13772769687092,5.750268574512406,6.366073344522902,-12.225663759577762,-3.682381225283034,5.4889476330975935,-5.56072067536741,6.725692318657467,0.0,8.0,3.0,3.2853568484082865
12-06,6.0198190076923295,8.360035720886682,8.664226110706744,11.227781455873627,9.561490046218712,8.601923107182282,-7.582607695174122,-3.1960309882909432,7.399776477896802,-5.332093871454299,1.2813656005541394,0.0,8.0,3.0,3.7504737476743295
12-07,6.0198190076923295,9.981550628726868,10.283871416928221,9.164798934542288,12.105379613691087,7.470354946563019,-7.582607695174122,-2.7593039993021087,7.4008738415987825,-3.351621556460412,0.026830327913491082,0.0,8.0,3.0,4.063328788893286
12-08,8.195133060879217,10.476746421336822,14.444826642088973,10.403341837534533,11.584480124117784,7.470354946563019,-8.88167317513705,-4.7519239525215085,6.7354143823018475,-2.00581688733708,3.584364242780606,0.0,8.0,3.0,4.77127063688393
12-09,9.168957210368472,11.504507506556944,9.269784534820095,7.5830097174015725,11.584480124117784,6.463116347188932,-12.841920942292845,-7.492677229535147,6.252315725492459,-2.966187832946071,3.584364242780606,0.0,8.0,3.0,3.5091457836627344
12-10,8.421387650151306,16.65901321638992,12.624295963242217,7.5830097174015725,10.930338245020867,7.4733495822621965,-12.150339021579116,-6.393888139440203,4.347413836366248,-2.966187832946071,3.1573531055229784,0.0,8.0,3.0,4.140478860199327
12-11,6.579087524088793,16.26662001128491,12.631852107694385,6.798018741036705,13.203357459109444,4.633290663005093,-3.711397783069717,-8.510205224692047,4.347413836366248,-3.3306346995186336,1.7370703144256403,0.0,8.0,3.0,4.220372745810902
12-12,-0.5338624268584546,20.70985450459758,12.631852107694385,2.6604345593363483,11.033707522274403,6.048077385115287,-12.996184068742172,-8.510205224692047,5.226348083256085,-8.998428912805261,-3.3688182601299723,0.0,6.0,5.0,1.9918979390871812
12-13,2.4708684807799437,20.70985450459758,14.836592701692133,5.449173768322051,11.851435891007586,6.844235597300554,-10.558118989807536,-10.745415244645967,6.676621664944965,-7.641581853908553,-7.9816820331314995,0.0,7.0,4.0,2.6593320405959378
12-14,2.4708684807799437,19.87935832249629,20.025752644682136,2.282991587365842,13.1847796232804,8.266153436860629,-10.558118989807536,-6.805369898961544,8.444364868864572,-5.625331747814974,-16.30094961421958,0.0,7.0,4.0,2.938708226127181
12-15,0.9495007018993552,18.19914292057687,19.65971927723058,2.048582007527834,14.320959342742649,8.266153436860629,-11.191033924578516,-7.912767264495334,9.99177552786471,-2.449148474787334,-23.275320762014747,0.0,7.0,4.0,2.3839635657355593
12-16,-0.09654187589802114,19.006709497780346,15.516348395811287,4.687990099339624,14.320959342742649,8.126408317524529,-10.656938761690238,-6.219993984381208,6.57377839798414,-1.2310586675869464,-23.275320762014747,0.0,6.0,5.0,2.2293616666342846
12-17,1.6161661064747073,18.377704423758225,18.04305017185602,4.687990099339624,14.369238464980901,-1.1206059769320218,-8.592597113715279,-6.691417296740032,1.4888528239968908,-1.2310586675869464,-24.699361720273927,0.0,6.0,5.0,1.353996776263181
12-18,1.7960956684949538,15.25989175774449,16.063587579029498,2.3636936994016104,13.586174350486088,-3.0427950182741514,-10.333646373427175,-3.428286057524032,1.4888528239968908,1.0837529139044833,-34.31666056315104,0.0,7.0,4.0,0.043388398390135315
12-19,0.1476319592378104,15.852427058525574,16.063587579029498,2.593271943339896,12.717768224453552,-6.692116828940506,-8.043684446254598,-3.428286057524032,-0.00986209466678081,1.0851028117727726,-28.43819499809114,0.0,6.0,5.0,0.15397042924017038
12-20,1.179291647899062,15.852427058525574,13.95573450243228,-1.1138233712049035,10.972576338082346,-5.189769469370856,-4.8507462686567155,-3.1084462923431384,-2.332477370264288,6.928023679767356,-31.498572795904842,0.0,5.0,6.0,0.06618480491349002
12-21,1.179291647899062,15.677615726168971,16.020873124823964,-1.4615311322080284,12.497391285507591,-5.050281581069591,-4.8507462686567155,-4.14339573522507,-4.829967149608484,9.864678920772825,-33.557579442307514,0.0,5.0,6.0,0.11219578300808426
12-22,-2.0350625698734146,17.004230814980613,13.669885413729867,1.5477147974404881,12.005884674509748,-5.050281581069591,-4.194026206856343,-4.626151539729781,-5.205778586437497,13.23560145512925,-30.118593743563288,0.0,5.0,6.0,0.5194519106883378
12-23,-4.926473310662064,16.392394181208935,13.189046561549064,2.2531861985952077,12.005884674509748,-6.5421659167815065,-6.411555872066788,-1.9586280508143443,-8.316009650757128,9.87600782025366,-30.118593743563288,0.0,5.0,6.0,-0.3797422590440427
12-24,-3.286100501018858,17.001288242005682,12.1628805322924,2.2531861985952077,11.669909362843645,-4.978241875405568,-2.8147239934990425,-3.024215988292141,-8.466343494589347,9.87600782025366,-30.789630405374673,0.0,5.0,6.0,-0.03299867518241939
12-26,-1.9173862263171697,14.820415739974088,12.488949380983264,4.711504093652315,11.53116791682096,-6.953942532186617,0.09920592013355768,-8.13033737804675,-8.466343494589347,2.5834708809766833,-51.26582763100467,0.0,6.0,5.0,-2.5415936108003065
12-27,-1.1027964464495836,14.820415739974088,12.488949380983264,5.478703624211626,10.521025690860732,-9.444250097547194,2.4494938003516533,-8.13033737804675,-7.724430415884311,-2.718646931684264,-121.11702862666631,0.0,5.0,6.0,-8.706575138324753
12-28,-1.1027964464495836,14.952740301042342,15.706669561670928,7.811287708456327,9.832973814570533,-8.989021958375153,2.4494938003516533,-6.217350854101577,-5.4961028489850445,-1.4606938043498159,-98.05289041273011,0.0,5.0,6.0,-5.880474261574958
12-29,-0.4350468647386415,11.319653002411165,14.724299713768325,7.141759520877785,9.604061097795377,-8.989021958375153,1.6191610348060232,-6.84671146860008,-7.213116767180369,-0.2644236820677571,-112.01749381265144,0.0,5.0,6.0,-7.613073348662898
12-30,-1.053383915070122,13.156650568030619,13.382573438370722,6.998770885084922,9.604061097795377,-7.105711934876091,2.2969366401293505,-6.477095022163413,-9.245377029338817,1.5355093316445354,-112.01749381265144,0.0,6.0,5.0,-7.410379979420362
12-31,0.2869427895499033,14.193180597431805,13.179291165578887,6.998770885084922,9.339387505481064,-7.4203718099254425,5.839318132253594,-9.461893354626918,-9.420366122341301,1.5355093316445354,-115.54297689310484,0.0,7.0,4.0,-7.539433981081149
