,2009,2010,2011,2012,2013,2014,2015,2016,2017,2018,2019,2020,ups,downs,end_day_sum,avg
01-02,-4.434999465942383,-1.9499969482421875,6.069999694824219,6.615001678466798,4.075000762939453,10.474998474121094,-4.339996337890625,3.930000305175781,-6.480003356933594,-9.410003662109377,-0.9199981689453124,-49.34000015258789,5.0,7.0,03-17,-3.809166431427002
01-03,-3.784999847412109,-2.2849998474121094,6.069999694824219,6.615001678466798,3.1199989318847656,11.334999084472654,0.12000274658203125,5.3600006103515625,-6.480003356933594,-12.279998779296875,-1.1200027465820312,-53.88999748229981,6.0,6.0,03-18,-3.934999942779541
01-04,-4.329999923706056,-2.2849998474121094,6.174999237060548,7.020000457763673,1.5649948120117188,12.56999969482422,3.9800033569335938,5.3600006103515625,-7.790000915527344,-10.5,-2.0,-57.55000305175781,6.0,6.0,03-19,-3.982083797454834
01-05,-4.329999923706056,-1.670001983642578,8.174999237060549,7.3149986267089835,0.6399993896484375,11.754997253417967,3.9800033569335938,4.910003662109375,-7.75,-13.699996948242188,-1.6300048828125,-58.68000221252442,6.0,6.0,03-20,-4.248750368754068
01-06,-4.555002212524414,-3.10000228881836,7.555000305175781,7.479999542236327,0.125,11.754997253417967,6.450004577636719,9.18000030517578,-8.989997863769531,-11.379997253417967,1.3799972534179688,-58.68000221252442,7.0,5.0,03-21,-3.5650002161661782
01-07,-2.7149982452392583,-3.4250030517578125,8.569999694824219,6.270000457763673,0.125,10.339996337890623,5.849998474121094,10.169998168945312,-8.489997863769531,-7.930000305175781,1.3799972534179688,-59.53000068664551,7.0,5.0,03-22,-3.2820841471354165
01-08,-3.829999923706055,-3.775001525878906,9.205001831054688,5.819999694824219,1.0499992370605469,11.775001525878904,3.800003051757813,10.44000244140625,-8.3699951171875,-7.930000305175781,0.3700027465820313,-54.1199951171875,7.0,5.0,03-23,-2.9637484550476074
01-09,-0.2299995422363281,-2.0,9.560001373291016,5.819999694824219,-0.3649978637695313,12.31999969482422,1.5400009155273438,12.230003356933596,-8.3699951171875,-6.930000305175781,-2.3199996948242188,-53.36000061035156,5.0,7.0,03-24,-2.675415674845377
01-10,0.2550010681152344,-2.7849998474121094,9.560001373291016,4.145000457763672,-0.55999755859375,11.395004272460938,4.329994201660156,12.230003356933596,-8.75,-7.720001220703125,-5.44000244140625,-51.72999572753906,6.0,6.0,03-25,-2.9224993387858067
01-11,-0.06500053405761719,-2.7849998474121094,8.669998168945312,3.59000015258789,-0.8549995422363281,14.05500030517578,5.449996948242188,12.230003356933596,-10.110000610351562,-9.279998779296877,-4.090003967285156,-45.71999740600586,5.0,7.0,03-26,-2.4091668128967285
01-12,-0.06500053405761719,-1.4249992370605469,8.530002593994139,3.925003051757813,2.1199951171875,14.329994201660154,5.449996948242188,12.980003356933596,-10.510002136230467,-8.129997253417969,-3.7400054931640634,-45.82999801635742,6.0,6.0,03-27,-1.8637506167093916
01-13,-1.820001602172852,-4.170001983642578,9.84000015258789,4.5600013732910165,2.1199951171875,14.329994201660154,4.900001525878906,10.169998168945312,-12.010002136230467,-7.05999755859375,-3.920005798339844,-45.82999801635742,6.0,6.0,03-28,-2.4075013796488443
01-14,-0.6999988555908203,-4.205001831054688,8.930000305175781,3.779998779296875,2.1199951171875,11.759994506835938,3.6200027465820312,9.040000915527344,-10.19000244140625,-7.05999755859375,-3.920005798339844,-46.6400032043457,6.0,6.0,03-29,-2.7887514432271323
01-15,-2.3549976348876958,-1.9550018310546875,8.395000457763674,2.954998016357422,1.8999977111816408,11.550003051757812,4.029998779296875,11.55999755859375,-8.480003356933594,-7.05999755859375,-4.0,-47.209999084472656,6.0,6.0,03-30,-2.555833657582601
01-16,-3.5349998474121094,-2.0050010681152344,8.155002593994139,2.954998016357422,1.414997100830078,13.529998779296875,1.8300018310546875,14.46999740600586,-8.480003356933594,-7.05999755859375,-3.430000305175781,-51.019996643066406,6.0,6.0,03-31,-2.7645835876464844
01-17,-2.9850006103515625,-2.0050010681152344,8.155002593994139,2.954998016357422,1.0200042724609375,13.604995727539062,2.3600006103515625,12.680004119873047,-8.480003356933594,-9.709999084472656,-3.8700027465820312,-50.32999801635742,6.0,6.0,04-01,-3.0504166285196934
01-18,-1.7999992370605469,-2.0050010681152344,8.155002593994139,1.8249969482421875,0.8599967956542969,14.365005493164062,2.3600006103515625,12.680004119873047,-8.230003356933594,-8.970001220703125,-4.1100006103515625,-48.12000274658203,6.0,6.0,04-02,-2.7491668065389003
01-19,-1.7999992370605469,-2.0050010681152344,8.534999847412111,3.009998321533203,1.2750015258789062,14.495002746582033,2.3600006103515625,12.680004119873047,-7.639999389648437,-11.44000244140625,-0.80999755859375,-49.44000244140625,6.0,6.0,04-03,-2.564999580383301
01-20,-1.7999992370605469,-1.6949996948242188,8.514999389648438,5.0949974060058585,-0.20000076293945312,14.495002746582033,2.3600006103515625,12.34000015258789,-8.510002136230469,-11.75,-2.930000305175781,-49.44000244140625,5.0,7.0,04-04,-2.7933336893717446
01-21,-2.4949989318847656,-0.5049972534179688,8.325000762939451,3.979999542236328,-0.20000076293945312,14.495002746582033,0.6800003051757812,8.290000915527344,-5.209999084472656,-12.650001525878904,-2.930000305175781,-49.44000244140625,5.0,7.0,04-05,-3.1383330027262364
01-22,-0.2900009155273437,1.8599967956542969,7.5949974060058585,3.979999542236328,-0.20000076293945312,14.790000915527346,2.3499984741210938,4.290000915527344,-5.879997253417969,-12.650001525878904,-2.930000305175781,-44.78999710083008,6.0,6.0,04-06,-2.656250317891439
01-23,-2.9349994659423833,1.204998016357422,6.539997100830077,3.979999542236328,-0.9449996948242188,15.18499755859375,4.080001831054688,8.950000762939453,-5.879997253417969,-13.669998168945312,-2.9000015258789062,-41.94000244140625,6.0,6.0,04-07,-2.360833644866944
01-24,-5.0149993896484375,4.384998321533203,6.539997100830077,4.504997253417969,-0.11999893188476562,15.165000915527346,1.9399948120117188,9.630001068115234,-6.099998474121094,-14.090003967285154,1.3899993896484375,-40.41999816894531,7.0,5.0,04-08,-1.8491675059000647
01-25,-5.0149993896484375,4.384998321533203,7.4699974060058585,1.854999542236328,0.8100013732910156,17.659996032714844,1.7099990844726562,9.630001068115234,-5.849998474121094,-15.519996643066404,0.3800048828125,-35.30999755859375,8.0,4.0,04-09,-1.4829161961873372
01-26,-5.0149993896484375,5.299999237060547,6.19000244140625,2.21500015258789,2.0250015258789062,17.899993896484375,1.7099990844726562,5.19000244140625,-7.029998779296875,-14.3800048828125,0.470001220703125,-35.30999755859375,8.0,4.0,04-10,-1.7279167175292969
01-27,-4.345001220703125,7.2849998474121085,5.705001831054688,1.6599998474121094,2.209999084472656,17.899993896484375,1.0400009155273438,5.379997253417969,-4.330001831054688,-8.919998168945312,0.6300048828125,-35.30999755859375,8.0,4.0,04-11,-0.9245834350585938
01-28,-5.454999923706055,6.629997253417969,5.069999694824219,-0.654998779296875,2.209999084472656,15.339996337890625,7.610000610351562,4.840003967285156,-3.3199996948242188,-7.180000305175781,0.6300048828125,-35.720001220703125,7.0,5.0,04-12,-0.8333331743876139
01-29,-3.6100006103515625,8.380001068115233,1.420001983642578,-1.1800003051757812,0.839996337890625,15.785003662109375,7.67999267578125,2.9900054931640625,-3.3199996948242188,-7.180000305175781,-0.1399993896484375,-29.84999847412109,6.0,6.0,04-13,-0.6820831298828125
01-30,-2.8999977111816406,5.914997100830077,2.1100006103515625,-1.1800003051757812,0.9699974060058594,15.56499481201172,5.660003662109375,8.420005798339844,-3.3199996948242188,-5.769996643066406,-0.7199935913085938,-31.0,6.0,6.0,04-14,-0.5208323796590171
01-31,-3.1099987030029297,6.8699989318847665,2.1100006103515625,-1.595001220703125,-0.4250030517578125,17.339996337890625,3.94000244140625,8.69000244140625,-3.700004577636719,-5.019996643066406,6.1100006103515625,-29.62000274658203,6.0,6.0,04-15,0.13249953587849936
02-01,-3.7499980926513667,6.8699989318847665,1.6150016784667969,-0.3400001525878906,-6.205001831054688,20.23999786376953,5.44000244140625,8.69000244140625,-3.5100021362304688,-5.5,3.270004272460937,-29.140003204345703,6.0,6.0,04-16,-0.19333314895629886
02-02,-3.7499980926513667,6.1300010681152335,1.7400016784667969,-1.5750007629394531,-4.069999694824219,20.23999786376953,5.44000244140625,10.6199951171875,-4.069999694824219,-1.8100051879882808,2.970001220703125,-31.480003356933594,6.0,6.0,04-17,0.03208271662394205
02-03,-4.324998855590819,6.650001525878906,1.9949989318847656,-3.1599998474121094,-6.2350006103515625,20.23999786376953,1.6500015258789062,7.6199951171875,-5.200004577636719,1.5900039672851562,2.970001220703125,-31.480003356933594,7.0,5.0,04-18,-0.6404172579447428
02-04,-5.0,7.2849998474121085,1.545001983642578,-2.6299972534179688,-6.2350006103515625,16.819999694824222,2.80999755859375,7.269996643066406,-4.8699951171875,3.290000915527344,2.970001220703125,-33.730003356933594,7.0,5.0,04-19,-0.8729165395100912
02-05,-4.504997253417969,7.5649986267089835,1.94000244140625,-2.9449996948242188,-7.0000038146972665,17.264999389648438,1.0400009155273438,10.3800048828125,-6.409996032714844,3.290000915527344,4.0,-40.53000259399414,7.0,5.0,04-20,-1.3258326848347979
02-06,-6.220001220703125,9.96500015258789,1.94000244140625,-2.9449996948242188,-7.180000305175781,15.824996948242188,1.9499969482421875,10.699996948242188,-6.409996032714844,4.580001831054688,5.659996032714844,-34.03000259399414,7.0,5.0,04-21,-0.5137507120768229
02-07,-6.914999008178711,10.145000457763672,1.94000244140625,-3.479999542236328,-8.165000915527344,15.279998779296875,0.6399993896484375,10.94000244140625,-3.900001525878906,8.260002136230469,10.8800048828125,-33.18000030517578,7.0,5.0,04-22,0.2037507692972819
02-08,-7.1899986267089835,10.145000457763672,2.354999542236328,-3.729999542236328,-8.439998626708983,15.239997863769533,1.75,10.94000244140625,-4.839996337890625,12.93000030517578,14.56999969482422,-33.199996948242195,7.0,5.0,04-23,0.8775008519490559
02-09,-7.1899986267089835,8.665000915527344,3.935001373291016,-4.709999084472656,-8.169998168945312,17.980003356933594,1.75,13.780006408691404,-6.229995727539063,14.769996643066404,12.389999389648438,-30.54999542236328,7.0,5.0,04-24,1.3683350880940754
02-10,-5.020000457763672,12.385002136230467,3.81500244140625,-4.115001678466797,-6.704998016357423,17.980003356933594,2.4399948120117188,13.370002746582033,-7.700004577636719,11.449996948242188,9.730003356933594,-30.54999542236328,7.0,5.0,04-25,1.4233338038126628
02-11,-2.1200008392333984,11.330001831054688,3.5199966430664062,-4.4650001525878915,-6.704998016357423,17.715003967285156,5.069999694824219,15.360000610351562,-5.080001831054688,12.260002136230467,9.730003356933594,-31.63999938964844,7.0,5.0,04-26,2.081250667572021
02-12,-0.4650001525878906,10.75,3.4099998474121094,-3.4749984741210938,-7.085002899169923,15.925003051757812,1.9199981689453125,12.06000518798828,-6.040000915527344,12.260002136230467,8.310005187988281,-31.159996032714844,7.0,5.0,04-27,1.3675012588500977
02-13,-0.6500015258789062,7.904998779296875,3.430000305175781,-3.4749984741210938,-5.870002746582031,11.30500030517578,0.44000244140625,14.889999389648438,-6.040000915527344,12.93000030517578,5.330001831054688,-32.31999969482422,7.0,5.0,04-28,0.65625
02-14,3.5749988555908203,8.299999237060549,3.430000305175781,-3.659999847412109,-7.104999542236327,9.579994201660156,1.970001220703125,16.620002746582028,-6.920005798339844,10.860000610351562,0.9199981689453124,-30.37999725341797,8.0,4.0,04-29,0.5991660753885905
02-15,4.749998092651367,8.299999237060549,4.104999542236328,-3.1599998474121094,-3.6300010681152335,9.660003662109377,3.25,16.620002746582028,-7.75,9.099998474121094,-3.25,-29.54999923706055,7.0,5.0,04-30,0.7037501335144043
02-16,4.749998092651367,8.299999237060549,4.495002746582031,-4.3000030517578125,-5.1199951171875,8.040000915527344,3.25,16.620002746582028,-7.669998168945312,10.529998779296877,-3.659996032714844,-26.80999755859375,7.0,5.0,05-01,0.7020843823750814
02-17,4.749998092651367,9.200000762939453,4.415000915527344,-2.270000457763672,-6.284996032714844,8.040000915527344,3.25,11.06999969482422,-7.0,9.599998474121094,-7.819999694824219,-26.80999755859375,7.0,5.0,05-02,0.011667092641194662
02-18,3.430000305175781,8.890003204345703,1.0250015258789062,-2.209999084472656,-6.284996032714844,8.040000915527344,3.6399993896484375,13.160003662109375,-7.599998474121094,8.69000244140625,-7.819999694824219,-26.80999755859375,7.0,5.0,05-03,-0.3208316167195638
02-19,5.1300010681152335,9.459999084472656,-0.08499908447265625,-3.185001373291016,-6.284996032714844,7.69000244140625,5.099998474121094,13.06999969482422,-7.709999084472656,8.69000244140625,-7.819999694824219,-29.770000457763672,6.0,6.0,05-04,-0.47624937693278
02-20,8.465000152587889,9.064998626708984,-1.020000457763672,-3.185001373291016,-3.8600006103515625,7.0449981689453125,8.30999755859375,8.419998168945312,-7.709999084472656,8.69000244140625,-9.610000610351562,-31.41999816894531,6.0,6.0,05-05,-0.5675004323323568
02-21,10.01500129699707,6.529998779296875,-1.020000457763672,-3.185001373291016,-0.029998779296875,10.25,2.6100006103515625,7.129997253417969,-7.709999084472656,10.20000457763672,-4.449996948242188,-27.46999740600586,6.0,6.0,05-06,0.2391673723856608
02-22,13.274999618530273,6.529998779296875,-1.020000457763672,-3.97500228881836,0.3500022888183594,13.43000030517578,3.1500015258789062,7.129997253417969,-8.930000305175781,7.57000732421875,-4.290000915527344,-23.860004425048828,7.0,5.0,05-07,0.7799998919169108
02-23,13.274999618530273,7.629997253417969,-5.020000457763672,-5.604999542236328,6.960002899169923,14.590003967285154,3.1500015258789062,11.31999969482422,-6.69000244140625,5.05999755859375,-2.970001220703125,-24.070003509521484,7.0,5.0,05-08,1.469166278839111
02-24,12.099998474121096,4.845001220703125,-1.3649978637695312,-6.390003204345702,8.064998626708983,14.590003967285154,3.470001220703125,11.740005493164062,-4.6100006103515625,5.8000030517578125,-0.720001220703125,-24.070003509521484,7.0,5.0,05-09,1.9545838038126628
02-25,10.744998931884766,3.80999755859375,-0.21500015258789065,-5.81500244140625,8.064998626708983,12.790000915527346,0.470001220703125,10.18000030517578,-6.2700042724609375,8.300003051757812,-0.720001220703125,-21.14999771118164,7.0,5.0,05-10,1.6824995676676433
02-26,12.730001449584961,6.2199974060058585,-0.7299995422363281,-5.260002136230469,7.199996948242188,8.510002136230469,3.3700027465820312,11.139999389648438,-3.3700027465820312,8.300003051757812,0.1199951171875,-14.889999389648438,8.0,4.0,05-11,2.7783328692118325
02-27,11.845001220703125,5.0449981689453125,-2.80999755859375,-5.260002136230469,4.580001831054688,8.544998168945312,1.8899993896484373,14.990005493164062,-3.3700027465820312,10.849998474121094,-0.8000030517578125,-8.549999237060549,7.0,5.0,05-12,3.079583168029785
02-28,13.829999923706055,6.864997863769531,-2.80999755859375,-5.7550010681152335,3.935001373291016,8.930000305175781,4.350006103515625,15.580001831054688,-2.4499969482421875,17.529998779296875,1.0,-13.419998168945312,8.0,4.0,05-13,3.965417702992757
02-29,0.0,0.0,0.0,-3.674999237060547,0.0,0.0,0.0,15.580001831054688,0.0,0.0,0.0,-13.139999389648438,1.0,2.0,05-14,-0.10291639963785808
03-01,12.364999771118164,6.864997863769531,-0.6199989318847656,-6.3400001525878915,5.330001831054688,10.525001525878906,2.540000915527344,15.300003051757812,-5.7700042724609375,16.230003356933597,-2.9199981689453125,-14.65999984741211,7.0,5.0,05-15,3.237083911895752
03-02,12.364999771118164,6.7749977111816415,-1.585002899169922,-6.430000305175781,7.4399986267089835,9.2550048828125,2.540000915527344,13.5,-3.7700042724609375,17.230003356933597,-2.470001220703125,-14.65999984741211,7.0,5.0,05-16,3.3491663932800293
03-03,11.139999389648438,6.1300010681152335,-2.8249969482421875,-6.9949989318847665,6.450000762939452,9.2550048828125,1.2299957275390625,9.400001525878906,-3.839996337890625,18.420005798339844,-2.4499969482421875,-14.229999542236328,7.0,5.0,05-17,2.6404183705647792
03-04,10.130001068115234,5.444999694824219,-2.34000015258789,-7.125,6.450000762939452,8.120002746582031,0.2400054931640625,9.279998779296877,-6.239997863769531,19.69000244140625,-2.4499969482421875,-16.520000457763672,7.0,5.0,05-18,2.056667963663737
03-05,8.204999923706055,2.9250030517578125,-1.4850006103515625,-7.125,4.995002746582031,7.4949951171875,0.8800048828125,6.099998474121094,-7.120002746582031,19.69000244140625,-1.1399993896484375,-14.189998626708984,7.0,5.0,05-19,1.6025004386901855
03-06,9.490001678466797,2.734996795654297,-0.979999542236328,-6.885002136230469,3.810001373291016,6.970001220703125,3.2300033569335938,4.94000244140625,-7.120002746582031,20.48999786376953,3.2399978637695312,-2.8600006103515625,8.0,4.0,05-20,3.0883331298828125
03-07,10.799999237060547,2.430000305175781,-0.979999542236328,-7.900001525878906,3.845001220703125,7.340003967285156,2.540000915527344,4.94000244140625,-6.580001831054688,25.279998779296875,1.6699981689453125,13.060001373291016,9.0,3.0,05-21,4.703750292460124
03-08,11.010002136230467,2.430000305175781,0.21000289916992188,-9.050003051757812,3.465003967285156,7.364997863769531,2.7399978637695312,9.850006103515623,-3.139999389648437,25.20000457763672,7.239997863769531,15.050003051757812,10.0,2.0,05-22,6.0308345158894845
03-09,11.010002136230467,2.09000015258789,0.09499740600585938,-7.390003204345702,2.80999755859375,9.635002136230467,2.7399978637695312,7.819999694824219,-1.8899993896484373,24.64999389648437,9.3699951171875,15.050003051757812,10.0,2.0,05-23,6.332498868306477
03-10,9.76500129699707,-1.2749977111816406,2.009998321533203,-6.200000762939452,1.1349945068359375,9.635002136230467,4.269996643066406,8.650001525878906,-1.6800003051757812,23.11000061035156,6.650001525878906,11.050003051757812,9.0,3.0,05-24,5.593333403269451
03-11,9.220001220703123,1.404998779296875,-0.7000007629394531,-6.015003204345702,1.1349945068359375,11.360000610351562,3.909996032714844,6.089996337890625,-2.4199981689453125,22.330001831054688,6.650001525878906,13.790000915527346,9.0,3.0,05-25,5.562915802001953
03-12,5.469999313354492,-0.1100006103515625,-0.2350006103515625,-6.015003204345702,0.4249954223632813,11.595001220703125,5.779998779296875,7.709999084472656,-2.279998779296875,22.330001831054688,5.930000305175781,19.81999969482422,8.0,4.0,05-26,5.868332703908283
03-13,5.100000381469727,0.9099998474121094,0.33499908447265625,-7.575000762939452,0.524993896484375,12.224998474121096,4.870002746582031,8.300003051757812,-2.279998779296875,22.93000030517578,4.340003967285156,17.479999542236328,10.0,2.0,05-27,5.5966668128967285
03-14,3.8749980926513667,1.4249992370605469,0.33499908447265625,-6.490001678466798,-0.21500396728515625,10.985000610351562,1.25,8.300003051757812,-1.9199981689453125,23.09000396728516,-0.8400039672851562,20.339998245239254,8.0,4.0,05-28,5.011249542236328
03-15,3.3749980926513667,1.4249992370605469,0.8799972534179688,-7.419998168945312,0.2050018310546875,11.115005493164062,1.0999984741210938,9.470001220703123,-4.3899993896484375,21.330001831054688,-1.6899948120117188,21.6299991607666,9.0,3.0,05-29,4.752500851949057
03-16,3.3749980926513667,1.6299972534179688,1.354999542236328,-7.514999389648437,1.095001220703125,11.57500457763672,1.0999984741210938,8.040000915527344,-4.810005187988281,17.310005187988278,-4.80999755859375,21.6299991607666,9.0,3.0,05-30,4.164583524068196
03-17,2.584999084472656,1.9650001525878904,-0.7249984741210938,-6.2649993896484375,1.9500045776367188,11.57500457763672,2.1999969482421875,5.8000030517578125,-5.209999084472656,17.73999786376953,-5.489997863769531,21.84000015258789,8.0,4.0,05-31,3.9970842997233067
03-18,5.30000114440918,6.615001678466798,0.1100006103515625,-8.200000762939451,1.9500045776367188,10.610000610351562,-1.5100021362304688,5.94000244140625,-6.599998474121094,21.290000915527344,-5.489997863769531,21.8799991607666,8.0,4.0,06-01,4.324584325154622
03-19,4.975000381469727,6.569999694824219,-1.1300010681152344,-8.200000762939451,2.7800025939941406,12.904998779296875,-0.839996337890625,5.400001525878906,-5.910003662109375,21.290000915527344,-6.449996948242188,17.75,7.0,5.0,06-02,4.095000425974528
03-20,7.385000228881836,4.665000915527344,-1.604999542236328,-6.8600006103515625,3.22500228881836,10.635002136230467,-1.9199981689453125,4.790000915527344,-5.910003662109375,18.43000030517578,-11.93000030517578,16.920001983642578,7.0,5.0,06-03,3.1520838737487797
03-21,5.0649986267089835,8.125,-1.604999542236328,-7.254997253417969,2.60000228881836,9.55999755859375,0.7699966430664062,4.790000915527344,-4.220001220703125,13.029998779296875,-14.990005493164062,20.270000457763672,8.0,4.0,06-04,3.0116659800211587
03-22,3.2449989318847656,8.125,-2.584999084472656,-9.34000015258789,3.384998321533203,11.860000610351562,0.01000213623046875,4.849998474121094,-4.25,14.05999755859375,-10.730003356933594,20.829998016357425,8.0,4.0,06-05,3.2883326212565103
03-23,3.2449989318847656,6.805000305175781,-1.579998016357422,-10.665000915527344,4.120002746582031,11.56999969482422,0.01000213623046875,6.150001525878906,-5.129997253417969,12.80999755859375,-8.5,20.829998016357425,8.0,4.0,06-06,3.3054170608520512
03-24,4.2449989318847665,8.580001831054688,-2.4950027465820312,-10.145000457763672,2.3000030517578125,11.56999969482422,0.17000579833984375,5.409996032714844,-5.660003662109375,9.010002136230467,-10.75,15.56999969482422,8.0,4.0,06-07,2.3170833587646484
03-25,4.885000228881836,6.7849998474121085,-4.240001678466797,-8.620002746582031,2.3000030517578125,10.584999084472656,-2.5800018310546875,6.739997863769531,-2.549995422363281,8.569999694824219,-10.75,15.460002899169922,7.0,5.0,06-08,2.215416749318441
03-26,5.760000228881836,5.775001525878906,-5.194999694824219,-8.620002746582031,-0.18999481201171875,11.840003967285154,-1.6800003051757812,10.889999389648438,-5.229995727539063,8.569999694824219,-12.739997863769533,19.78000259399414,6.0,6.0,06-09,2.4133346875508632
03-27,7.194997787475586,6.200000762939452,-4.75,-8.180000305175781,1.220001220703125,12.589996337890625,-1.4499969482421875,10.830001831054688,-5.229995727539063,9.80999755859375,-10.31999969482422,26.11000061035156,7.0,5.0,06-10,3.668750286102295
03-28,8.995000839233398,5.424999237060547,-4.75,-7.0900001525878915,2.30499267578125,10.93000030517578,-3.0500030517578125,10.830001831054688,-7.1399993896484375,14.110000610351562,-10.639999389648438,24.4900016784668,7.0,5.0,06-11,3.701249599456787
03-29,9.295000076293944,5.424999237060547,-5.364997863769531,-7.569999694824219,1.5550003051757812,10.605003356933594,-1.7299957275390625,9.910003662109377,-8.889999389648438,12.400001525878904,-9.980003356933594,20.650001525878906,7.0,5.0,06-12,3.0254178047180176
03-30,9.295000076293944,5.2350006103515625,-4.205001831054688,-9.584999084472656,0.3000030517578125,12.614997863769533,-1.7299957275390625,10.919998168945312,-7.089996337890625,15.080001831054688,-10.44000244140625,20.650001525878906,7.0,5.0,06-13,3.420417308807373
03-31,10.245000839233398,7.914997100830077,-5.420001983642578,-9.59000015258789,0.5600051879882812,12.614997863769533,-1.279998779296875,8.979995727539062,-7.670005798339844,15.540000915527346,-11.910003662109375,19.710002899169922,7.0,5.0,06-14,3.3079158465067544
04-01,9.979997634887695,7.1399993896484375,-6.8400001525878915,-10.325000762939453,0.5600051879882812,11.719993591308596,-0.5699996948242188,9.349998474121094,-6.400001525878906,15.31999969482422,-11.910003662109375,16.550003051757812,7.0,5.0,06-15,2.8812492688496913
04-02,8.645000457763674,5.5900001525878915,-6.670001983642577,-10.325000762939453,0.2900009155273437,12.519996643066404,-3.180000305175781,12.670005798339846,-8.029998779296875,15.31999969482422,-11.020004272460938,14.270000457763672,7.0,5.0,06-16,2.506666501363118
04-03,6.555000305175781,6.295001983642577,-7.75,-10.43000030517578,3.615001678466797,13.3699951171875,-5.650001525878906,12.1300048828125,-8.029998779296875,13.18000030517578,-7.44000244140625,12.31999969482422,7.0,5.0,06-17,2.3470834096272792
04-04,6.579999923706055,6.3100013732910165,-7.75,-8.029998779296875,4.44000244140625,14.260002136230467,-4.790000915527344,12.1300048828125,-9.31999969482422,13.360000610351562,-8.5,15.169998168945312,7.0,5.0,06-18,2.8216675122578936
04-05,6.2749996185302725,6.3100013732910165,-7.0249977111816415,-6.270000457763673,4.290000915527344,14.459999084472654,-5.850006103515625,11.900001525878904,-10.540000915527344,9.800003051757812,-13.159996032714846,13.049999237060547,7.0,5.0,06-19,1.9366669654846191
04-06,6.2749996185302725,6.5050010681152335,-6.599998474121094,-6.354999542236327,4.06500244140625,15.610000610351562,-5.850006103515625,8.959999084472656,-9.530006408691406,14.69000244140625,-11.18000030517578,13.049999237060547,7.0,5.0,06-20,2.4699994723002114
04-07,7.639999389648437,3.1599998474121094,-6.205001831054688,-5.745002746582031,4.349998474121094,15.610000610351562,-5.25,9.44000244140625,-9.290000915527344,13.70000457763672,-10.830001831054688,11.14999771118164,7.0,5.0,06-21,2.310832977294922
04-08,6.5249996185302725,1.6300010681152344,-6.8800010681152335,-7.25,4.349998474121094,14.830001831054688,-5.230003356933594,9.720001220703123,-10.720001220703123,16.050003051757812,-10.830001831054688,7.639999389648437,7.0,5.0,06-22,1.652916431427002
04-09,4.2849998474121085,2.920001983642578,-5.239997863769531,-7.25,3.669998168945313,16.850006103515625,-7.44000244140625,10.900001525878906,-11.449996948242188,16.050003051757812,-9.919998168945312,7.479999542236327,7.0,5.0,06-23,1.7379179000854492
04-10,2.7550010681152344,-0.3650016784667969,-5.665000915527344,-5.529998779296875,1.1850051879882812,19.87000274658203,-8.509994506835938,9.589996337890623,-11.449996948242188,11.769996643066404,-7.280006408691406,9.129997253417967,6.0,6.0,06-24,1.2916666666666667
04-11,2.6599998474121094,-0.17000198364257812,-5.665000915527344,-8.234996795654299,1.0699996948242188,18.780006408691406,-5.900001525878906,9.589996337890623,-10.759994506835938,7.199996948242188,-6.3600006103515625,9.169998168945312,6.0,6.0,06-25,0.9483334223429362
04-12,2.674999237060547,-0.17000198364257812,-3.945003509521485,-8.799999237060547,1.6400032043457031,13.05999755859375,-6.350006103515625,6.089996337890625,-9.79999542236328,8.529998779296875,-14.75,5.6599998474121085,6.0,6.0,06-26,-0.5133342742919922
04-13,2.674999237060547,-0.2700004577636719,-5.224998474121094,-9.21500015258789,6.979995727539063,16.05999755859375,-6.350006103515625,6.720001220703125,-7.849998474121094,5.810005187988281,-12.080001831054688,5.6599998474121085,6.0,6.0,06-27,0.2429161071777344
04-14,3.399999618530273,-2.35000228881836,-6.2250022888183585,-9.404998779296877,7.830001831054687,16.05999755859375,-8.120002746582031,3.25,-8.349998474121094,8.660003662109375,-9.030006408691406,6.720001220703125,6.0,6.0,06-28,0.2033327420552572
04-15,4.694997787475586,-0.3600006103515625,-5.354999542236328,-8.519996643066406,7.830001831054687,14.909996032714846,-10.30999755859375,2.8799972534179688,-7.739997863769531,12.910003662109375,-9.030006408691406,10.84000015258789,6.0,6.0,06-29,1.0624998410542803
04-16,4.489997863769531,-1.0250015258789062,-3.729999542236328,-8.519996643066406,6.3500022888183585,14.409996032714846,-9.94000244140625,4.30999755859375,-6.720001220703125,12.910003662109375,-9.260002136230467,12.239997863769533,6.0,6.0,06-30,1.2929159800211592
04-17,3.4399986267089844,-3.875,-3.3850021362304688,-9.53499984741211,8.094997406005861,13.389999389648438,-10.980003356933594,6.0,-6.720001220703125,12.779998779296875,-9.729995727539062,7.8100013732910165,6.0,6.0,07-01,0.6074994405110677
04-18,5.974998474121094,-4.80999755859375,-3.3850021362304688,-9.504997253417967,8.18499755859375,13.330001831054688,-10.18999481201172,6.0,-5.810005187988281,10.650001525878906,-10.709999084472656,9.490001678466797,6.0,6.0,07-02,0.7683337529500326
04-19,5.974998474121094,-4.80999755859375,-3.185001373291016,-6.924999237060548,10.93499755859375,13.020004272460938,-10.18999481201172,4.310005187988281,-3.290000915527344,10.389999389648438,-13.980003356933596,9.490001678466797,6.0,6.0,07-03,0.9783341089884441
04-20,5.974998474121094,-6.569999694824219,-4.3600006103515625,-6.459999084472656,9.454998016357422,13.020004272460938,-10.18999481201172,4.069999694824219,-3.3000030517578125,10.459999084472656,-13.980003356933596,9.490001678466797,6.0,6.0,07-04,0.6341667175292969
04-21,5.504999160766602,-6.75,-3.659999847412109,-7.329998016357423,10.740001678466797,13.020004272460938,-9.039993286132812,4.2599945068359375,-3.060005187988281,7.560005187988281,-19.51000213623047,10.15999984741211,6.0,6.0,07-05,0.15791718165079752
04-22,5.3400001525878915,-6.9650001525878915,-3.6299972534179688,-4.354999542236328,10.740001678466797,14.210006713867188,-11.93000030517578,3.8600006103515625,-1.3699951171875,7.590003967285156,-19.51000213623047,6.709999084472656,6.0,6.0,07-06,0.05750147501627604
04-23,2.055002212524414,-7.69000244140625,-3.549999237060547,-4.354999542236328,10.44000244140625,11.150001525878906,-12.599998474121096,3.0,-3.4399948120117188,7.590003967285156,-19.040000915527344,6.299999237060548,6.0,6.0,07-07,-0.8449988365173341
04-24,-0.26999855041503906,-6.31500244140625,-4.0349998474121085,-4.779998779296875,9.124996185302734,13.269996643066404,-11.6300048828125,3.0,-3.4399948120117188,7.840003967285156,-16.740005493164062,7.049999237060548,5.0,7.0,07-08,-0.5770840644836426
04-25,-0.9199981689453124,-4.3400001525878915,-4.0349998474121085,-7.2150001525878915,9.269996643066406,16.69000244140625,-10.639999389648438,3.0,-4.969993591308594,7.819999694824219,-13.510002136230467,3.5699996948242188,5.0,7.0,07-09,-0.4399995803833008
04-26,-0.3249988555908203,-4.3400001525878915,-4.7250022888183585,-8.939998626708984,10.319995880126953,17.920005798339844,-12.870002746582033,-0.01999664306640625,-5.680000305175781,6.729995727539063,-7.7299957275390625,2.8999977111816406,4.0,8.0,07-10,-0.5633333524068197
04-27,-0.3249988555908203,-2.414997100830078,-4.104999542236328,-8.764999389648438,10.145000457763672,18.5,-12.870002746582033,-2.9000015258789062,-4.55999755859375,9.339996337890623,-7.849998474121094,2.8999977111816406,4.0,8.0,07-11,-0.24208339055379235
04-28,-0.8099994659423828,-1.5999984741210938,-5.0300025939941415,-10.229999542236328,10.170001983642578,18.5,-13.970001220703125,0.6500015258789062,-2.8799972534179688,8.800003051757812,-6.339996337890625,2.459999084472656,5.0,7.0,07-12,-0.02333243687947591
04-29,-1.5599994659423828,-2.845001220703125,-7.020000457763673,-8.96500015258789,10.170001983642578,16.939994812011722,-14.43999481201172,0.279998779296875,-1.4000015258789062,6.490005493164063,-6.339996337890625,-3.3800010681152344,4.0,8.0,07-13,-1.0058328310648599
04-30,-0.4899997711181641,-3.290000915527344,-6.025001525878906,-8.96500015258789,10.55500030517578,16.959999084472653,-14.409996032714846,2.3600006103515625,-1.4599990844726562,6.490005493164063,-5.3899993896484375,-2.109996795654297,4.0,8.0,07-14,-0.4812490145365397
05-01,-1.125,-3.375,-6.0,-9.675003051757812,12.360000610351562,16.529998779296875,-14.69000244140625,1.05999755859375,-1.4599990844726562,7.100006103515625,-1.0500030517578125,0.3800010681152344,5.0,7.0,07-15,0.004583040873209636
05-02,-3.685001373291016,-3.459999084472656,-6.0,-9.114997863769533,12.520004272460938,18.6300048828125,-14.159996032714846,1.05999755859375,-1.3000030517578125,7.489997863769531,1.7300033569335938,0.5399971008300781,6.0,6.0,07-16,0.35416730244954425
05-03,-2.779998779296875,-3.459999084472656,-4.604999542236328,-7.389999389648437,9.77999496459961,14.19000244140625,-16.139999389648438,3.209999084472656,0.04999542236328125,9.949996948242188,-2.1500015258789062,0.7199974060058594,6.0,6.0,07-17,0.11458237965901692
05-04,-2.779998779296875,-1.7999992370605469,-4.7849998474121085,-6.025001525878906,9.259998321533203,17.849998474121094,-16.139999389648438,5.290000915527344,3.270004272460937,9.949996948242188,-4.239997863769531,0.7199974060058594,6.0,6.0,07-18,0.8808333079020182
05-05,-2.264999389648437,0.5100021362304688,-1.579998016357422,-4.7649993896484375,9.895000457763672,17.849998474121094,-11.290000915527346,2.839996337890625,1.0200042724609375,10.43000030517578,-6.049995422363281,1.4099998474121094,7.0,5.0,07-19,1.5004173914591472
05-06,-4.1399993896484375,-0.045001983642578125,-2.960002899169922,-4.0349998474121085,9.895000457763672,13.470001220703125,-12.68000030517578,4.569999694824219,0.0099945068359375,9.69000244140625,-6.049995422363281,1.979999542236328,6.0,6.0,07-20,0.8087498346964518
05-07,-1.9650001525878904,0.5850028991699219,-3.645000457763672,-4.0349998474121085,5.069999694824219,10.760002136230467,-13.0,3.4000015258789062,2.6199951171875,9.69000244140625,-6.589996337890625,-1.1500015258789062,6.0,6.0,07-21,0.14500045776367188
05-08,-2.2849998474121094,-1.1699981689453125,-3.7550010681152335,-3.645000457763672,4.5500030517578125,14.30999755859375,-15.56999969482422,3.470001220703125,2.6199951171875,8.290000915527344,-8.599998474121094,-3.75,5.0,7.0,07-22,-0.4612499872843425
05-09,-0.5700035095214844,-2.0349998474121094,-3.7550010681152335,-3.424999237060547,6.2949981689453125,13.870002746582033,-14.279998779296875,3.470001220703125,2.6699981689453125,4.599998474121094,-7.199996948242188,0.5799980163574219,6.0,6.0,07-23,0.01833311716715495
05-10,-1.1650009155273438,-2.0349998474121094,-3.520000457763672,-3.6399993896484375,7.955001831054687,12.910003662109375,-15.520004272460938,2.3799972534179688,-0.8799972534179688,3.4000015258789062,-7.790000915527344,0.3499984741210937,5.0,7.0,07-24,-0.6295833587646484
05-11,-1.1650009155273438,-1.1599998474121094,-0.56500244140625,-3.515003204345703,7.489997863769531,12.30999755859375,-15.520004272460938,1.1699981689453125,-1.3699951171875,5.449996948242188,-5.910003662109375,0.3499984741210937,5.0,7.0,07-25,-0.20291837056477866
05-12,-0.9249992370605468,-2.59000015258789,0.5250015258789062,-2.770000457763672,5.205001831054688,12.30999755859375,-17.32000732421875,0.4800033569335938,-1.3899993896484375,6.94000244140625,-5.819999694824219,0.4699974060058594,6.0,6.0,07-26,-0.4070835113525391
05-13,1.7449989318847656,-2.875,0.3849983215332031,-2.674999237060547,5.205001831054688,10.779998779296877,-15.279998779296875,0.09999847412109376,0.1399993896484375,9.70000457763672,-5.819999694824219,0.6499977111816406,8.0,4.0,07-27,0.1712500254313151
05-14,1.6650009155273438,-1.18499755859375,0.9350013732910156,-2.674999237060547,3.700004577636719,12.29999542236328,-15.56999969482422,-0.2400054931640625,0.01999664306640625,9.70000457763672,-6.659996032714844,1.479999542236328,7.0,5.0,07-28,0.2891670862833659
05-15,3.0250015258789062,-1.335002899169922,-0.3149986267089844,-1.7599983215332031,6.339996337890625,12.080001831054688,-17.279998779296875,-0.910003662109375,0.01999664306640625,8.150001525878906,-8.889999389648438,0.8800010681152344,6.0,6.0,07-29,0.0004164377848307292
05-16,1.1949996948242188,-1.335002899169922,-0.3149986267089844,-0.7649993896484375,6.260002136230469,10.889999389648438,-14.95000457763672,-0.910003662109375,0.9199981689453124,7.360000610351562,-10.889999389648438,-5.1699981689453125,5.0,7.0,07-30,-0.6425005594889323
05-17,-0.07500076293945312,-1.335002899169922,-0.7700004577636719,1.8350028991699217,4.730003356933594,11.93999481201172,-14.06000518798828,-1.7900009155273438,3.0300064086914062,2.9999923706054688,-9.099998474121094,-3.939998626708984,5.0,7.0,07-31,-0.5445839564005533
05-18,-0.07500076293945312,-1.1399993896484375,-1.595001220703125,1.625,4.245002746582031,11.329994201660154,-14.06000518798828,-0.5100021362304688,3.7299957275390634,4.109992980957031,-7.620002746582031,-3.939998626708984,5.0,7.0,08-01,-0.3250020345052083
05-19,-0.55999755859375,-0.8250007629394531,-1.9949989318847656,-1.0949974060058594,4.94000244140625,11.329994201660154,-12.520004272460938,1.6199951171875,1.3300018310546875,1.4900054931640625,-7.830001831054687,-2.1599998474121094,5.0,7.0,08-02,-0.5229167938232422
05-20,0.2299995422363281,0.6049995422363281,-2.6149978637695312,0.125,4.94000244140625,11.739997863769533,-11.919998168945312,-2.220001220703125,1.3499984741210938,-1.8799972534179688,-7.830001831054687,-6.069999694824219,6.0,6.0,08-03,-1.1287498474121094
05-21,2.139999389648437,0.960002899169922,-2.520000457763672,0.125,5.605003356933594,5.279998779296875,-14.29999542236328,-1.3799972534179688,-0.7900009155273438,-1.8799972534179688,-9.779998779296877,-5.470001220703125,5.0,7.0,08-04,-1.8341655731201167
05-22,3.729999542236328,2.1699981689453125,-3.134998321533203,-0.44000244140625,10.57000732421875,4.3600006103515625,-13.81999969482422,1.100006103515625,-0.7900009155273438,1.80999755859375,-11.840003967285154,-5.9099998474121085,6.0,6.0,08-05,-1.0162496566772459
05-23,4.0900001525878915,2.8199996948242188,-3.134998321533203,-2.789997100830078,10.81500244140625,7.839996337890625,-12.410003662109375,1.100006103515625,-0.20999908447265625,2.9499969482421875,-6.3899993896484375,-2.979999542236328,6.0,6.0,08-06,0.14166704813639322
05-24,4.375,2.8199996948242188,-4.039997100830078,2.979999542236328,11.67499542236328,3.899993896484375,-13.06000518798828,-0.1199951171875,-3.7699966430664062,2.430000305175781,-8.160003662109375,-0.6899986267089844,6.0,6.0,08-07,-0.13833395640055338
05-25,4.375,2.145000457763672,-7.5349998474121085,1.9949989318847656,11.050003051757812,1.909996032714844,-13.06000518798828,1.1599960327148438,-0.5699996948242188,6.1399993896484375,-8.830001831054688,-0.6899986267089844,7.0,5.0,08-08,-0.15916760762532553
05-26,4.375,1.3500022888183594,-5.6550025939941415,1.9399986267089844,12.550003051757812,1.909996032714844,-13.06000518798828,7.860000610351562,-1.5500030517578125,8.220001220703125,-9.55999755859375,-0.6899986267089844,7.0,5.0,08-09,0.6408329010009766
05-27,4.9750022888183585,-3.625,-9.775001525878906,1.520000457763672,12.550003051757812,1.909996032714844,-11.31999969482422,9.090003967285156,1.529998779296875,6.55999755859375,-9.55999755859375,-1.8400001525878904,7.0,5.0,08-10,0.16791693369547525
05-28,1.0600013732910156,-2.4499969482421875,-9.139999389648438,1.520000457763672,12.550003051757812,0.8699951171875,-15.389999389648438,9.019996643066406,0.7299957275390625,6.55999755859375,-9.55999755859375,-2.829998016357422,7.0,5.0,08-11,-0.5883334477742513
05-29,1.5049972534179688,-0.06500244140625,-11.075000762939453,1.520000457763672,12.875,1.1100006103515625,-12.420005798339846,8.05999755859375,0.7299957275390625,6.55999755859375,-6.069999694824219,-0.5100021362304688,7.0,5.0,08-12,0.1849981943766276
05-30,-1.479999542236328,-1.8400001525878904,-11.075000762939453,4.210002899169922,13.074996948242188,2.5,-11.459999084472654,8.05999755859375,0.7299957275390625,2.549995422363281,-4.589996337890625,-2.390003204345703,6.0,6.0,08-13,-0.1425008773803711
05-31,-1.2649993896484375,-1.8400001525878904,-11.075000762939453,5.3449974060058585,14.829994201660154,1.3100051879882812,-8.830001831054688,8.05999755859375,-1.1899948120117188,4.959999084472656,-3.959999084472656,-2.720001220703125,5.0,7.0,08-14,0.3020830154418945
06-01,-1.2649993896484375,-1.8400001525878904,-7.525001525878906,8.81500244140625,13.245002746582033,0.970001220703125,-8.830001831054688,9.529998779296877,-1.8700027465820312,3.1500015258789062,-4.430000305175781,-2.720001220703125,5.0,7.0,08-15,0.6024999618530273
06-02,-1.0099983215332031,-6.194999694824219,-8.380001068115233,9.974998474121094,12.324996948242188,0.970001220703125,-9.839996337890623,10.709999084472656,-1.69000244140625,4.400001525878906,-7.930000305175781,-5.720001220703125,5.0,7.0,08-16,-0.19875017801920566
06-03,1.5,-7.7800025939941415,-7.134998321533202,9.709999084472656,12.324996948242188,-0.31000518798828125,-9.330001831054688,10.840003967285156,-2.180000305175781,-3.2299957275390625,-7.930000305175781,-7.950000762939452,4.0,8.0,08-17,-0.9558337529500326
06-04,0.7400016784667969,-4.450000762939453,-7.239997863769531,9.709999084472656,12.1199951171875,-2.44000244140625,-7.4499969482421875,8.990005493164062,-4.219993591308594,-3.2299957275390625,-9.260002136230467,-7.180000305175781,4.0,8.0,08-18,-1.1591657002766926
06-05,-0.8350028991699219,-2.9899978637695312,-7.529998779296875,8.974998474121094,14.034996032714846,-1.8100051879882808,-9.669998168945312,8.950004577636719,-4.219993591308594,-1.1399993896484375,-7.089996337890625,-12.770000457763672,3.0,9.0,08-19,-1.3412494659423828
06-06,-0.68499755859375,-3.895000457763672,-7.529998779296875,8.034999847412111,12.425003051757812,-3.8899993896484375,-8.699996948242188,8.950004577636719,-5.849998474121094,-0.2299957275390625,-8.349998474121094,-15.760002136230467,3.0,9.0,08-20,-2.1233317057291665
06-07,0.060001373291015625,-3.895000457763672,-7.025001525878906,7.870002746582031,10.0050048828125,-2.4800033569335938,-12.040000915527346,4.8000030517578125,-4.7700042724609375,-3.160003662109375,-6.790000915527344,-16.5,4.0,8.0,08-21,-2.8270835876464844
06-08,0.060001373291015625,-6.0050010681152335,-10.65500259399414,7.845001220703125,11.5,-2.2300033569335938,-12.040000915527346,6.370002746582031,-4.0200042724609375,-2.9000015258789062,-8.509994506835938,-16.5,4.0,8.0,08-22,-3.09041690826416
06-09,-0.41500091552734375,-6.145000457763673,-11.604999542236328,8.419998168945312,10.110000610351562,-2.2300033569335938,-12.019996643066404,7.180000305175781,-6.3899993896484375,-2.520004272460937,-7.9799957275390625,-13.860000610351562,3.0,9.0,08-23,-3.12125015258789
06-10,-0.845001220703125,-8.674999237060549,-10.65999984741211,8.490001678466799,10.110000610351562,-1.410003662109375,-13.68000030517578,9.610000610351562,-5.6399993896484375,-0.69000244140625,-7.9799957275390625,-11.53000259399414,3.0,9.0,08-24,-2.7416667938232417
06-11,-0.6499977111816406,-9.064998626708984,-7.8699989318847665,8.490001678466799,11.364997863769533,-3.509994506835937,-15.790000915527346,9.81999969482422,-4.769996643066406,-0.69000244140625,-9.279998779296877,-7.760002136230469,3.0,9.0,08-25,-2.4758326212565103
06-12,-0.8950004577636719,-10.169998168945312,-7.395000457763673,7.370002746582031,12.384994506835938,-5.3600006103515625,-20.269996643066406,9.340003967285156,-4.769996643066406,-1.1500015258789062,-9.519996643066406,-8.239997863769531,3.0,9.0,08-26,-3.2229156494140625
06-13,-0.9199981689453124,-10.744998931884766,-7.395000457763673,7.1550025939941415,11.644996643066404,-6.079994201660156,-20.86000061035156,9.340003967285156,-5.449996948242188,-1.8499984741210935,-14.739997863769533,-7.829998016357423,3.0,9.0,08-27,-3.9774983723958335
06-14,-1.1349983215332031,-10.744998931884766,-7.555000305175781,7.2250022888183585,12.68499755859375,-4.629997253417969,-18.230003356933594,7.75,-4.30999755859375,-0.06999969482421875,-12.919998168945312,-8.950000762939453,3.0,9.0,08-28,-3.4070828755696616
06-15,-1.1349983215332031,-11.450000762939453,-7.305000305175781,6.2649993896484375,11.479995727539062,-5.4199981689453125,-18.230003356933594,7.80999755859375,-2.529998779296875,4.470001220703125,-13.80999755859375,-8.950000762939453,4.0,8.0,08-29,-3.233750343322754
06-16,0.060001373291015625,-11.884998321533205,-5.8800010681152335,7.0449981689453125,13.06500244140625,-5.4199981689453125,-19.09000396728516,10.0,-5.1199951171875,1.3499984741210938,-12.94000244140625,-11.34000015258789,5.0,7.0,08-30,-3.34624989827474
06-17,-0.14500045776367188,-10.329998016357422,-5.349998474121094,6.6599998474121085,13.06500244140625,-3.779998779296875,-13.229995727539062,10.25,-4.9199981689453125,2.159996032714844,-12.94000244140625,-7.529998779296875,4.0,8.0,08-31,-2.1741660435994468
06-18,0.5750007629394531,-11.330001831054688,-4.3500022888183585,6.6599998474121085,12.220001220703125,-4.930000305175781,-11.5,6.879997253417969,-4.400001525878906,2.159996032714844,-15.770004272460938,-6.720001220703125,5.0,7.0,09-01,-2.5420846939086914
06-19,1.0400009155273438,-11.869998931884766,-4.1550025939941415,6.0500030517578125,11.93500518798828,-7.410003662109375,-9.959999084472656,5.299995422363281,-4.400001525878906,1.6999969482421875,-16.120002746582028,-6.959999084472656,5.0,7.0,09-02,-2.9041671752929688
06-20,1.5699996948242188,-10.334999084472656,-4.1550025939941415,7.555000305175781,13.04999542236328,-8.100006103515625,-12.06000518798828,5.299995422363281,-4.180000305175781,-0.6500015258789062,-16.969993591308597,-7.209999084472656,4.0,8.0,09-03,-3.01541805267334
06-21,1.2199974060058594,-10.334999084472656,-4.8000030517578125,9.704998016357422,13.32500457763672,-9.70000457763672,-10.370002746582033,3.579994201660156,-3.4500045776367188,2.310005187988281,-18.18000030517578,-8.719997406005861,5.0,7.0,09-04,-2.9512510299682617
06-22,1.2199974060058594,-8.254997253417969,-4.375,10.34000015258789,15.509994506835938,-9.670005798339844,-10.370002746582033,4.8899993896484375,-2.7000045776367188,-0.279998779296875,-16.430000305175778,-8.719997406005861,4.0,8.0,09-05,-2.403334617614746
06-23,1.3149986267089844,-8.449996948242188,-4.370002746582031,12.209999084472654,16.55999755859375,-9.670005798339844,-11.080001831054688,4.0500030517578125,-2.139999389648437,0.8499984741210938,-14.989997863769533,-8.759998321533201,5.0,7.0,09-06,-2.0395838419596357
06-24,1.2999992370605469,-7.549999237060548,-4.959999084472656,11.81999969482422,16.55999755859375,-5.279998779296875,-10.629997253417967,7.850006103515625,-1.5199966430664062,1.05999755859375,-14.989997863769533,-5.25,5.0,7.0,09-07,-0.9658323923746744
06-25,0.56500244140625,-9.724998474121094,-6.6850013732910165,11.81999969482422,15.19000244140625,-11.409996032714846,-10.20000457763672,16.240005493164062,0.4599990844726562,1.05999755859375,-14.470001220703125,-7.599998474121094,6.0,6.0,09-08,-1.2295827865600586
06-26,1.4550018310546875,-8.354999542236326,-4.830001831054688,12.290000915527346,14.789993286132812,-10.239997863769533,-11.169998168945312,15.730003356933596,0.4599990844726562,-1.7900009155273438,-17.489997863769528,-5.6199989318847665,5.0,7.0,09-09,-1.2308330535888672
06-27,3.34000015258789,-7.575000762939452,-4.830001831054688,13.34000015258789,15.355003356933596,-14.42999267578125,-8.589996337890625,15.730003356933596,-0.15000152587890625,-8.430000305175781,-15.669998168945312,-8.819999694824219,4.0,8.0,09-10,-1.7274986902872722
06-28,3.740001678466797,-7.575000762939452,-5.870002746582031,13.859996795654295,15.985000610351562,-15.550003051757812,-9.31999969482422,12.56999969482422,-0.4199981689453125,-9.029998779296877,-13.160003662109375,-7.790000915527344,4.0,8.0,09-11,-1.880000750223796
06-29,3.740001678466797,-4.9850006103515625,-6.924999237060548,11.145000457763672,14.095001220703125,-14.849998474121096,-9.31999969482422,11.989997863769533,-3.220001220703125,-10.110000610351562,-12.989997863769533,-7.790000915527344,4.0,8.0,09-12,-2.4349997838338218
06-30,3.2600021362304688,-4.5,-9.615001678466797,11.744998931884766,15.919998168945312,-14.849998474121096,-10.620002746582033,9.230003356933594,-2.589996337890625,-6.180000305175781,-12.05999755859375,-8.799999237060547,4.0,8.0,09-13,-2.421666145324707
07-01,4.8899993896484375,-3.44000244140625,-8.485000610351562,12.020000457763672,15.919998168945312,-14.540000915527346,-7.709999084472656,8.200004577636719,-3.900001525878906,-5.459999084472656,-12.05999755859375,-11.860000610351562,4.0,8.0,09-14,-2.202083269755045
07-02,5.859996795654298,-3.0249977111816406,-8.244998931884767,12.020000457763672,14.634994506835938,-13.170005798339846,-8.519996643066406,7.639999389648437,-1.2700042724609375,-5.459999084472656,-6.529998779296875,-11.470001220703125,4.0,8.0,09-15,-1.4612509409586592
07-03,7.229997634887695,-3.825000762939453,-7.7449989318847665,9.045001983642578,14.905006408691404,-15.43000030517578,-8.659996032714844,5.689994812011719,-1.2700042724609375,-5.489997863769531,-7.519996643066406,-11.240001678466797,4.0,8.0,09-16,-2.025832970937093
07-05,10.30000114440918,-4.134998321533203,-7.7449989318847665,12.810001373291016,12.70000457763672,-10.510002136230467,-5.149993896484375,5.689994812011719,1.4799957275390625,-5.400001525878906,-2.930000305175781,-9.549999237060547,5.0,7.0,09-18,-0.20333305994669595
07-06,10.30000114440918,-4.134998321533203,-5.93499755859375,12.880001068115234,14.0050048828125,-10.540000915527344,-5.149993896484375,8.189994812011719,4.590003967285156,-6.80999755859375,-8.930000305175781,-9.549999237060547,5.0,7.0,09-19,-0.09041515986124676
07-07,11.325000762939453,-6.400001525878906,-6.694999694824219,12.19499969482422,16.014999389648438,-10.540000915527344,-6.779998779296875,9.360000610351562,4.6100006103515625,-6.680000305175781,-8.830001831054688,-7.25,5.0,7.0,09-20,0.027499834696451824
07-08,10.399999618530273,-8.555000305175781,-7.079998016357423,11.040000915527344,16.014999389648438,-10.790000915527344,-4.829994201660156,7.510002136230469,3.509994506835937,-5.959999084472656,-8.830001831054688,-6.25,5.0,7.0,09-21,-0.31833314895629883
07-09,9.620000839233398,-8.919998168945312,-5.944999694824219,11.040000915527344,14.784996032714846,-11.579994201660154,-9.040000915527344,7.5,4.55999755859375,-5.959999084472656,-7.830001831054687,-3.6300010681152335,5.0,7.0,09-22,-0.44999996821085614
07-10,9.389999389648438,-7.959999084472656,-7.790000915527344,12.110000610351562,14.229995727539062,-10.589996337890623,-8.020004272460938,10.6199951171875,4.55999755859375,-6.8000030517578125,-9.050003051757812,-6.5900001525878915,5.0,7.0,09-23,-0.4908348719278972
07-11,10.099998474121094,-7.5900001525878915,-7.790000915527344,10.835002899169922,12.659996032714846,-11.910003662109375,-8.989997863769531,10.6199951171875,3.5500030517578125,-5.450004577636719,-9.839996337890623,-6.5,5.0,7.0,09-24,-0.8587506612141927
07-12,9.189998626708984,-7.5900001525878915,-7.729999542236327,11.449996948242188,12.074996948242188,-14.850006103515625,-11.169998168945312,8.379997253417969,3.3199996948242188,-4.680000305175781,-10.770004272460938,-8.569999694824219,5.0,7.0,09-25,-1.7454182306925456
07-13,9.189998626708984,-8.224998474121094,-11.095001220703123,10.139999389648438,14.275001525878904,-13.550003051757812,-11.169998168945312,8.770004272460938,2.7400054931640625,-1.970001220703125,-10.19000244140625,-8.569999694824219,5.0,7.0,09-26,-1.6379162470499675
07-14,8.770000457763674,-8.485000610351562,-11.494998931884766,9.59000015258789,13.920005798339846,-13.550003051757812,-12.19000244140625,5.120002746582031,4.4199981689453125,1.029998779296875,-11.980003356933596,-10.89999771118164,6.0,6.0,09-27,-2.145833333333333
07-15,6.7849998474121085,-7.040000915527344,-12.255001068115234,8.680000305175781,13.920005798339846,-11.300003051757812,-9.989997863769533,5.160003662109375,4.970001220703125,0.6999969482421875,-11.980003356933596,-10.80999755859375,6.0,6.0,09-28,-1.929999669392904
07-16,4.845001220703125,-5.5149993896484375,-11.454998016357422,8.680000305175781,13.410003662109375,-16.739997863769528,-9.610000610351562,5.30999755859375,5.4199981689453125,0.6999969482421875,-10.230003356933594,-10.369998931884766,6.0,6.0,09-29,-2.1295833587646484
07-17,5.270000457763672,-5.115001678466797,-13.614997863769533,7.680000305175781,13.129997253417967,-13.670005798339846,-11.06999969482422,10.709999084472656,5.4199981689453125,0.9899978637695312,-10.100006103515623,-9.720001220703123,6.0,6.0,09-30,-1.6741682688395183
07-18,4.6699981689453125,-4.095001220703125,-13.614997863769533,8.25,11.864997863769533,-14.169998168945312,-7.800003051757812,10.709999084472656,5.620002746582031,3.4199981689453125,-10.449996948242188,-11.510002136230467,6.0,6.0,10-01,-1.4254169464111328
07-19,5.604999542236328,-4.095001220703125,-14.869998931884766,6.900001525878906,10.30500030517578,-17.1300048828125,-5.129997253417969,11.919998168945312,2.5100021362304688,5.180000305175781,-12.81999969482422,-11.760002136230467,6.0,6.0,10-02,-1.9487501780192056
07-20,5.604999542236328,-5.165000915527344,-15.014999389648438,7.479999542236327,11.329994201660154,-19.30000305175781,-5.129997253417969,12.94000244140625,3.079994201660156,7.140007019042969,-15.629997253417967,-11.760002136230467,6.0,6.0,10-03,-2.0354169209798183
07-21,5.460002899169922,-4.724998474121094,-17.27499771118164,8.970001220703125,11.43499755859375,-19.30000305175781,-4.529998779296875,15.220001220703125,4.269996643066406,7.1399993896484375,-17.409996032714847,-14.479999542236328,6.0,6.0,10-04,-2.1020828882853193
07-22,4.825000762939453,-3.514999389648437,-19.079998016357425,6.94000244140625,11.43499755859375,-19.70000457763672,-2.5,15.129997253417967,3.19000244140625,7.5200042724609375,-17.409996032714847,-15.329998016357422,6.0,6.0,10-05,-2.374582608540853
07-23,3.47500228881836,-3.305000305175781,-16.27499771118164,6.94000244140625,11.860000610351562,-18.88999938964844,0.7399978637695312,16.389999389648438,3.020004272460937,7.5200042724609375,-17.789993286132812,-14.039997100830078,7.0,5.0,10-06,-1.6962480545043943
07-24,3.909999847412109,-3.1949996948242188,-14.704998016357422,7.790000915527344,13.864997863769533,-19.62999725341797,5.489997863769531,18.62999725341797,3.020004272460937,4.760002136230469,-16.840003967285153,-12.580001831054688,7.0,5.0,10-07,-0.7904167175292969
07-25,5.1399993896484375,-2.60000228881836,-14.704998016357422,7.864997863769531,13.610000610351562,-19.730003356933594,9.649993896484377,18.62999725341797,1.4599990844726562,1.8499908447265625,-14.550003051757812,-12.56999969482422,7.0,5.0,10-08,-0.4958356221516927
07-26,5.204998016357422,-2.60000228881836,-14.884998321533205,6.245002746582031,13.544998168945312,-19.779998779296875,10.579994201660156,16.930000305175778,1.8000030517578125,2.19000244140625,-14.529998779296875,-11.85000228881836,7.0,5.0,10-09,-0.5958334604899088
07-27,5.204998016357422,-1.020000457763672,-12.764999389648438,4.404998779296875,13.375,-18.830001831054688,10.579994201660156,17.360000610351562,0.20999908447265625,0.6800079345703125,-15.18999481201172,-11.85000228881836,7.0,5.0,10-10,-0.6533333460489908
07-28,5.634998321533202,-1.0,-14.264999389648438,5.745002746582031,13.404998779296875,-18.830001831054688,6.9199981689453125,16.540000915527347,1.0800018310546875,2.45001220703125,-15.330001831054688,-10.560001373291016,7.0,5.0,10-11,-0.6841659545898438
07-29,9.395000457763672,-0.5600013732910156,-11.294998168945312,4.970001220703125,13.404998779296875,-19.68000030517578,9.300003051757812,15.590003967285154,1.6399993896484375,-3.42999267578125,-15.330001831054688,-10.830001831054688,6.0,6.0,10-12,-0.5687491099039713
07-30,8.349998474121094,1.029998779296875,-10.740001678466797,4.970001220703125,13.709999084472654,-21.669998168945312,8.760002136230469,17.350006103515625,1.7900009155273438,-3.42999267578125,-17.470001220703125,-9.020000457763672,7.0,5.0,10-13,-0.5308322906494141
07-31,8.275001525878906,-1.7999992370605469,-10.335002899169922,5.7449989318847665,14.68499755859375,-19.61000061035156,8.839996337890625,17.600006103515625,1.7900009155273438,-2.470001220703125,-16.939994812011722,-8.639999389648438,6.0,6.0,10-14,-0.23833306630452475
08-01,6.489997863769531,-1.8800010681152344,-10.335002899169922,4.69000244140625,13.459999084472654,-24.279998779296875,8.839996337890625,17.600006103515625,2.470001220703125,-3.949996948242188,-11.81999969482422,-7.729999542236327,6.0,6.0,10-15,-0.5370829900105795
08-02,7.395000457763673,-1.8800010681152344,-9.130001068115234,6.329998016357423,14.014999389648438,-27.970001220703125,9.339996337890623,16.410003662109375,4.330001831054688,-3.75,-14.269996643066404,-8.75,6.0,6.0,10-16,-0.6608333587646484
08-03,7.395000457763673,-1.4749984741210938,-8.880001068115234,1.75,12.895004272460938,-23.63999938964844,9.339996337890623,13.129997253417967,7.720001220703125,0.15999603271484375,-9.75,-8.75,7.0,5.0,10-17,-0.008750279744466145
08-04,6.995002746582031,-1.9949989318847656,-4.074996948242188,4.0,14.05500030517578,-23.63999938964844,9.040000915527344,10.240005493164062,6.760002136230469,-1.6399993896484375,-10.81999969482422,-10.84000015258789,6.0,6.0,10-18,-0.15999857584635416
08-05,7.5600013732910165,-1.2000007629394531,-7.254997253417969,4.75,14.05500030517578,-20.459999084472656,11.050003051757812,3.6199951171875,7.779998779296875,-3.7600021362304688,-10.81999969482422,-12.669998168945312,6.0,6.0,10-19,-0.6124998728434244
08-06,7.294998168945312,1.0349998474121094,-1.2900009155273438,4.75,14.534996032714846,-15.370002746582033,9.81999969482422,2.4699935913085938,6.990005493164063,-3.7600021362304688,-10.099998474121094,-13.470001220703125,7.0,5.0,10-20,0.2420822779337565
08-07,9.80999755859375,-0.2299995422363281,-0.3649978637695313,3.25,12.584999084472654,-14.839996337890625,11.04999542236328,4.399993896484375,6.990005493164063,-4.290000915527344,-10.780006408691406,-12.620002746582033,6.0,6.0,10-21,0.4133323033650716
08-08,9.105003356933594,0.09000015258789062,-0.3649978637695313,3.424999237060547,12.604995727539062,-15.019996643066404,8.600006103515625,4.399993896484375,5.510002136230469,-4.219993591308594,-15.919998168945312,-14.18000030517578,7.0,5.0,10-22,-0.4974988301595052
08-09,8.370002746582031,0.09000015258789062,-1.4949989318847656,1.8299980163574217,12.740005493164062,-12.270004272460938,7.510002136230469,4.680000305175781,5.410003662109375,-4.6399993896484375,-11.709999084472654,-15.34000015258789,7.0,5.0,10-23,-0.4020824432373047
08-10,8.370002746582031,-0.2899971008300781,0.17499923706054688,1.0600013732910156,13.19499969482422,-16.230003356933597,7.510002136230469,5.490005493164063,7.719993591308594,-6.519996643066406,-8.349998474121094,-15.34000015258789,7.0,5.0,10-24,-0.26749928792317706
08-11,9.59000015258789,0.8250007629394531,-1.2599983215332031,0.4300003051757813,9.840003967285156,-16.230003356933597,6.479995727539063,3.5999984741210938,8.44000244140625,-10.379997253417967,-5.979995727539063,-14.299999237060547,7.0,5.0,10-25,-0.7454160054524741
08-12,8.629997253417969,0.9749984741210938,-1.5349998474121094,0.6999969482421875,9.840003967285156,-14.620002746582033,5.870002746582031,2.420005798339844,8.490005493164062,-15.360000610351562,-5.979995727539063,-12.15999984741211,7.0,5.0,10-26,-1.0608323415120442
08-13,6.795001983642577,1.645000457763672,-4.385002136230469,0.6999969482421875,10.099998474121094,-12.949996948242188,5.75,2.1199951171875,8.160003662109375,-15.360000610351562,-6.579994201660156,-9.90999984741211,7.0,5.0,10-27,-1.1595830917358398
08-14,6.084999084472656,0.8300018310546875,-4.4350013732910165,0.17499923706054688,12.514999389648438,-11.830001831054688,3.459999084472656,1.589996337890625,8.160003662109375,-16.930000305175778,-3.049995422363281,-13.040000915527346,7.0,5.0,10-28,-1.3725001017252605
08-15,7.4650001525878915,0.8350028991699219,-4.4350013732910165,0.4399986267089844,13.425003051757812,-17.659996032714844,2.6899948120117188,1.589996337890625,9.1300048828125,-8.319999694824219,-2.459999084472656,-11.959999084472654,7.0,5.0,10-29,-0.7716662089029948
08-16,6.2150001525878915,0.8350028991699219,-3.5800018310546875,-0.14500045776367188,13.464996337890625,-13.93000030517578,4.779998779296875,1.8799972534179688,11.93999481201172,-9.350006103515623,-4.8699951171875,-14.03000259399414,6.0,6.0,10-30,-0.5658346811930338
08-17,6.2150001525878915,0.2999992370605469,-0.5800018310546875,0.6149978637695312,16.194999694824222,-12.300003051757812,4.779998779296875,1.5199966430664062,15.090003967285154,-12.729995727539062,-6.0,-14.03000259399414,7.0,5.0,10-31,-0.07708390553792317
08-18,5.9699974060058585,0.7950019836425781,3.775001525878906,2.259998321533203,13.81999969482422,-12.300003051757812,4.379997253417969,-0.9300003051757812,15.44000244140625,-9.259994506835938,-8.189994812011719,-13.84000015258789,7.0,5.0,11-01,0.16000048319498694
08-19,6.009998321533202,2.10000228881836,0.9300003051757812,3.459999084472656,13.81999969482422,-13.900001525878904,8.449996948242188,-1.3400039672851562,16.180000305175778,-9.43000030517578,-8.189994812011719,-11.639999389648438,7.0,5.0,11-02,0.537499745686849
08-20,4.0500030517578125,2.325000762939453,-0.2350006103515625,3.459999084472656,12.855003356933596,-15.05999755859375,9.1199951171875,-0.0099945068359375,18.599998474121094,-9.43000030517578,-7.069999694824219,-9.859996795654297,6.0,6.0,11-03,0.7287508646647135
08-21,3.09000015258789,3.0049972534179688,4.845001220703125,3.8600006103515625,13.279998779296875,-12.139999389648438,11.209999084472656,-0.2299957275390625,18.599998474121094,-10.150001525878906,-7.910003662109375,-8.239997863769531,7.0,5.0,11-04,1.6016664505004885
08-22,3.584999084472656,-1.545001983642578,4.845001220703125,3.984996795654297,12.290000915527346,-12.949996948242188,19.18999481201172,-0.2299957275390625,18.05000305175781,-10.43000030517578,-4.3600006103515625,-9.310001373291016,6.0,6.0,11-05,1.926666577657064
08-23,4.7350006103515625,-1.545001983642578,3.5349998474121094,4.0949974060058585,13.420005798339846,-17.660003662109375,17.209999084472653,-0.26999664306640625,17.839996337890625,-14.050003051757812,1.94000244140625,-8.290000915527344,7.0,5.0,11-06,1.7466662724812825
08-24,4.7350006103515625,0.0149993896484375,5.055000305175781,3.949996948242188,11.30999755859375,-11.840003967285154,17.209999084472653,1.3499984741210938,19.87999725341797,-11.110000610351562,1.7600021362304688,-8.290000915527344,9.0,3.0,11-07,2.8354155222574864
08-25,5.444999694824219,0.41500091552734375,6.709999084472656,6.4050025939941415,9.764999389648438,-11.840003967285154,18.11000061035156,1.5500030517578125,22.449996948242188,-11.31999969482422,-0.8300018310546875,-8.340000152587889,8.0,4.0,11-08,3.2099997202555337
08-26,7.0249977111816415,0.9949989318847656,5.6599998474121085,5.415000915527344,9.764999389648438,-13.300003051757812,15.480003356933596,3.25,22.68999481201172,-9.5,-0.8300018310546875,-7.6599998474121085,8.0,4.0,11-09,3.2491658528645835
08-27,8.694999694824219,0.029998779296875,5.180000305175781,5.415000915527344,10.175003051757812,-9.639999389648438,9.479995727539062,2.220001220703125,20.93000030517578,-9.5,-0.2400054931640625,-10.369998931884766,8.0,4.0,11-10,2.6979163487752285
08-28,9.575000762939453,2.21500015258789,3.34000015258789,5.5900001525878915,6.05999755859375,-8.839996337890625,8.060005187988281,2.290000915527344,20.93000030517578,-8.819999694824219,2.209999084472656,-5.8999977111816415,9.0,3.0,11-11,3.0591675440470376
08-29,9.59000015258789,3.1599998474121094,3.34000015258789,3.859996795654297,6.935005187988281,-11.379997253417967,8.270004272460938,2.290000915527344,21.18000030517578,-13.93000030517578,0.21999359130859372,-3.1500015258789062,9.0,3.0,11-12,2.532083511352539
08-30,9.125,3.1599998474121094,3.015003204345703,4.3149986267089835,7.199996948242188,-8.959999084472656,5.010002136230469,3.3600006103515625,21.11000061035156,-13.400001525878904,-0.3700027465820313,-3.430000305175781,8.0,4.0,11-13,2.511249860127767
08-31,9.125,3.5049972534179688,3.72500228881836,3.229999542236328,4.335006713867188,-10.150001525878906,5.010002136230469,4.1399993896484375,19.59000396728516,-16.980003356933597,-0.839996337890625,-3.430000305175781,8.0,4.0,11-14,1.77166748046875
09-01,9.814998626708984,2.084999084472656,6.295001983642577,2.979999542236328,5.515007019042969,-10.150001525878906,7.300003051757812,2.8600006103515625,18.80999755859375,-19.16000366210937,-1.5199966430664062,-3.299999237060547,8.0,4.0,11-15,1.7941672007242842
09-02,9.470001220703123,1.2800025939941406,7.709999084472656,2.020000457763672,5.515007019042969,-10.150001525878906,3.9800033569335938,3.7699966430664062,16.599998474121097,-19.61000061035156,-1.5199966430664062,-3.209999084472656,8.0,4.0,11-16,1.3212509155273438
09-03,9.369998931884766,1.0499992370605469,7.700000762939452,2.020000457763672,5.515007019042969,-11.889999389648438,4.8000030517578125,-0.26000213623046875,15.489997863769533,-19.61000061035156,-1.5199966430664062,-0.4600028991699219,7.0,5.0,11-17,1.0170838038126628
09-04,10.029998779296877,1.170001983642578,6.865001678466798,2.020000457763672,4.569999694824219,-6.449996948242188,7.900001525878906,0.3899993896484375,15.489997863769533,-19.61000061035156,-3.220001220703125,2.209999084472656,9.0,3.0,11-18,1.7804168065388997
09-05,8.170001983642576,0.7299995422363281,6.865001678466798,3.810001373291016,4.975006103515625,-8.830001831054688,5.319999694824219,0.3899993896484375,15.489997863769533,-16.300003051757812,-2.1199951171875,4.519996643066406,9.0,3.0,11-19,1.9183336893717449
09-06,7.549999237060548,0.7299995422363281,6.865001678466798,2.1299972534179688,3.4000015258789062,-3.7400054931640634,7.489997863769531,0.3899993896484375,13.580001831054688,-10.300003051757812,-5.180000305175781,4.519996643066406,9.0,3.0,11-20,2.2862488428751626
09-07,7.549999237060548,0.7299995422363281,3.174999237060547,2.865001678466797,2.1200027465820312,-3.0800018310546875,7.489997863769531,-1.9800033569335935,13.040000915527346,-8.760002136230469,-9.599998474121094,4.519996643066406,8.0,4.0,11-21,1.5058326721191406
09-08,7.549999237060548,0.920001983642578,4.2949981689453125,3.104999542236328,1.6350021362304688,-3.0800018310546875,7.489997863769531,-2.279998779296875,14.660003662109375,-8.610000610351562,-7.94000244140625,4.519996643066406,8.0,4.0,11-22,1.8554162979125977
09-09,6.239997863769531,1.7949981689453125,5.345001220703125,2.5,1.6350021362304688,-2.9799957275390625,5.720001220703125,3.0199966430664062,13.510002136230467,-11.959999084472654,-7.94000244140625,3.4899978637695312,9.0,3.0,11-23,1.6979166666666667
09-10,4.825000762939453,0.15000152587890625,4.950000762939453,2.5,1.7099990844726562,-2.5699996948242188,4.569999694824219,2.6899948120117188,13.730003356933596,-11.959999084472654,-8.040000915527344,7.349998474121094,9.0,3.0,11-24,1.6587498982747395
09-11,6.115001678466798,0.10499954223632812,4.4350013732910165,2.4850006103515625,1.0800018310546875,-1.3199996948242188,5.4199981689453125,2.2899932861328125,13.730003356933596,-13.860000610351562,-7.709999084472656,6.299999237060548,9.0,3.0,11-25,1.5891666412353516
09-12,5.545001983642578,-1.795001983642578,4.4350013732910165,2.579998016357422,1.0799942016601562,-1.7600021362304688,6.1399993896484375,2.2899932861328125,13.19000244140625,-10.94000244140625,-6.69000244140625,6.180000305175781,8.0,4.0,11-26,1.6879151662190754
09-13,5.730003356933594,-1.795001983642578,4.115001678466797,1.904998779296875,1.375,-2.350006103515625,8.709999084472656,4.8699951171875,10.489997863769533,-15.920005798339846,-5.870002746582031,6.180000305175781,8.0,4.0,11-27,1.4533316294352214
09-14,5.730003356933594,-1.75,1.9300003051757808,-0.4850006103515625,1.6949996948242188,-5.170005798339844,8.709999084472656,8.550003051757812,9.8800048828125,-15.279998779296875,-12.120002746582033,6.180000305175781,7.0,5.0,11-28,0.6558335622151693
09-15,4.345001220703125,-0.8899993896484375,0.2350006103515625,-0.6599998474121094,1.6999969482421875,-5.170005798339844,7.889999389648437,5.030006408691406,6.599998474121094,-15.590003967285154,-13.729995727539062,6.759998321533202,7.0,5.0,11-29,-0.2900002797444661
09-16,3.2399978637695312,-1.0400009155273438,2.714996337890625,-0.02500152587890625,1.6999969482421875,-8.480003356933594,3.589996337890625,2.5,6.7899932861328125,-13.770004272460938,-13.729995727539062,4.489997863769531,7.0,5.0,11-30,-1.001668930053711
09-17,2.3300018310546875,0.05500030517578125,5.2350006103515625,-0.02500152587890625,0.714996337890625,-11.120002746582033,2.3599929809570312,2.389999389648437,7.4499969482421875,-13.770004272460938,-9.30999755859375,4.1599998474121085,8.0,4.0,12-01,-0.7941681543986002
09-18,2.3149986267089844,0.6099967956542969,7.989997863769531,0.2350006103515625,-2.680000305175781,-18.26000213623047,7.1699981689453125,12.469993591308596,7.4499969482421875,-15.68000030517578,-8.970001220703125,4.6399993896484375,8.0,4.0,12-02,-0.22583516438802084
09-19,3.5050010681152344,1.9499969482421875,7.989997863769531,2.0349998474121094,-2.8649978637695312,-17.1300048828125,7.530006408691406,12.469993591308596,7.370002746582031,-14.699996948242188,-10.709999084472656,6.539997100830077,8.0,4.0,12-03,0.3320830663045247
09-20,2.904998779296875,1.9499969482421875,8.30999755859375,2.0349998474121094,-1.93499755859375,-11.43999481201172,4.340003967285156,12.1199951171875,8.139999389648438,-15.900001525878904,-10.209999084472656,6.539997100830077,8.0,4.0,12-04,0.5712496439615885
09-21,2.904998779296875,1.0049972534179688,9.549999237060547,1.645000457763672,-1.69000244140625,-9.93999481201172,4.340003967285156,11.230003356933594,9.020004272460938,-16.150001525878903,-11.349998474121096,6.539997100830077,8.0,4.0,12-05,0.5920839309692383
09-22,1.529998779296875,1.75,12.904998779296875,1.9850006103515625,-0.8649978637695312,-9.93999481201172,5.6399993896484375,11.129997253417967,6.5,-15.879997253417967,-8.079994201660156,6.8999977111816415,8.0,4.0,12-06,1.1312506993611653
09-23,2.325000762939453,2.0349998474121094,14.19499969482422,2.7550010681152344,-0.8649978637695312,-9.039993286132812,7.9499969482421875,14.709999084472654,4.6100006103515625,-19.919998168945312,-8.079994201660156,8.96999740600586,8.0,4.0,12-07,1.6370843251546223
09-24,3.509998321533203,1.1349983215332031,14.104999542236328,2.7550010681152344,-2.4799957275390625,-9.139999389648438,7.2299957275390625,14.709999084472654,2.5699996948242188,-19.919998168945312,-6.5099945068359375,8.699996948242188,8.0,4.0,12-08,1.388750076293945
09-25,4.164997100830078,0.7299995422363281,13.174999237060547,3.1500015258789062,-3.0,-9.610000610351562,3.4000015258789062,14.269996643066404,2.5699996948242188,-21.56999969482422,-6.180000305175781,7.8999977111816415,8.0,4.0,12-09,0.7499993642171224
09-26,2.560001373291016,0.4749984741210938,13.174999237060547,3.8800010681152335,-6.025001525878906,-13.68999481201172,7.680000305175781,14.269996643066404,1.9899978637695312,-23.18000030517578,-1.1299972534179688,7.9099998474121085,8.0,4.0,12-10,0.6595834096272787
09-27,2.7800025939941406,0.4749984741210938,12.209999084472654,2.075000762939453,-6.2949981689453125,-12.720001220703125,8.949996948242188,14.970001220703125,2.4000015258789062,-23.38999938964844,-0.470001220703125,7.9099998474121085,8.0,4.0,12-11,0.7412500381469727
09-28,2.7800025939941406,0.20999908447265625,13.169998168945312,2.84000015258789,-4.9850006103515625,-15.080001831054688,8.949996948242188,10.970001220703123,3.5699996948242188,-25.86000061035156,0.6199951171875,7.9099998474121085,9.0,3.0,12-12,0.4245824813842773
09-29,2.0250015258789062,-0.7949981689453125,14.985000610351562,2.270000457763672,-6.510002136230469,-15.080001831054688,8.25,11.399993896484375,4.470001220703125,-27.420005798339844,0.4499969482421875,9.15999984741211,8.0,4.0,12-13,0.26708221435546875
09-30,1.579998016357422,-1.1100006103515625,15.020000457763672,3.2749977111816406,-6.510002136230469,-12.229995727539062,5.379997253417969,9.120002746582033,3.0999984741210938,-25.56000518798828,0.4499969482421875,9.40999984741211,8.0,4.0,12-14,0.1604156494140625
10-01,2.5,-2.7350006103515625,15.044998168945312,3.2749977111816406,-7.944999694824219,-9.989997863769533,1.3000030517578125,11.900001525878904,2.7600021362304688,-25.56000518798828,3.089996337890625,10.489997863769533,8.0,4.0,12-15,0.3441661198933919
10-02,4.8149986267089835,-2.0349998474121094,12.379997253417967,2.799999237060547,-7.0,-10.68999481201172,-0.1999969482421875,8.099998474121094,2.7600021362304688,-26.06999969482422,6.909996032714844,10.539997100830078,7.0,5.0,12-16,0.1924997965494792
10-03,4.645000457763672,-2.799999237060547,12.379997253417967,3.71500015258789,-6.3899993896484375,-11.230003356933594,-3.3499984741210938,8.099998474121094,3.44000244140625,-27.55000305175781,4.650001525878906,8.889999389648438,7.0,5.0,12-17,-0.4583336512247722
10-04,5.3999977111816415,-2.799999237060547,9.754997253417967,3.784999847412109,-7.424995422363281,-9.6199951171875,-4.849998474121094,9.06999969482422,3.30999755859375,-30.14999389648437,6.990005493164063,8.889999389648438,7.0,5.0,12-18,-0.6370820999145508
10-05,5.3999977111816415,-3.604999542236328,8.819999694824219,5.529998779296875,-6.590003967285156,-3.949996948242188,-4.849998474121094,6.540000915527344,2.0,-34.84000396728516,9.04999542236328,8.889999389648438,7.0,5.0,12-19,-0.6337509155273438
10-06,4.364997863769531,-4.004997253417969,9.56999969482422,7.049999237060548,-5.415000915527344,-3.949996948242188,-7.0399932861328125,6.8600006103515625,3.720001220703125,-35.81999969482422,10.829994201660156,9.359996795654297,7.0,5.0,12-20,-0.3729165395100911
10-07,3.909999847412109,-3.4449996948242188,10.334999084472656,6.3149986267089835,-5.415000915527344,-2.470001220703125,-10.469993591308594,7.040000915527344,4.930000305175781,-36.849998474121094,10.829994201660156,8.639999389648438,7.0,5.0,12-21,-0.5541667938232422
10-08,1.6299972534179688,-4.0,9.279998779296877,6.3149986267089835,-4.730003356933594,-2.1100006103515625,-15.610000610351562,5.870002746582031,7.040000915527344,-36.849998474121094,11.859992980957033,7.680000305175781,7.0,5.0,12-22,-1.1354176203409831
10-09,2.545001983642578,-3.954998016357422,9.384998321533203,5.699996948242188,-3.095001220703125,3.05999755859375,-17.050003051757812,5.260002136230469,7.040000915527344,-39.37000274658203,12.660003662109375,7.789997100830077,8.0,4.0,12-23,-0.8358338673909506
10-10,3.59499740600586,-3.954998016357422,9.384998321533203,7.4350013732910165,-3.1699981689453125,5.229995727539063,-16.220001220703125,5.260002136230469,6.760002136230469,-36.7300033569336,13.75,7.1399993896484375,8.0,4.0,12-24,-0.12666702270507812
10-11,3.59499740600586,-3.954998016357422,9.020000457763672,7.270000457763673,-5.2350006103515625,11.29999542236328,-16.220001220703125,6.5,6.6100006103515625,-31.8800048828125,13.410003662109375,7.1399993896484375,8.0,4.0,12-25,0.6295827229817709
10-12,3.59499740600586,-3.6300010681152335,8.615001678466799,7.395000457763673,-6.720001220703125,12.650001525878904,-16.220001220703125,6.25,9.699996948242188,-34.919998168945305,15.18999481201172,7.1399993896484375,8.0,4.0,12-26,0.7537492116292318
10-13,4.069999694824219,-3.2750015258789062,9.05500030517578,6.259998321533202,-6.400001525878906,12.650001525878904,-15.470001220703125,7.629997253417969,10.489997863769533,-39.709999084472656,15.6199951171875,6.709999084472656,8.0,4.0,12-27,0.635832150777181
10-14,4.224998474121094,-3.7800025939941406,7.144996643066406,5.650001525878906,-6.400001525878906,12.57000732421875,-12.089996337890625,7.549995422363281,12.20000457763672,-33.580001831054695,15.6199951171875,7.729999542236327,8.0,4.0,12-28,1.4033330281575518
10-15,3.720001220703125,-4.959999084472656,8.799999237060547,5.650001525878906,-5.855003356933594,5.8800048828125,-13.720001220703125,8.760002136230469,11.150001525878906,-33.580001831054695,14.55999755859375,7.269996643066406,8.0,4.0,12-29,0.6395832697550455
10-16,3.560001373291016,-5.674999237060548,7.514999389648437,3.9050025939941406,-7.1349945068359375,2.5500030517578125,-17.010002136230472,7.870002746582031,11.150001525878906,-33.270004272460945,15.470001220703125,7.930000305175781,8.0,4.0,12-30,-0.26166566212972003
10-17,2.459999084472656,-5.069999694824219,7.514999389648437,3.1949996948242188,-6.114997863769531,3.1100006103515625,-13.720001220703125,7.870002746582031,10.910003662109377,-31.34999847412109,16.370002746582028,9.15999984741211,8.0,4.0,12-31,0.3612508773803711
10-18,2.459999084472656,-5.069999694824219,5.210002899169922,3.4399986267089844,-7.314994812011719,1.5699996948242188,-13.720001220703125,8.520004272460938,11.699996948242188,-29.76000213623047,18.699996948242188,9.15999984741211,8.0,4.0,01-01,0.40791670481363934
10-19,2.459999084472656,-4.145000457763672,4.2849998474121085,2.770000457763672,-8.485000610351562,-0.06000518798828125,-13.720001220703125,6.590003967285156,12.68999481201172,-30.150001525878906,14.729995727539062,9.15999984741211,7.0,5.0,01-02,-0.3229179382324219
10-20,2.429996490478516,-4.1850013732910165,5.355003356933594,4.3400001525878915,-8.240005493164062,-0.06000518798828125,-13.780006408691404,6.3699951171875,11.07000732421875,-29.040000915527344,16.099998474121097,9.06999969482422,7.0,5.0,01-03,-0.047501564025878906
10-21,2.93499755859375,-3.6949996948242183,3.9449996948242183,5.7849998474121085,-8.240005493164062,-3.3300018310546875,-13.169998168945312,7.220001220703125,12.330001831054688,-25.63999938964844,16.099998474121097,10.229999542236328,7.0,5.0,01-04,0.3724994659423828
10-22,2.9250030517578125,-2.479999542236328,5.18499755859375,5.7849998474121085,-8.654998779296875,0.0,-15.010002136230467,9.919998168945312,13.959999084472654,-25.63999938964844,14.19000244140625,8.419998168945312,7.0,5.0,01-05,0.7166665395100912
10-23,5.609996795654297,-2.6599998474121094,5.254997253417969,6.759998321533202,-6.709999084472656,-1.160003662109375,-15.75,10.0,13.959999084472654,-20.51000213623047,12.199996948242188,7.8400001525878915,7.0,5.0,01-06,1.2362486521402996
10-24,6.145000457763673,-2.5649986267089844,5.254997253417969,6.740001678466798,-8.43499755859375,-5.4199981689453125,-13.260002136230467,10.0,14.449996948242188,-16.169998168945312,13.019996643066404,10.419998168945312,7.0,5.0,01-07,1.6816663742065432
10-25,6.3100013732910165,-2.5649986267089844,7.0349998474121085,6.69000244140625,-9.709999084472656,-4.220001220703125,-16.069999694824222,10.95000457763672,14.79999542236328,-13.20000457763672,15.959999084472654,10.419998168945312,7.0,5.0,01-08,2.1999998092651367
10-26,6.3100013732910165,-1.7099990844726562,7.365001678466798,5.950000762939452,-7.784996032714844,-4.75,-16.069999694824222,12.040000915527346,15.25,-12.04999542236328,18.23999786376953,10.419998168945312,7.0,5.0,01-09,2.767500877380371
10-27,6.355003356933594,-1.470001220703125,4.795001983642578,3.825000762939453,-7.819999694824219,-4.75,-15.379997253417967,13.470001220703125,14.239997863769533,-6.5200042724609375,16.289993286132812,10.769996643066406,7.0,5.0,01-10,2.8170827229817714
10-28,7.140003204345702,-0.3400001525878906,3.4949989318847656,4.069999694824219,-7.819999694824219,-7.819999694824219,-19.330001831054688,12.219993591308596,12.18000030517578,-2.8499984741210938,16.289993286132812,12.84000015258789,7.0,5.0,01-11,2.5062491099039708
10-29,6.605003356933594,-0.3850021362304688,8.044998168945312,4.069999694824219,-9.150001525878906,-6.25,-20.0,12.980003356933596,12.480003356933596,-2.8499984741210938,15.529998779296875,11.379997253417967,7.0,5.0,01-12,2.7045834859212246
10-30,8.239997863769531,0.3300018310546875,6.8699989318847665,4.069999694824219,-6.665000915527344,-4.760002136230469,-22.18000030517578,14.5,12.480003356933596,-6.319999694824219,18.62999725341797,11.109996795654297,8.0,4.0,01-13,3.0254160563151036
10-31,6.724998474121094,1.2099990844726562,6.8699989318847665,4.805000305175781,-5.7949981689453125,-10.540000915527344,-23.150001525878906,14.5,12.139999389648438,-6.219993591308594,16.959999084472653,10.199996948242188,8.0,4.0,01-14,2.308749834696452
11-01,7.895000457763673,1.2099990844726562,8.645000457763674,4.375,-7.7599945068359375,-8.260002136230469,-21.900001525878906,13.759994506835938,9.720001220703123,-10.019996643066406,14.3699951171875,10.199996948242188,8.0,4.0,01-15,1.8529160817464192
11-02,7.895000457763673,0.375,3.5649986267089844,4.730003356933594,-7.430000305175781,-5.580001831054688,-21.900001525878906,13.979995727539062,12.19000244140625,-3.839996337890625,12.639999389648438,10.199996948242188,8.0,4.0,01-16,2.235416412353516
11-03,7.3800010681152335,4.924999237060547,1.9249992370605469,4.145000457763672,-6.5500030517578125,-5.580001831054688,-24.279998779296875,13.290000915527346,11.199996948242188,-7.760002136230469,13.04999542236328,10.329998016357422,8.0,4.0,01-17,1.8395821253458662
11-04,6.229999542236327,4.7849998474121085,0.6800003051757812,4.2800025939941415,-6.5500030517578125,-2.540000915527344,-22.30000305175781,13.589996337890625,6.430000305175781,-7.680000305175781,13.04999542236328,9.30999755859375,8.0,4.0,01-18,1.6070820490519206
11-05,4.9850006103515625,5.9850006103515625,1.2750015258789062,4.2800025939941415,-4.68499755859375,-8.360000610351562,-21.209999084472656,12.050003051757812,6.569999694824219,-7.680000305175781,12.729995727539062,9.75,8.0,4.0,01-19,1.3075005213419597
11-06,3.2600021362304688,6.709999084472656,2.10000228881836,1.6949996948242188,-3.139999389648437,-12.44000244140625,-22.29999542236328,11.970001220703125,6.569999694824219,-8.660003662109375,15.31999969482422,10.769996643066406,8.0,4.0,01-20,0.9879166285196941
11-07,2.4749984741210938,5.990001678466798,2.10000228881836,2.685001373291016,-0.7399978637695312,-9.240005493164062,-24.390003204345703,11.970001220703125,7.44000244140625,-10.480003356933594,12.279998779296875,5.039997100830078,8.0,4.0,01-21,0.4274994532267253
11-08,1.9650001525878904,5.990001678466798,1.729999542236328,5.1300010681152335,-1.0,-9.169998168945312,-25.130001068115234,12.040000915527346,9.909996032714844,-5.799995422363281,10.610000610351562,5.039997100830078,8.0,4.0,01-22,0.9429168701171876
11-09,1.9650001525878904,4.7250022888183585,3.424999237060547,6.135002136230469,-1.1100006103515625,-7.959999084472656,-25.130001068115234,11.760002136230467,9.590003967285156,-4.459999084472656,10.220001220703123,5.039997100830078,8.0,4.0,01-23,1.1833340326944988
11-10,2.575000762939453,3.740001678466797,1.5600013732910156,5.8699989318847665,0.13500213623046875,-7.959999084472656,-26.34000015258789,12.840003967285154,12.239997863769533,-4.3899993896484375,9.269996643066406,3.1599998474121094,9.0,3.0,01-24,1.0583337148030598
11-11,3.1699981689453125,3.805000305175781,0.7949981689453125,4.9949989318847665,0.13500213623046875,-8.209999084472656,-19.56999969482422,12.04999542236328,13.379997253417967,-4.680000305175781,9.269996643066406,3.4399986267089844,9.0,3.0,01-25,1.5483322143554688
11-12,2.595001220703125,4.8400001525878915,0.3900032043457031,4.9949989318847665,2.30999755859375,-7.199996948242188,-15.670005798339846,11.0,14.010002136230467,-4.680000305175781,9.79999542236328,4.859996795654297,9.0,3.0,01-26,2.270832697550456
11-13,3.2350006103515625,3.720001220703125,1.520000457763672,4.7350006103515625,-0.1450042724609375,-5.05999755859375,-20.65999984741211,11.220001220703123,14.010002136230467,-1.9499969482421875,9.220001220703123,2.680000305175781,8.0,4.0,01-27,1.8770840962727864
11-14,1.3050003051757812,4.924999237060547,1.520000457763672,5.8149986267089835,-2.0699996948242188,-5.830001831054688,-18.76000213623047,11.220001220703123,16.0,-0.8300018310546875,7.5,0.0,7.0,5.0,01-28,1.7329161961873372
11-15,0.9300003051757812,4.924999237060547,2.2249984741210938,4.5549964904785165,-4.6399993896484375,-3.3499984741210938,-18.720001220703125,9.330001831054688,16.089996337890625,-2.4899978637695312,3.159996032714844,0.0,7.0,5.0,01-29,1.0012493133544922
11-16,0.9300003051757812,5.614997863769531,2.029998779296875,3.7649993896484375,-0.6500015258789062,-8.25,-18.720001220703125,9.169998168945312,16.330001831054688,-7.099998474121094,5.790000915527344,0.0,7.0,5.0,01-30,0.7424996693929037
11-17,1.204998016357422,6.540000915527344,3.5500030517578125,4.165000915527344,-1.9350051879882808,-8.25,-16.910003662109375,10.56000518798828,14.94000244140625,-6.839996337890625,3.8799972534179688,0.0,7.0,5.0,01-31,0.9087502161661783
11-18,1.3850021362304688,5.209999084472656,3.7350006103515625,3.854999542236328,-1.9350051879882808,-9.56999969482422,-16.520004272460938,8.049995422363281,13.729995727539062,-6.260002136230469,3.8799972534179688,0.0,7.0,5.0,02-01,0.4633315404256185
11-19,1.75,6.7150001525878915,5.0649986267089835,3.854999542236328,-1.6200027465820312,-9.419998168945312,-11.6300048828125,5.910003662109375,13.55999755859375,-6.260002136230469,4.739997863769531,0.0,7.0,4.0,02-02,1.0554157892862956
11-20,4.540000915527344,7.4399986267089835,4.944999694824219,4.459999084472656,-0.3949966430664063,-10.410003662109377,-13.540000915527346,5.330001831054688,13.55999755859375,-2.910003662109375,3.7600021362304688,0.0,7.0,4.0,02-03,1.3983329137166338
11-21,4.424999237060547,7.3699989318847665,4.944999694824219,3.420001983642578,-2.034996032714844,-9.220001220703123,-15.409996032714846,5.330001831054688,13.339996337890625,-6.8000030517578125,-0.40999603271484375,0.0,6.0,5.0,02-04,0.4129171371459961
11-22,4.509998321533203,7.3699989318847665,5.459999084472656,4.805004119873047,-4.204994201660156,-3.25,-12.379997253417967,5.730003356933594,14.93000030517578,-1.8499984741210935,-1.6199951171875,0.0,6.0,5.0,02-05,1.6250015894571943
11-23,4.509998321533203,9.270000457763672,7.4350013732910165,4.150001525878906,-0.30500030517578125,-4.3699951171875,-12.379997253417967,2.709999084472656,11.169998168945312,-1.3199996948242188,0.100006103515625,0.0,7.0,4.0,02-06,1.7475010553995771
11-24,4.324996948242188,8.625,9.109996795654297,6.085002899169923,-0.8499984741210938,-4.3699951171875,-14.949996948242188,4.959999084472656,7.899993896484375,-4.19000244140625,3.5300064086914062,0.0,7.0,4.0,02-07,1.6812502543131511
11-25,1.595001220703125,8.930000305175781,9.59499740600586,6.509998321533202,-0.8499984741210938,-1.5499954223632812,-15.089996337890625,3.7199935913085938,8.449996948242188,-6.3600006103515625,3.5300064086914062,0.0,7.0,4.0,02-08,1.5400002797444658
11-26,2.8149986267089844,8.334999084472656,7.770000457763673,6.509998321533202,-0.8549957275390625,2.1200027465820312,-14.959999084472654,3.720001220703125,5.959999084472656,-6.3600006103515625,5.1399993896484375,0.0,8.0,3.0,02-09,1.6829169591267903
11-27,2.174999237060547,7.770000457763673,7.915000915527344,7.294998168945312,3.410003662109375,9.06999969482422,-13.589996337890625,4.6699981689453125,5.959999084472656,-5.769996643066406,3.520004272460937,0.0,9.0,2.0,02-10,2.7020842234293614
11-28,4.025001525878906,7.364997863769531,7.915000915527344,6.710002899169923,5.75,9.229995727539062,-17.840003967285156,4.6699981689453125,5.94000244140625,-10.779998779296877,3.4499969482421875,0.0,9.0,2.0,02-11,2.202916145324707
11-29,0.875,7.364997863769531,6.5949974060058585,7.819999694824219,4.599998474121094,8.020004272460938,-17.639999389648438,5.699996948242188,0.5400009155273438,-12.970001220703125,2.799995422363281,0.0,9.0,2.0,02-12,1.1420825322469077
11-30,0.875,7.5,4.354999542236328,7.859996795654298,4.864997863769531,5.959999084472656,-17.639999389648438,-2.709999084472656,-2.25,-9.099998474121094,4.0,0.0,7.0,4.0,02-13,0.3095830281575521
12-01,-0.02500152587890625,6.305000305175781,4.650001525878906,8.430004119873049,5.055000305175781,5.959999084472656,-18.26000213623047,-3.30999755859375,0.2299957275390625,-12.480003356933596,4.589996337890625,0.0,7.0,4.0,02-14,0.09541606903076172
12-02,0.5750007629394531,4.720001220703125,5.4099998474121085,8.180004119873049,5.055000305175781,2.899993896484375,-15.06999969482422,-3.389999389648437,1.4199981689453125,-11.360000610351562,4.589996337890625,0.0,8.0,3.0,02-15,0.2524995803833008
12-03,2.0999984741210938,5.580001831054688,5.819999694824219,8.180004119873049,4.81500244140625,1.399993896484375,-15.43000030517578,-3.2299957275390625,5.709999084472656,-11.360000610351562,6.599998474121094,0.0,8.0,3.0,02-16,0.848750114440918
12-04,1.9550018310546875,4.585002899169922,6.364997863769531,8.210002899169924,3.9899978637695312,1.8000030517578125,-12.790000915527346,-3.709999084472656,5.709999084472656,-7.319999694824219,3.329994201660156,0.0,8.0,3.0,02-17,1.0104166666666667
12-05,2.7750015258789062,4.305000305175781,6.364997863769531,7.44000244140625,5.0449981689453125,6.1699981689453125,-8.300003051757812,-3.709999084472656,5.8600006103515625,-5.379997253417969,5.090003967285156,0.0,8.0,3.0,02-18,2.1383336385091147
12-06,2.795001983642578,4.305000305175781,4.974998474121094,7.485000610351562,8.460006713867188,8.299995422363281,-5.370002746582031,-3.220001220703125,7.900001525878906,-5.1699981689453125,0.9599990844726562,0.0,8.0,3.0,02-19,2.6183334986368814
12-07,2.795001983642578,5.1399993896484375,5.904998779296875,5.920001983642577,10.889999389648438,7.1199951171875,-5.370002746582031,-2.779998779296875,7.970001220703125,-3.3600006103515625,0.01999664306640625,0.0,8.0,3.0,02-20,2.8541660308837886
12-08,3.805000305175781,5.395000457763672,8.495002746582031,6.8349952697753915,10.360000610351562,7.1199951171875,-6.290000915527344,-4.760002136230469,7.25,-2.0,2.7699966430664062,0.0,8.0,3.0,02-21,3.2483323415120444
12-09,4.324996948242188,5.9949989318847665,5.299999237060547,4.829998016357422,10.360000610351562,6.159996032714844,-8.919998168945312,-7.419998168945312,6.75,-2.930000305175781,2.7699966430664062,0.0,8.0,3.0,02-22,2.2683324813842773
12-10,3.9850006103515625,9.06999969482422,7.299999237060548,4.829998016357422,9.775001525878906,7.010002136230469,-8.470001220703125,-6.3600006103515625,4.599998474121094,-2.930000305175781,2.44000244140625,0.0,8.0,3.0,02-23,2.6041666666666665
12-11,3.029998779296875,8.810001373291016,7.305000305175781,4.329998016357422,11.885002136230467,4.220001220703125,-2.680000305175781,-8.300003051757812,4.599998474121094,-3.290000915527344,1.3199996948242188,0.0,8.0,3.0,02-24,2.6024996439615884
12-12,-0.23999786376953125,11.845001220703125,7.305000305175781,1.6500015258789062,9.81999969482422,5.55999755859375,-8.840003967285156,-8.300003051757812,5.529998779296875,-8.580001831054688,-2.5,0.0,6.0,5.0,02-25,1.104166030883789
12-13,1.145000457763672,11.845001220703125,8.580001831054688,3.414997100830078,10.68999481201172,6.2700042724609375,-7.340003967285156,-10.480003356933594,7.149993896484375,-7.300003051757812,-5.579994201660156,0.0,7.0,4.0,02-26,1.5329157511393232
12-14,1.145000457763672,11.369998931884766,11.665000915527346,1.3899993896484375,12.129997253417967,7.69000244140625,-7.340003967285156,-6.6399993896484375,9.19000244140625,-5.330001831054688,-10.920005798339844,0.0,7.0,4.0,02-27,2.0291659037272134
12-15,0.4399986267089844,10.02499771118164,11.55500030517578,1.2649993896484375,13.349998474121096,7.69000244140625,-7.780006408691406,-7.6199951171875,10.93999481201172,-2.299995422363281,-14.710002899169922,0.0,7.0,4.0,02-28,1.9045826594034831
12-16,-0.0449981689453125,10.619998931884766,8.970001220703125,2.9749984741210938,13.349998474121096,7.55999755859375,-7.300003051757812,-6.089996337890625,7.029998779296875,-1.1699981689453125,-14.710002899169922,0.0,6.0,5.0,03-01,1.7658329010009766
12-17,0.7600021362304688,10.31999969482422,10.520000457763672,2.9749984741210938,13.395004272460938,-1.0100021362304688,-5.8000030517578125,-6.490005493164063,1.5099945068359375,-1.1699981689453125,-15.609996795654295,0.0,6.0,5.0,03-02,0.7833328247070312
12-18,0.8500022888183594,8.235000610351562,9.145000457763672,1.5,12.735000610351562,-2.7299957275390625,-6.69000244140625,-3.430000305175781,1.5099945068359375,1.029998779296875,-20.589996337890625,0.0,7.0,4.0,03-03,0.1304168701171875
12-19,0.06999969482421875,8.615001678466799,9.145000457763672,1.6300010681152344,12.044998168945312,-5.959999084472656,-5.230003356933594,-3.430000305175781,-0.01000213623046875,1.0199966430664062,-17.990001678466797,0.0,6.0,5.0,03-04,-0.007917404174804688
12-20,0.5649986267089844,8.615001678466799,7.944999694824219,-0.6850013732910156,10.384994506835938,-4.689994812011719,-3.25,-3.1100006103515625,-2.3600006103515625,6.680000305175781,-19.80000305175781,0.0,5.0,6.0,03-05,0.024582862854003903
12-21,0.5649986267089844,8.520000457763674,9.365001678466797,-0.8899993896484375,11.970001220703125,-4.569999694824219,-3.25,-4.080001831054688,-4.900001525878906,9.54999542236328,-20.949996948242188,0.0,5.0,6.0,03-06,0.11083316802978516
12-22,-0.9749984741210938,9.44499969482422,7.7849998474121085,0.9650001525878906,11.43500518798828,-4.569999694824219,-2.80999755859375,-4.55999755859375,-5.3000030517578125,12.639999389648438,-19.29999542236328,0.0,5.0,6.0,03-07,0.3962510426839193
12-23,-2.345001220703125,8.96500015258789,7.4650001525878915,1.4150009155273438,11.43500518798828,-5.920005798339844,-4.44000244140625,-1.959999084472656,-8.400001525878906,9.080001831054688,-19.29999542236328,0.0,5.0,6.0,03-08,-0.3337497711181641
12-24,-1.6000022888183594,9.229999542236328,6.854999542236327,1.4150009155273438,11.115005493164062,-4.460006713867188,-2.009994506835937,-3.0100021362304688,-8.540000915527344,9.080001831054688,-19.729995727539066,0.0,5.0,6.0,03-09,-0.13791624704996744
12-26,-0.9399986267089844,7.8400001525878915,7.0649986267089835,3.0049972534179688,10.949996948242188,-6.099998474121094,0.06999969482421875,-7.709999084472656,-8.540000915527344,2.3600006103515625,-28.35000228881836,0.0,6.0,5.0,03-11,-1.6958338419596355
12-27,-0.5450019836425781,7.8400001525878915,7.0649986267089835,3.5249977111816406,9.94499969482422,-8.139999389648438,1.7700042724609375,-7.709999084472656,-7.7700042724609375,-2.3499984741210938,-45.540000915527344,0.0,5.0,6.0,03-12,-3.492500305175781
12-28,-0.5450019836425781,7.9099998474121085,8.985000610351562,5.025001525878906,9.125,-7.779998779296875,1.7700042724609375,-5.950004577636719,-5.649993896484375,-1.2599945068359375,-40.790000915527344,0.0,5.0,6.0,03-13,-2.429999033610026
12-29,-0.21500015258789065,5.819999694824219,8.465000152587889,4.645000457763672,8.889999389648438,-7.779998779296875,1.1700057983398438,-6.489997863769531,-7.260002136230469,-0.2299957275390625,-43.52999877929688,0.0,5.0,6.0,03-14,-3.0429156621297206
12-30,-0.5149993896484375,6.950000762939452,7.610000610351562,4.545001983642578,8.889999389648438,-6.149993896484375,1.6599960327148438,-6.150001525878906,-9.25,1.3600006103515625,-43.52999877929688,0.0,6.0,5.0,03-15,-2.88166618347168
12-31,0.1399993896484375,7.55999755859375,7.700000762939452,4.545001983642578,8.645004272460938,-6.3600006103515625,4.3899993896484375,-8.950004577636719,-9.410003662109377,1.3600006103515625,-44.900001525878906,0.0,7.0,4.0,03-16,-2.9400005340576167
