,2009,2010,2011,2012,2013,2014,2015,2016,2017,2018,2019,2020,ups,downs,end_day_sum,avg
01-02,-3.918781280517578,-1.695556640625,5.593608856201172,6.134479522705077,3.8365440368652335,9.79497528076172,-3.8785400390625,3.8719253540039062,-5.984405517578125,-8.827522277832031,-0.6898727416992188,-47.75990295410156,5.0,7.0,03-17,-3.6269207000732417
01-03,-3.3348522186279297,-1.9986991882324217,5.593608856201172,6.134479522705077,2.9559555053710938,10.591926574707033,0.27165985107421875,5.217132568359375,-5.984405517578125,-11.563804626464846,-0.8834609985351562,-52.18651962280274,6.0,6.0,03-18,-3.7655816078186035
01-04,-3.8242263793945312,-1.9986991882324217,5.6890525817871085,6.5057373046875,1.522674560546875,11.736412048339846,3.87237548828125,5.217132568359375,-7.225860595703125,-9.865318298339844,-1.7207183837890625,-55.73834228515625,6.0,6.0,03-19,-3.8191483815511074
01-05,-3.8242263793945312,-1.4430198669433594,7.510009765625,6.776496887207031,0.6695671081542969,10.980979919433594,3.87237548828125,4.794944763183594,-7.1870880126953125,-12.917030334472654,-1.3638687133789062,-56.83838272094727,6.0,6.0,03-20,-4.080770174662272
01-06,-4.025861740112306,-2.7368316650390625,6.945911407470702,6.927898406982423,0.1945343017578125,10.980979919433594,6.171913146972656,8.804645538330078,-8.36077880859375,-10.702552795410156,1.528961181640625,-56.83838272094727,7.0,5.0,03-21,-3.4257969856262207
01-07,-2.375873565673828,-3.0315513610839844,7.871021270751952,5.818817138671875,0.1945343017578125,9.670814514160156,5.6112060546875,9.731258392333984,-7.890190124511719,-7.4105987548828125,1.528961181640625,-57.6630973815918,7.0,5.0,03-22,-3.162058194478353
01-08,-3.3762226104736333,-3.347930908203125,8.44964599609375,5.406417846679688,1.0465774536132812,11.000930786132812,3.704849243164064,9.985397338867188,-7.776458740234375,-7.4105987548828125,0.560455322265625,-52.40282440185547,7.0,5.0,03-23,-2.846646785736084
01-09,-0.14638710021972656,-1.7423362731933594,8.772838592529299,5.406417846679688,-0.2582817077636719,11.5062255859375,1.597686767578125,11.66458511352539,-7.776458740234375,-6.457794189453125,-2.0169677734375,-51.66003799438477,5.0,7.0,03-24,-2.5925424893697104
01-10,0.2864208221435547,-2.4526824951171875,8.772838592529299,3.8737258911132812,-0.4372138977050781,10.648727416992188,4.194854736328125,11.66458511352539,-8.136070251464844,-7.211189270019531,-5.015663146972656,-50.07965469360352,6.0,6.0,03-25,-2.824276765187581
01-11,-0.0009326934814453123,-2.4526824951171875,7.9638671875,3.363422393798828,-0.7096290588378906,13.112640380859375,5.239631652832031,11.66458511352539,-9.422721862792967,-8.695381164550781,-3.7230453491210938,-44.23141860961914,5.0,7.0,03-26,-2.3243053754170737
01-12,-0.0009326934814453123,-1.223876953125,7.7658538818359375,3.59710693359375,2.033851623535156,13.367546081542967,5.239631652832031,12.36821746826172,-9.961051940917967,-7.597267150878906,-3.3831558227539062,-44.33850479125977,6.0,6.0,03-27,-1.8443818092346191
01-13,-1.5736408233642578,-3.773479461669922,8.958511352539062,4.179069519042969,2.033851623535156,13.367546081542967,4.727607727050781,9.566837310791016,-11.382713317871096,-6.7366180419921875,-3.5561447143554688,-44.33850479125977,6.0,6.0,03-28,-2.3773064613342285
01-14,-0.6285591125488281,-3.8051376342773438,8.130031585693361,3.4642295837402344,2.033851623535156,10.987937927246094,3.3768386840820312,8.503860473632812,-9.65776824951172,-6.7366180419921875,-3.5561447143554688,-45.12441635131836,6.0,6.0,03-29,-2.750991185506185
01-15,-2.1146602630615234,-1.7691116333007812,7.6429595947265625,2.7081527709960938,1.7525367736816406,10.706192016601562,3.7593002319335938,10.87441635131836,-8.037078857421875,-6.7366180419921875,-3.6328353881835938,-45.6779670715332,6.0,6.0,03-30,-2.543726126352946
01-16,-3.17422866821289,-1.8143463134765625,7.424457550048827,2.7081527709960938,1.3051872253417969,12.541511535644533,1.7070846557617188,13.611824035644533,-8.037078857421875,-6.7366180419921875,-3.2964859008789062,-49.66732025146485,6.0,6.0,03-31,-2.7856550216674805
01-17,-2.6803607940673837,-1.8143463134765625,7.424457550048827,2.7081527709960938,0.9408454895019532,12.611038208007812,2.2015151977539062,11.927978515625,-8.037078857421875,-9.265213012695312,-3.7193527221679688,-48.9956169128418,6.0,6.0,04-01,-3.0581650733947754
01-18,-1.6162967681884766,-1.8143463134765625,7.424457550048827,1.6725387573242188,0.7932548522949219,13.315513610839846,2.2015151977539062,11.927978515625,-7.800148010253906,-8.559104919433594,-3.95001220703125,-46.84421157836914,6.0,6.0,04-02,-2.7707384427388515
01-19,-1.6162967681884766,-1.8143463134765625,7.770404815673827,2.7585525512695312,1.1760406494140625,13.436019897460938,2.2015151977539062,11.927978515625,-7.240936279296875,-10.915977478027344,-0.778472900390625,-48.12921524047852,6.0,6.0,04-03,-2.6020611127217608
01-20,-1.6162967681884766,-1.5338134765625,7.752208709716798,4.669380187988281,-0.18447113037109367,13.436019897460938,2.2015151977539062,11.608169555664062,-8.065513610839844,-11.211761474609377,-2.8159408569335938,-48.12921524047852,5.0,7.0,04-04,-2.8241432507832847
01-21,-2.2403717041015625,-0.4569892883300781,7.579216003417969,3.647495269775391,-0.18447113037109367,13.436019897460938,0.6343154907226562,7.798343658447266,-4.9378662109375,-12.070518493652346,-2.8159408569335938,-48.12921524047852,5.0,7.0,04-05,-3.1449985504150386
01-22,-0.2604045867919922,1.6831321716308594,6.9146270751953125,3.647495269775391,-0.18447113037109367,13.709503173828125,2.1921539306640625,4.035572052001953,-5.572868347167969,-12.070518493652346,-2.8159408569335938,-43.60249328613281,6.0,6.0,04-06,-2.693684418996176
01-23,-2.635459899902344,1.0904197692871094,5.954135894775392,3.647495269775391,-0.8716697692871094,14.075599670410154,3.8059310913085938,8.419212341308594,-5.572868347167969,-13.043785095214846,-2.787109375,-40.82806015014648,6.0,6.0,04-07,-2.3955132166544595
01-24,-4.503173828125,3.968032836914064,5.954135894775392,4.1286468505859375,-0.11067581176757812,14.057083129882812,1.8096771240234373,9.058883666992188,-5.7813873291015625,-13.444595336914062,1.3358840942382812,-39.348350524902344,7.0,5.0,04-08,-1.9063199361165364
01-25,-4.503173828125,3.968032836914064,6.800815582275392,1.7000350952148438,0.7471466064453125,16.369773864746097,1.595123291015625,9.058883666992188,-5.544425964355469,-14.809074401855467,0.365203857421875,-34.37384033203125,8.0,4.0,04-09,-1.5521249771118164
01-26,-4.503173828125,4.7960166931152335,5.635486602783202,2.0299644470214844,1.8678398132324217,16.592239379882812,1.595123291015625,4.882213592529297,-6.6627960205078125,-13.721298217773438,0.4516983032226562,-34.37384033203125,8.0,4.0,04-10,-1.7842105229695635
01-27,-3.9015598297119136,6.592262268066406,5.193920135498047,1.5213279724121094,2.038482666015625,16.592239379882812,0.9701385498046876,5.060924530029297,-4.103828430175781,-8.511405944824219,0.60546875,-34.37384033203125,8.0,4.0,04-11,-1.0263225237528484
01-28,-4.898271560668945,5.999549865722656,4.6158180236816415,-0.6002769470214844,2.038482666015625,14.219268798828125,7.098838806152344,4.552940368652344,-2.9882049560546875,-6.851104736328125,0.60546875,-34.772972106933594,7.0,5.0,04-12,-0.9150385856628418
01-29,-3.2415637969970703,7.583148956298827,1.2927932739257812,-1.0814170837402344,0.7747993469238281,14.63177490234375,7.164131164550781,2.8126373291015625,-2.9882049560546875,-6.851104736328125,-0.1345367431640625,-29.05858612060547,6.0,6.0,04-13,-0.7580107053120931
01-30,-2.6040287017822266,5.352531433105469,1.994842529296875,-1.0814170837402344,0.89471435546875,14.427833557128904,5.279815673828125,7.920646667480469,-2.9882049560546875,-5.5056915283203125,-0.6919708251953125,-30.17810821533203,6.0,6.0,04-14,-0.5982530911763511
01-31,-2.7288761138916016,6.288211822509767,1.994842529296875,-1.4617462158203125,-0.3079986572265625,16.190765380859375,3.835281372070313,8.33355712890625,-3.3483657836914062,-4.790046691894531,5.872161865234375,-28.834697723388672,6.0,6.0,04-15,0.08692407608032228
02-01,-3.3049087524414062,6.288211822509767,1.5441932678222656,-0.2318344116210937,-5.644794464111327,18.880210876464844,5.2370147705078125,8.33355712890625,-3.1688919067382812,-5.069572448730469,3.3481674194335938,-28.367420196533203,6.0,6.0,04-16,-0.1796722412109375
02-02,-3.3049087524414062,5.618576049804688,1.6580619812011719,-1.3651084899902344,-3.6734580993652335,18.880210876464844,5.2370147705078125,10.14907455444336,-3.7026596069335938,-1.5485992431640625,3.0603103637695312,-30.297462463378906,6.0,6.0,04-17,0.05925432840983073
02-03,-3.82124137878418,6.089912414550781,1.8904380798339844,-2.818134307861328,-5.673370361328125,18.880210876464844,1.7016143798828125,7.3270721435546875,-4.773475646972656,1.6958770751953125,3.0603103637695312,-30.297462463378906,7.0,5.0,04-18,-0.5615207354227701
02-04,-4.428037643432617,6.662544250488281,1.4799575805664062,-2.330829620361328,-5.673370361328125,15.710075378417967,2.783721923828125,6.9935455322265625,-4.462181091308594,3.3207244873046875,3.0603103637695312,-32.487815856933594,7.0,5.0,04-19,-0.7809462547302246
02-05,-3.981964111328125,6.916267395019531,1.839317321777344,-2.620006561279297,-6.379005432128906,16.1224365234375,1.1313629150390625,9.92263412475586,-5.924232482910156,3.3207244873046875,4.050201416015625,-39.13692092895508,7.0,5.0,04-20,-1.2282654444376628
02-06,-5.526281356811523,9.090339660644533,1.839317321777344,-2.620006561279297,-6.544700622558594,14.78936767578125,1.9810714721679688,10.227081298828123,-5.924232482910156,4.551628112792969,5.6445770263671875,-32.76284408569336,7.0,5.0,04-21,-0.4378902117411296
02-07,-6.149345397949219,9.253475189208984,1.839317321777344,-3.1103172302246094,-7.454517364501952,14.285438537597654,0.7571640014648438,10.453346252441406,-3.5453414916992188,8.064994812011719,10.665451049804688,-31.94122695922852,7.0,5.0,04-22,0.25986989339192706
02-08,-6.39686393737793,9.253475189208984,2.2171401977539062,-3.339618682861328,-7.7061805725097665,14.246963500976562,1.7944488525390625,10.453346252441406,-4.436241149902344,12.52094268798828,14.218231201171875,-31.966541290283203,7.0,5.0,04-23,0.9049251874287924
02-09,-6.39686393737793,7.914192199707031,3.657146453857422,-4.238445281982422,-7.456718444824219,16.790000915527347,1.7944488525390625,13.124927520751953,-5.753173828125,14.278060913085938,12.122161865234375,-29.36368179321289,7.0,5.0,04-24,1.3726712862650554
02-10,-4.4483299255371085,11.281219482421875,3.547954559326172,-3.692703247070313,-6.103435516357423,16.790000915527347,2.438079833984375,12.738800048828125,-7.146141052246094,11.109725952148438,9.56035614013672,-29.36368179321289,7.0,5.0,04-25,1.3926537831624348
02-11,-1.8403434753417969,10.327022552490234,3.278350830078125,-4.012836456298828,-6.103435516357423,16.544357299804688,4.892364501953125,14.614398956298828,-4.660484313964844,11.883926391601562,9.56035614013672,-30.424785614013672,7.0,5.0,04-26,2.0049076080322266
02-12,-0.3510303497314453,9.80133056640625,3.1791229248046875,-3.104034423828125,-6.453941345214844,14.883270263671875,1.9514083862304688,11.507740020751953,-5.5719146728515625,11.883926391601562,8.195632934570312,-29.94817352294922,7.0,5.0,04-27,1.3311114311218262
02-13,-0.5179386138916016,7.2243499755859375,3.1973609924316406,-3.104034423828125,-5.331932067871094,10.595565795898438,0.5718536376953125,14.176055908203125,-5.5719146728515625,12.523231506347654,5.327896118164063,-31.084918975830078,7.0,5.0,04-28,0.6671312650044761
02-14,3.2768917083740234,7.5822906494140625,3.1973609924316406,-3.273578643798828,-6.4729270935058585,8.995414733886719,2.0009078979492188,15.8070068359375,-6.405967712402344,10.551643371582033,1.08111572265625,-29.18606948852539,8.0,4.0,04-29,0.5961740811665853
02-15,4.334455490112306,7.5822906494140625,3.811901092529297,-2.8137664794921875,-3.265731811523437,9.07146453857422,3.1970748901367188,15.8070068359375,-7.194709777832031,8.87091064453125,-2.9283218383789062,-28.374237060546875,7.0,5.0,04-30,0.6748614311218262
02-16,4.334455490112306,7.5822906494140625,4.1671104431152335,-3.8581581115722656,-4.6406288146972665,7.567893981933594,3.1970748901367188,15.8070068359375,-7.119712829589844,10.237648010253906,-3.3242721557617188,-25.682979583740234,7.0,5.0,05-01,0.6889774004618326
02-17,4.334455490112306,8.397926330566406,4.094989776611328,-1.9971466064453125,-5.716777801513673,7.567893981933594,3.1970748901367188,10.580802917480467,-6.485481262207031,9.349266052246094,-7.330696105957031,-25.682979583740234,7.0,5.0,05-02,0.02577733993530273
02-18,3.1467952728271484,8.117969512939451,1.0072784423828125,-1.941070556640625,-5.716777801513673,7.567893981933594,3.559539794921875,12.54833984375,-7.054374694824219,8.4794921875,-7.330696105957031,-25.682979583740234,7.0,5.0,05-03,-0.2748824755350749
02-19,4.676046371459961,8.634727478027344,-0.005176544189453125,-2.8361053466796875,-5.716777801513673,7.242408752441406,4.921401977539063,12.464004516601562,-7.158805847167969,8.4794921875,-7.330696105957031,-28.56632995605469,6.0,6.0,05-04,-0.43298419316609693
02-20,7.676933288574219,8.275093078613281,-0.8576583862304688,-2.8361053466796875,-3.4793853759765625,6.6444549560546875,7.9166107177734375,8.085403442382812,-7.158805847167969,8.4794921875,-9.056503295898438,-30.19823837280273,6.0,6.0,05-05,-0.5423924128214518
02-21,9.067665100097656,5.9778289794921875,-0.8576583862304688,-2.8361053466796875,0.0562744140625,9.617904663085938,2.5914230346679688,6.8692779541015625,-7.158805847167969,9.919273376464844,-4.093879699707031,-26.33403396606445,7.0,5.0,05-06,0.23493035634358725
02-22,12.001834869384766,5.9778289794921875,-0.8576583862304688,-3.5612945556640625,0.4081611633300781,12.570716857910154,3.0960617065429688,6.8692779541015625,-8.3201904296875,7.407600402832031,-3.9394454956054688,-22.825763702392567,7.0,5.0,05-07,0.7355941136678059
02-23,12.001834869384766,6.973228454589844,-4.5006103515625,-5.0569610595703125,6.51171875,13.647323608398438,3.0960617065429688,10.810787200927734,-6.193504333496094,5.011322021484375,-2.6697311401367188,-23.03202819824219,7.0,5.0,05-08,1.3832867940266926
02-24,10.946748733520508,4.45123291015625,-1.170978546142578,-5.776767730712892,7.532444000244141,13.647323608398438,3.3945770263671875,11.209800720214844,-4.2208404541015625,5.719688415527344,-0.5027847290039062,-23.03202819824219,7.0,5.0,05-09,1.8498679796854656
02-25,9.725824356079102,3.5136489868164062,-0.1214141845703125,-5.250408172607422,7.532444000244141,11.97882080078125,0.5934524536132812,9.737037658691406,-5.794227600097656,8.10919189453125,-0.5027847290039062,-20.18944549560547,7.0,5.0,05-10,1.6110116640726726
02-26,11.511760711669922,5.698188781738281,-0.5905914306640625,-4.740913391113281,6.734577178955077,8.007919311523438,3.2986679077148438,10.639991760253906,-3.041015625,8.10919189453125,0.3045196533203125,-14.073863983154295,8.0,4.0,05-11,2.6548693974812827
02-27,10.713788986206056,4.6337738037109375,-2.4870376586914062,-4.740913391113281,4.316688537597656,8.041023254394531,1.9149169921875,14.263904571533205,-3.041015625,10.542381286621094,-0.579254150390625,-7.874568939208983,7.0,5.0,05-12,2.9753073056538906
02-28,12.495681762695312,6.283092498779298,-2.4870376586914062,-5.194557189941406,3.720046997070313,8.399520874023438,4.212684631347656,14.820125579833984,-2.1690750122070312,16.918235778808597,1.1522064208984375,-12.629493713378904,8.0,4.0,05-13,3.793452580769858
02-29,0.0,0.0,0.0,-3.28726577758789,0.0,0.0,0.0,14.820125579833984,0.0,0.0,0.0,-12.357967376708984,1.0,2.0,05-14,-0.06875896453857422
03-01,11.177114486694336,6.283092498779298,-0.49322509765625,-5.731349945068359,5.0068359375,9.879737854003906,2.5212478637695312,14.556720733642578,-5.3160552978515625,15.675323486328125,-2.6182098388671875,-13.85092544555664,7.0,5.0,05-15,3.0908589363098145
03-02,11.177114486694336,6.2016563415527335,-1.3725547790527344,-5.8162574768066415,6.955127716064452,8.701042175292969,2.5212478637695312,12.863819122314453,-3.4198455810546875,16.631553649902347,-2.184043884277344,-13.85092544555664,7.0,5.0,05-16,3.2006611824035645
03-03,10.077136993408203,5.6177825927734375,-2.50152587890625,-6.335426330566406,6.040611267089844,8.701042175292969,1.2992324829101562,9.003211975097656,-3.4861526489257812,17.769546508789062,-2.1647872924804688,-13.432327270507812,7.0,5.0,05-17,2.5490287144978843
03-04,9.171297073364258,4.996623992919922,-2.0604782104492188,-6.45477294921875,6.040611267089844,7.648979187011719,0.37429046630859375,8.894523620605469,-5.7622528076171875,18.983413696289066,-2.1647872924804688,-15.667194366455078,7.0,5.0,05-18,2.00002113978068
03-05,7.439493179321289,2.71438217163086,-1.281452178955078,-6.45477294921875,4.698516845703125,7.068260192871094,0.9708938598632812,5.904899597167969,-6.5977020263671875,18.983413696289066,-0.9057769775390624,-13.397918701171875,7.0,5.0,05-19,1.5951863924662273
03-06,8.596309661865233,2.5421714782714844,-0.8210029602050781,-6.234844207763673,3.6044998168945312,6.5813446044921875,3.1651992797851562,4.811332702636719,-6.5977020263671875,19.74677276611328,3.3053817749023438,-2.326793670654297,8.0,4.0,05-20,3.0310557683308925
03-07,9.773616790771484,2.265777587890625,-0.8210029602050781,-7.166267395019531,3.6381683349609375,6.9240875244140625,2.51904296875,4.811332702636719,-6.0858917236328125,24.32481384277344,1.7921371459960938,13.155597686767578,9.0,3.0,05-21,4.594284375508626
03-08,9.962631225585938,2.265777587890625,0.2623863220214844,-8.220966339111326,3.287891387939453,6.94677734375,2.7059326171875,9.430152893066406,-2.827621459960937,24.2479248046875,7.146629333496094,15.11019515991211,10.0,2.0,05-22,5.8598092397054025
03-09,9.962631225585938,1.9581146240234373,0.1572723388671875,-6.696697235107423,2.682830810546875,9.053604125976562,2.7059326171875,7.519866943359375,-1.63946533203125,23.72576904296875,9.197662353515623,15.11019515991211,10.0,2.0,05-23,6.144809722900392
03-10,8.844697952270508,-1.0907745361328125,1.9012870788574217,-5.605266571044922,1.135540008544922,9.053604125976562,4.1331634521484375,8.3023681640625,-1.4415740966796875,22.250396728515625,6.5780792236328125,11.21624755859375,9.0,3.0,05-24,5.43981409072876
03-11,8.355314254760742,1.3372039794921875,-0.5676727294921875,-5.435428619384767,1.135540008544922,10.652572631835938,3.7973403930664062,5.8948822021484375,-2.1438751220703125,21.504859924316406,6.5780792236328125,13.883602142333984,9.0,3.0,05-25,5.416034857432049
03-12,4.985191345214844,-0.035861968994140625,-0.1431427001953125,-5.435428619384767,0.4806442260742188,10.87042236328125,5.543449401855469,7.421302795410156,-2.0109634399414062,21.504859924316406,5.886100769042969,19.750852584838867,8.0,4.0,05-26,5.734785556793213
03-13,4.652376174926758,0.8880119323730469,0.3765754699707031,-6.865116119384767,0.5728759765625,11.453811645507812,4.692527770996094,7.9775390625,-2.0109634399414062,22.077369689941406,4.357994079589844,17.472545623779293,10.0,2.0,05-27,5.4704623222351065
03-14,3.5524883270263667,1.3546981811523438,0.3765754699707031,-5.870746612548827,-0.1093597412109375,10.304771423339844,1.3138427734375,7.9775390625,-1.669769287109375,22.23004150390625,-0.6285400390625,20.249385833740234,8.0,4.0,05-28,4.923410574595134
03-15,3.10245132446289,1.3546981811523438,0.8727455139160156,-6.723735809326173,0.2776718139648437,10.426139831542967,1.1736526489257812,9.078155517578123,-4.010749816894531,20.54583740234375,-1.4488372802734375,21.516441345214844,9.0,3.0,05-29,4.680372556050618
03-16,3.10245132446289,1.5402145385742188,1.3051986694335938,-6.8100738525390625,1.0987777709960938,10.85308074951172,1.1736526489257812,7.732948303222656,-4.4114837646484375,16.706428527832028,-4.4474945068359375,21.516441345214844,9.0,3.0,05-30,4.113345146179198
03-17,2.3930702209472656,1.8433570861816408,-0.5884552001953125,-5.662128448486327,1.888587951660156,10.85308074951172,2.1997528076171875,5.624191284179688,-4.7902679443359375,17.114212036132812,-5.102394104003906,21.720874786376953,8.0,4.0,05-31,3.957823435465495
03-18,4.835561752319336,6.055641174316406,0.17235946655273438,-7.438426971435548,1.888587951660156,9.958602905273438,-1.260772705078125,5.75439453125,-6.110260009765625,20.507301330566406,-5.102394104003906,21.75030517578125,8.0,4.0,06-01,4.250908374786377
03-19,4.544349670410156,6.013832092285156,-0.9558753967285156,-7.438426971435548,2.6541824340820312,12.087638854980467,-0.6365203857421875,5.246002197265625,-5.455177307128906,20.507301330566406,-6.0250244140625,17.723960876464844,7.0,5.0,06-02,4.022186915079753
03-20,6.71208381652832,4.287361145019531,-1.388957977294922,-6.210384368896484,3.0645523071289062,9.98247528076172,-1.6438674926757812,4.670936584472656,-5.455177307128906,17.77831268310547,-11.296661376953125,16.923294067382812,7.0,5.0,06-03,3.118663946787516
03-21,4.628324508666992,7.422863006591798,-1.388957977294922,-6.573665618896484,2.48563003540039,8.985496520996094,0.8671188354492188,4.670936584472656,-3.853439331054688,12.622550964355467,-14.241744995117188,20.210643768310547,8.0,4.0,06-04,2.9863130251566568
03-22,2.9902324676513667,7.422863006591798,-2.2811813354492188,-8.490268707275389,3.211475372314453,11.118972778320312,0.15692138671875,4.727386474609375,-3.8817291259765625,13.606231689453125,-10.145416259765623,20.760677337646484,8.0,4.0,06-05,3.2663470904032383
03-23,2.9902324676513667,6.2283782958984375,-1.364398956298828,-9.705535888671877,3.889739990234375,10.849838256835938,0.15692138671875,5.949737548828125,-4.7169342041015625,12.414016723632812,-7.999549865722656,20.760677337646484,8.0,4.0,06-06,3.287760257720948
03-24,3.8881778717041016,7.835880279541016,-2.19766616821289,-9.227874755859377,2.2085113525390625,10.849838256835938,0.30615997314453125,5.252006530761719,-5.220024108886719,8.784706115722656,-10.166496276855467,15.640132904052734,8.0,4.0,06-07,2.329445997873942
03-25,4.463563919067383,6.207157135009767,-3.7873573303222656,-7.8279571533203125,2.2085113525390625,9.936813354492188,-2.2618331909179688,6.506324768066406,-2.2698211669921875,8.364166259765625,-10.166496276855467,15.531135559082033,7.0,5.0,06-08,2.242017269134521
03-26,5.24955940246582,5.2919921875,-4.657470703125,-7.8279571533203125,-0.0882415771484375,11.101921081542967,-1.4184646606445312,10.418678283691406,-4.814170837402344,8.364166259765625,-12.07903289794922,19.77288055419922,6.0,6.0,06-09,2.442821661631266
03-27,6.538309097290039,5.679355621337892,-4.251739501953125,-7.4247169494628915,1.213775634765625,11.79877471923828,-1.2048721313476562,10.36211395263672,-4.814170837402344,9.547370910644533,-9.74871826171875,25.95948028564453,7.0,5.0,06-10,3.637913544972738
03-28,8.155605316162111,4.977031707763672,-4.251739501953125,-6.4253578186035165,2.215930938720703,10.260276794433594,-2.697425842285156,10.36211395263672,-6.624412536621094,13.653274536132812,-10.05559539794922,24.35940170288086,7.0,5.0,06-11,3.66075865427653
03-29,8.425605773925781,4.977031707763672,-4.8116455078125,-6.866447448730469,1.5234413146972656,9.958053588867188,-1.4638824462890625,9.496681213378906,-8.2830810546875,12.02117156982422,-9.420089721679688,20.587718963623047,7.0,5.0,06-12,3.0120464960734044
03-30,8.425605773925781,4.805099487304688,-3.75433349609375,-8.714599609375,0.3641319274902344,11.823570251464846,-1.4638824462890625,10.445198059082033,-6.57391357421875,14.578964233398438,-9.859573364257812,20.587718963623047,7.0,5.0,06-13,3.388665517171224
03-31,9.278661727905273,7.233497619628906,-4.862567901611328,-8.717491149902344,0.6042976379394531,11.823570251464846,-1.0441436767578125,8.614067077636719,-7.123954772949219,15.018646240234375,-11.275283813476562,19.67264175415039,7.0,5.0,06-14,3.2684950828552246
04-01,9.042657852172852,6.532909393310548,-6.157341003417969,-9.392192840576172,0.6042976379394531,10.99396514892578,-0.3814163208007813,8.9617919921875,-5.9191741943359375,14.808357238769533,-11.275283813476562,16.55734634399414,7.0,5.0,06-15,2.8646597862243652
04-02,7.84446907043457,5.129692077636719,-6.002342224121094,-9.392192840576172,0.3552589416503906,11.736610412597654,-2.8179702758789062,12.088127136230467,-7.4666748046875,14.808357238769533,-10.419929504394533,14.350181579589846,7.0,5.0,06-16,2.517798900604248
04-03,5.966318130493164,5.7685813903808585,-6.987030029296875,-9.4884033203125,3.4246864318847656,12.52728271484375,-5.122550964355469,11.579063415527346,-7.4666748046875,12.766380310058596,-6.976371765136719,12.448738098144533,7.0,5.0,06-17,2.370001633961996
04-04,5.986238479614258,5.7821693420410165,-6.987030029296875,-7.287590026855469,4.184623718261719,13.352333068847654,-4.318893432617188,11.579063415527346,-8.689300537109375,12.93695068359375,-7.997749328613281,15.2440185546875,7.0,5.0,06-18,2.8154028256734214
04-05,5.711721420288086,5.7821693420410165,-6.326988220214844,-5.672962188720702,4.04730224609375,13.535758972167967,-5.309455871582031,11.362693786621096,-9.848640441894533,9.534660339355467,-12.475746154785154,13.161735534667967,7.0,5.0,06-19,1.9585207303365069
04-06,5.711721420288086,5.958637237548827,-5.9409027099609375,-5.7522926330566415,3.8409271240234375,14.60308837890625,-5.309455871582031,8.592422485351562,-8.889022827148438,14.204582214355467,-10.567131042480467,13.161735534667967,7.0,5.0,06-20,2.4678591092427573
04-07,6.937406539916992,2.9314956665039062,-5.580844879150392,-5.192340850830078,4.104179382324219,14.60308837890625,-4.749755859375,9.045433044433594,-8.662277221679688,13.26067352294922,-10.23004913330078,11.312110900878904,7.0,5.0,06-21,2.3149266242980957
04-08,5.934995651245117,1.5470733642578125,-6.1962852478027335,-6.573894500732423,4.104179382324219,13.880088806152346,-4.731452941894531,9.31352996826172,-10.0179443359375,15.506813049316404,-10.23004913330078,7.899097442626952,7.0,5.0,06-22,1.7030126253763835
04-09,3.921314239501953,2.714679718017578,-4.702342987060547,-6.573894500732423,3.476959228515625,15.755172729492188,-6.793907165527344,10.427047729492188,-10.710983276367188,15.506813049316404,-9.355476379394533,7.737846374511719,7.0,5.0,06-23,1.7836023966471355
04-10,2.5448875427246094,-0.2606773376464844,-5.08984375,-4.997589111328125,1.181732177734375,18.557113647460934,-7.792350769042969,9.19207000732422,-10.710983276367188,11.422874450683596,-6.812614440917969,9.345142364501953,6.0,6.0,06-24,1.3816467920939128
04-11,2.459381103515625,-0.08397293090820312,-5.08984375,-7.481494903564452,1.0752410888671875,17.546089172363278,-5.356491088867188,9.19207000732422,-10.21539306640625,7.0576629638671875,-5.926567077636719,9.384429931640623,6.0,6.0,06-25,1.046759287516276
04-12,2.472890853881836,-0.08397293090820312,-3.5239295959472656,-8.078205108642576,1.5149421691894531,12.1212158203125,-5.777008056640625,5.8996429443359375,-9.304000854492188,8.329811096191406,-13.993614196777346,5.9368743896484375,6.0,6.0,06-26,-0.3737794558207194
04-13,2.472890853881836,-0.17446136474609375,-4.7639198303222665,-8.459159851074219,6.4477272033691415,14.905563354492188,-5.777008056640625,6.335212707519531,-7.452690124511719,5.553215026855469,-11.634056091308596,5.9368743896484375,6.0,6.0,06-27,0.2825156847635905
04-14,3.0601787567138667,-2.129619598388672,-5.675666809082031,-8.633567810058594,7.232913970947266,14.905563354492188,-7.588035583496094,3.0638809204101562,-7.927375793457031,8.277252197265625,-8.696670532226562,6.968772888183594,6.0,6.0,06-28,0.2381354967753093
04-15,4.225732803344728,-0.3262367248535156,-4.8824310302734375,-7.8211402893066415,7.232913970947266,13.838241577148438,-9.63457489013672,2.715057373046875,-7.348243713378906,12.339401245117188,-8.696670532226562,10.64714813232422,6.0,6.0,06-29,1.024099826812744
04-16,4.0412139892578125,-0.9288902282714844,-3.4008407592773438,-7.8211402893066415,5.865764617919923,13.374176025390625,-9.288787841796877,4.063179016113281,-6.3798828125,12.339401245117188,-8.918167114257812,12.02224349975586,6.0,6.0,06-30,1.2473557790120442
04-17,3.0961685180664062,-3.5115928649902344,-3.086284637451172,-8.752910614013674,7.477699279785156,12.427474975585938,-10.26068878173828,5.656425476074219,-6.3798828125,12.215133666992188,-9.370811462402344,7.6710548400878915,6.0,6.0,07-01,0.5984821319580078
04-18,5.377798080444336,-4.358898162841797,-3.086284637451172,-8.725376129150389,7.560855865478516,12.371803283691404,-9.52240753173828,5.656425476074219,-5.5159454345703125,10.179283142089844,-10.31462860107422,9.321163177490234,6.0,6.0,07-02,0.7453157107035319
04-19,5.377798080444336,-4.358898162841797,-2.9039382934570312,-6.356967926025392,10.10114288330078,12.084091186523438,-9.52240753173828,4.063209533691406,-3.1234893798828125,9.930770874023438,-13.46392822265625,9.321163177490234,6.0,6.0,07-03,0.9290455182393392
04-20,5.377798080444336,-5.9538307189941415,-3.975238800048828,-5.930103302001952,8.734012603759767,12.084091186523438,-9.52240753173828,3.836944580078125,-3.1329727172851562,9.997688293457033,-13.46392822265625,9.321163177490234,6.0,6.0,07-04,0.6144347190856934
04-21,4.954765319824219,-6.116966247558594,-3.3370323181152344,-6.728771209716798,9.921024322509766,12.084091186523438,-8.44775390625,4.0160675048828125,-2.905136108398437,7.225868225097656,-18.789772033691406,9.979244232177734,6.0,6.0,07-05,0.15463574727376306
04-22,4.806249618530273,-6.3117942810058585,-3.3096466064453125,-3.9977951049804688,9.921024322509766,13.188568115234375,-11.1484375,3.6389389038085938,-1.3006668090820312,7.2545318603515625,-18.789772033691406,6.590618133544923,6.0,6.0,07-06,0.045151551564534514
04-23,1.8495979309082031,-6.9688262939453125,-3.2367172241210938,-3.9977951049804688,9.643890380859377,10.348518371582033,-11.774543762207033,2.8282012939453125,-3.2658843994140625,7.2545318603515625,-18.337135314941406,6.187915802001952,6.0,6.0,07-07,-0.7890205383300781
04-24,-0.243011474609375,-5.722766876220702,-3.6789283752441406,-4.387920379638672,8.429149627685549,12.31610107421875,-10.86809539794922,2.8282012939453125,-3.2658843994140625,7.4934844970703125,-16.122039794921875,6.9245758056640625,5.0,7.0,07-08,-0.5247611999511719
04-25,-0.8280448913574219,-3.9329795837402335,-3.6789283752441406,-6.623199462890625,8.563106536865233,15.49028778076172,-9.94292449951172,2.8282012939453125,-4.7184600830078125,7.474372863769531,-13.011268615722654,3.506488800048828,5.0,7.0,07-09,-0.4061123530069987
04-26,-0.29252052307128906,-3.9329795837402335,-4.308036804199219,-8.206703186035156,9.53305435180664,16.631904602050778,-12.026870727539062,-0.01885986328125,-5.39251708984375,6.4325408935546875,-7.44464111328125,2.848407745361328,4.0,8.0,07-10,-0.5147684415181478
04-27,-0.29252052307128906,-2.188514709472656,-3.742752075195313,-8.046054840087889,9.37137222290039,17.170196533203125,-12.026870727539062,-2.73394775390625,-4.329216003417969,8.927177429199219,-7.560211181640625,2.848407745361328,4.0,8.0,07-11,-0.21691115697224936
04-28,-0.7290439605712891,-1.4499397277832031,-4.58612060546875,-9.390888214111328,9.394466400146484,17.170196533203125,-13.054786682128904,0.6128005981445312,-2.734222412109375,8.411041259765625,-6.105949401855469,2.4162368774414062,5.0,7.0,07-12,-0.0038507779439290366
04-29,-1.4040813446044922,-2.578174591064453,-6.4004974365234375,-8.229648590087889,9.394466400146484,15.722305297851562,-13.494003295898438,0.26395416259765625,-1.329132080078125,6.203147888183594,-6.105949401855469,-3.319866180419922,4.0,8.0,07-13,-0.9397899309794108
04-30,-0.4410247802734375,-2.9814491271972656,-5.4933013916015625,-8.229648590087889,9.750125885009766,15.740882873535154,-13.4659423828125,2.2248611450195312,-1.3861083984375,6.203147888183594,-5.191017150878906,-2.072460174560547,4.0,8.0,07-14,-0.4451611836751302
05-01,-1.0125617980957031,-3.058490753173828,-5.397430419921875,-8.881423950195312,11.41745376586914,15.341804504394533,-13.727622985839846,1.1555709838867188,-1.3861083984375,6.786186218261719,-1.0112380981445312,0.3732414245605469,5.0,7.0,07-15,0.04994837443033854
05-02,-3.3166732788085938,-3.0652809143066406,-5.397430419921875,-8.367340087890625,11.565277099609375,17.290847778320312,-13.232345581054688,1.1555709838867188,-1.2342300415039062,7.158943176269531,1.6661453247070312,0.5303878784179688,6.0,6.0,07-16,0.3961559931437175
05-03,-2.434898376464844,-3.0652809143066406,-4.125526428222656,-6.704051971435548,9.120479583740234,13.28386688232422,-14.92900848388672,3.1824569702148438,0.20943450927734367,9.510223388671877,-2.070640563964844,0.707183837890625,6.0,6.0,07-17,0.2236865361531576
05-04,-2.434898376464844,-1.5609550476074219,-4.291290283203125,-5.4507484436035165,8.640735626220701,16.684432983398438,-14.92900848388672,5.144813537597656,3.2665786743164062,9.685409545898438,-3.8106842041015625,0.707183837890625,6.0,6.0,07-18,0.9709641138712564
05-05,-1.9713706970214844,0.5321006774902344,-1.3657989501953125,-4.292377471923828,9.228069305419922,16.684432983398438,-10.396720886230467,2.8340835571289062,1.1305084228515625,10.143775939941406,-5.559547424316406,1.3849105834960938,7.0,5.0,07-19,1.5293388366699219
05-06,-3.65615463256836,0.026554107666015625,-2.6237945556640625,-3.621021270751953,9.228069305419922,12.619285583496096,-11.697219848632812,4.463462829589844,0.17127227783203125,9.435447692871094,-5.559547424316406,2.3188514709472656,7.0,5.0,07-20,0.9254337946573892
05-07,-1.6982383728027344,0.5973052978515625,-3.2464752197265625,-3.621021270751953,4.7709808349609375,10.102561950683594,-11.999771118164062,3.3582229614257812,2.653770446777344,9.435447692871094,-6.079612731933594,-0.7606315612792969,6.0,6.0,07-21,0.2927115758260091
05-08,-1.983489990234375,-0.9917030334472656,-3.346935272216797,-3.26300048828125,4.291362762451172,13.397842407226562,-14.406143188476562,3.4243316650390625,2.653770446777344,8.097320556640625,-8.014663696289062,-3.3101463317871094,5.0,7.0,07-22,-0.2876211802164714
05-09,-0.4396209716796875,-1.7767105102539062,-3.346935272216797,-3.0597152709960938,5.904277801513673,12.989608764648438,-13.201751708984375,3.4243316650390625,2.7012481689453125,4.5687408447265625,-6.6613006591796875,0.9640960693359376,6.0,6.0,07-23,0.17218907674153647
05-10,-0.9763526916503906,-1.7767105102539062,-3.1326675415039062,-3.2562408447265625,7.438190460205077,12.098968505859375,-14.36279296875,2.3967514038085938,-0.670196533203125,3.421722412109375,-7.2289886474609375,0.73638916015625,5.0,7.0,07-24,-0.44266064961751295
05-11,-0.9763526916503906,-0.9837608337402344,-0.4371414184570313,-3.143238067626953,7.0081520080566415,11.541496276855467,-14.36279296875,1.2548828125,-1.1367416381835938,5.3818359375,-5.417213439941406,0.73638916015625,5.0,7.0,07-25,-0.0445404052734375
05-12,-0.7603263854980469,-2.2791481018066406,0.5573921203613281,-2.460803985595703,4.894664764404297,11.541496276855467,-16.044883728027347,0.6034622192382812,-1.155029296875,6.809867858886719,-5.330245971679688,0.8542556762695312,6.0,6.0,07-26,-0.2307748794555664
05-13,1.645223617553711,-2.5379791259765625,0.42948150634765625,-2.373432159423828,4.894664764404297,10.121505737304688,-14.138099670410154,0.2410507202148437,0.30028533935546875,9.451759338378906,-5.330245971679688,1.02056884765625,8.0,4.0,07-27,0.31039857864379883
05-14,1.5741310119628906,-1.0055656433105469,0.9312248229980468,-2.373432159423828,3.5044326782226562,11.532508850097654,-14.411270141601562,-0.07631683349609375,0.1861572265625,9.451759338378906,-6.139228820800781,1.8372917175292969,7.0,5.0,07-28,0.41764100392659503
05-15,2.797779083251953,-1.143585205078125,-0.21030807495117188,-1.5334892272949219,5.9450721740722665,11.326934814453125,-16.012855529785153,-0.709197998046875,0.1861572265625,7.970252990722656,-8.293830871582031,1.2442092895507812,6.0,6.0,07-29,0.13059488932291666
05-16,1.1498184204101562,-1.143585205078125,-0.21030807495117188,-0.6186027526855469,5.8702125549316415,10.221054077148438,-13.8287353515625,-0.709197998046875,1.0406036376953125,7.215850830078125,-10.223709106445312,-4.708244323730469,5.0,7.0,07-30,-0.4954036076863607
05-17,0.0041961669921875,-1.143585205078125,-0.6251564025878906,1.7712020874023438,4.4562530517578125,11.196395874023438,-12.99541473388672,-1.5387954711914062,3.04595947265625,3.0489654541015625,-8.500938415527344,-3.49050521850586,6.0,6.0,07-31,-0.3976186116536458
05-18,0.0041961669921875,-0.9668693542480468,-1.3778419494628906,1.5771942138671875,4.0079002380371085,10.629638671875,-12.99541473388672,-0.331878662109375,3.709548950195313,4.110969543457031,-7.068855285644531,-3.49050521850586,6.0,6.0,08-01,-0.18265978495279947
05-19,-0.43231201171875,-0.681396484375,-1.7436065673828125,-0.921039581298828,4.6507225036621085,10.629638671875,-11.556320190429688,1.67950439453125,1.4305267333984375,1.60540771484375,-7.271766662597656,-1.7421722412109375,5.0,7.0,08-02,-0.3627344767252605
05-20,0.2807350158691406,0.6124649047851562,-2.3091583251953125,0.2009849548339844,4.6507225036621085,11.010162353515623,-10.994132995605467,-1.9462203979492188,1.4483108520507812,-1.6203689575195312,-7.271766662597656,-5.5976295471191415,6.0,6.0,08-03,-0.9613246917724608
05-21,2.0009765625,0.937458038330078,-2.224323272705078,0.2009849548339844,5.2649993896484375,5.010322570800781,-13.220710754394533,-1.1520538330078125,-0.5871429443359375,-1.6203689575195312,-9.149787902832033,-5.0061988830566415,5.0,7.0,08-04,-1.6288204193115234
05-22,3.4346847534179688,2.033458709716797,-2.785953521728516,-0.3176498413085937,9.855350494384766,4.155036926269531,-12.773536682128904,1.1905441284179688,-0.5871429443359375,1.906532287597656,-11.14873504638672,-5.4421234130859375,6.0,6.0,08-05,-0.8732945124308268
05-23,3.7595157623291016,2.623359680175781,-2.785953521728516,-2.4786300659179688,10.082225799560547,7.388710021972656,-11.455360412597654,1.1905441284179688,-0.03649139404296875,2.9966659545898438,-5.895561218261719,-2.5478973388671875,6.0,6.0,08-06,0.23676061630249026
05-24,4.016614913940431,2.623359680175781,-3.6110763549804688,2.8272171020507812,10.877323150634766,3.72869873046875,-12.063972473144533,0.0404052734375,-3.4223403930664062,2.4946823120117188,-7.6110687255859375,-0.2807235717773437,7.0,5.0,08-07,-0.031740029652913414
05-25,4.016614913940431,2.011676788330078,-6.802001953125,1.9221343994140625,10.299449920654297,1.8797607421875,-12.063972473144533,1.2505645751953125,-0.3815994262695313,6.042793273925781,-8.258598327636719,-0.2807235717773437,7.0,5.0,08-08,-0.030325094858805336
05-26,4.016614913940431,1.2908821105957031,-5.0850982666015625,1.874229431152344,11.686840057373047,1.8797607421875,-12.063972473144533,7.5779571533203125,-1.3133621215820312,8.031623840332031,-8.963935852050781,-0.2807235717773437,7.0,5.0,08-09,0.7209013303120931
05-27,4.556854248046875,-3.219669342041016,-8.846920013427734,1.4879531860351562,11.686840057373047,1.8797607421875,-10.435012817382812,8.738456726074219,1.6133804321289062,6.442649841308594,-8.963935852050781,-1.4091758728027344,7.0,5.0,08-10,0.2942651112874349
05-28,1.0296134948730469,-2.1544342041015625,-8.26629638671875,1.4879531860351562,11.686840057373047,0.9139175415039062,-14.245635986328125,8.671920776367188,0.852447509765625,6.442649841308594,-8.963935852050781,-2.3978271484375,7.0,5.0,08-11,-0.41189893086751295
05-29,1.4316253662109375,0.00738525390625,-10.033397674560547,1.4879531860351562,11.98849105834961,1.1384201049804688,-11.465568542480467,7.7651214599609375,0.852447509765625,6.442649841308594,-5.593955993652344,-0.106201171875,8.0,4.0,08-12,0.3262475331624349
05-30,-1.2574729919433594,-1.6034774780273438,-10.033397674560547,3.958629608154297,12.173377990722654,2.4290084838867188,-10.566566467285156,7.7651214599609375,0.852447509765625,2.6092605590820312,-4.171699523925781,-1.9608879089355469,6.0,6.0,08-13,0.016195297241210938
05-31,-1.0635147094726562,-1.6034774780273438,-10.033397674560547,5.0010032653808585,13.794513702392578,1.3229522705078125,-8.10400390625,7.7651214599609375,-0.9725418090820312,4.913368225097656,-3.5695037841796875,-2.28759765625,5.0,7.0,08-14,0.4302434921264648
06-01,-1.0635147094726562,-1.6034774780273438,-6.792140960693359,8.185817718505861,12.330085754394533,1.007049560546875,-8.10400390625,9.152549743652344,-1.6191635131835938,3.1815872192382812,-4.020271301269531,-2.28759765625,5.0,7.0,08-15,0.6972433725992838
06-02,-0.834014892578125,-5.551227569580078,-7.570930480957031,9.251564025878906,11.479095458984375,1.007049560546875,-9.047813415527344,10.266700744628906,-1.44921875,4.3785400390625,-7.40203857421875,-5.2342262268066415,5.0,7.0,08-16,-0.05887667338053385
06-03,1.4264945983886719,-6.988353729248048,-6.434215545654298,9.007835388183594,11.479095458984375,-0.180938720703125,-8.571708679199219,10.3880615234375,-1.9161300659179688,-2.9249420166015625,-7.40203857421875,-7.437614440917969,4.0,8.0,08-17,-0.7962045669555664
06-04,0.7415618896484375,-3.9706954956054688,-6.5312156677246085,9.007835388183594,11.28972625732422,-2.1602783203125,-6.814399719238281,8.643424987792969,-3.8564834594726562,-2.9249420166015625,-8.682937622070312,-6.677009582519531,4.0,8.0,08-18,-0.994617780049642
06-05,-0.6788864135742188,-2.6469078063964844,-6.796043395996094,8.333133697509767,13.058830261230467,-1.5734100341796875,-8.888824462890625,8.605659484863281,-3.8564834594726562,-0.92730712890625,-6.5932769775390625,-12.178749084472654,3.0,9.0,08-19,-1.1785221099853516
06-06,-0.5433921813964844,-3.4682350158691406,-6.796043395996094,7.471233367919923,11.570926666259766,-3.5045623779296875,-7.981620788574219,8.605659484863281,-5.40399169921875,-0.05689239501953125,-7.8037109375,-15.117042541503904,3.0,9.0,08-20,-1.9189726511637368
06-07,0.12866592407226562,-3.4682350158691406,-6.3356170654296875,7.319915771484375,9.33382797241211,-2.1942901611328125,-11.108985900878906,4.693305969238281,-4.3814697265625,-2.8589859008789062,-6.295379638671875,-15.84966278076172,4.0,8.0,08-21,-2.584742546081543
06-08,0.12866592407226562,-5.38037109375,-9.649982452392578,7.295597076416016,10.715934753417967,-1.961997985839844,-11.108985900878906,6.176216125488281,-3.6681900024414062,-2.6104736328125,-7.955390930175781,-15.84966278076172,4.0,8.0,08-22,-2.8223867416381836
06-09,-0.298858642578125,-5.508441925048828,-10.516193389892578,7.822746276855469,9.430267333984377,-1.961997985839844,-11.090286254882812,6.93988037109375,-5.918914794921875,-2.246253967285156,-7.443290710449219,-13.256629943847654,3.0,9.0,08-23,-2.8373311360677085
06-10,-0.6861343383789062,-7.801246643066406,-9.655487060546877,7.8871307373046875,9.430267333984377,-1.2009353637695312,-12.64215850830078,9.229621887207033,-5.205924987792969,-0.49456787109375,-7.443290710449219,-10.979900360107422,3.0,9.0,08-24,-2.463552157084147
06-11,-0.5083770751953125,-8.154457092285156,-7.109767913818359,7.8871307373046875,10.589576721191406,-3.15008544921875,-14.617401123046875,9.42767333984375,-4.378410339355469,-0.49456787109375,-8.695289611816406,-7.282520294189452,3.0,9.0,08-25,-2.207207997639974
06-12,-0.7288627624511719,-9.15786361694336,-6.675975799560548,6.858997344970702,11.533332824707033,-4.868034362792969,-18.814231872558594,8.974266052246094,-4.378410339355469,-0.9342498779296876,-8.931816101074219,-7.7466278076171875,3.0,9.0,08-26,-2.9057896931966147
06-13,-0.7527961730957031,-9.67971420288086,-6.675975799560548,6.6599884033203125,10.85112762451172,-5.534599304199219,-19.36725616455078,8.974266052246094,-5.0240020751953125,-1.604583740234375,-13.97089385986328,-7.343528747558594,3.0,9.0,08-27,-3.622330665588379
06-14,-0.946746826171875,-9.67971420288086,-6.821861267089844,6.725902557373048,11.812076568603516,-4.1873779296875,-16.904716491699222,7.4753265380859375,-3.9425735473632812,0.09824371337890624,-12.216529846191404,-8.452369689941406,4.0,8.0,08-28,-3.086695035298665
06-15,-0.946746826171875,-10.318603515625,-6.595146179199219,5.844867706298827,10.698516845703123,-4.921379089355469,-16.904716491699222,7.530975341796875,-2.2528533935546875,4.439239501953125,-13.07550811767578,-8.452369689941406,4.0,8.0,08-29,-2.9128103256225586
06-16,0.12882232666015625,-10.713348388671877,-5.294731140136719,6.5605621337890625,12.164558410644533,-4.921379089355469,-17.7083740234375,9.595458984375,-4.713714599609375,1.4561920166015625,-12.234909057617188,-10.799846649169922,5.0,7.0,08-30,-3.0400590896606445
06-17,-0.056713104248046875,-9.302337646484377,-4.810237884521484,6.2064857482910165,12.164558410644533,-3.3992538452148438,-12.223373413085938,9.832893371582033,-4.5242767333984375,2.231529235839844,-12.234909057617188,-7.0444068908691415,4.0,8.0,08-31,-1.9300034840901688
06-18,0.5915985107421875,-10.209766387939453,-3.897998809814453,6.2064857482910165,11.383975982666016,-4.466583251953125,-10.603904724121094,6.653900146484375,-4.029685974121094,2.231529235839844,-14.960441589355467,-6.238964080810548,5.0,7.0,09-01,-2.2783212661743164
06-19,1.0088520050048828,-10.699588775634766,-3.7199172973632812,5.646533966064452,11.120723724365234,-6.768547058105469,-9.1629638671875,5.16143798828125,-4.029685974121094,1.7918624877929688,-15.297523498535154,-6.481498718261719,5.0,7.0,09-02,-2.619192918141683
06-20,1.4844932556152344,-9.306522369384766,-3.7199172973632812,7.028087615966798,12.149253845214846,-7.407463073730469,-11.129623413085938,5.16143798828125,-3.820816040039064,-0.4542770385742188,-16.110008239746097,-6.728069305419923,4.0,8.0,09-03,-2.7377853393554688
06-21,1.1687755584716797,-9.306522369384766,-4.308002471923828,8.999866485595703,12.403244018554688,-8.894630432128906,-9.547203063964844,3.539947509765625,-3.127777099609375,2.375068664550781,-17.276260375976562,-8.223018646240233,5.0,7.0,09-04,-2.6830426851908364
06-22,1.1687755584716797,-7.421581268310548,-3.920501708984375,9.584854125976562,14.422477722167967,-8.866752624511719,-9.547203063964844,4.774925231933594,-2.413414001464844,-0.1014251708984375,-15.591056823730467,-8.223018646240233,4.0,8.0,09-05,-2.177826722462972
06-23,1.254281997680664,-7.598285675048827,-3.91680908203125,11.302360534667967,15.393661499023438,-8.866752624511719,-10.210685729980467,3.9831161499023438,-1.8805694580078125,0.9778671264648438,-14.199699401855467,-8.262306213378906,5.0,7.0,09-06,-1.8353184064229329
06-24,1.2407722473144531,-6.783000946044923,-4.457019805908203,10.943679809570312,15.393661499023438,-4.7923126220703125,-9.790168762207033,7.566215515136719,-1.2915573120117188,1.1788864135742188,-14.199699401855467,-4.814750671386719,5.0,7.0,09-07,-0.8171078364054362
06-25,0.5790882110595703,-8.753475189208983,-6.030834197998048,10.943679809570312,14.128143310546875,-10.48480987548828,-9.388809204101562,15.486808776855467,0.591705322265625,1.1788864135742188,-13.698898315429688,-7.127399444580077,6.0,6.0,09-08,-1.0479928652445476
06-26,1.380842208862305,-7.5130157470703125,-4.336795806884767,11.375129699707033,13.759170532226562,-9.398345947265623,-10.296310424804688,15.005050659179688,0.591705322265625,-1.5451507568359375,-16.607292175292972,-5.182548522949219,5.0,7.0,09-09,-1.0639634132385254
06-27,3.0806427001953125,-6.805122375488281,-4.336795806884767,12.342300415039062,14.281288146972654,-13.290916442871096,-7.883918762207031,15.005050659179688,0.0125732421875,-7.895027160644531,-14.85186004638672,-8.34368896484375,5.0,7.0,09-10,-1.5571228663126628
06-28,3.441471099853516,-6.805122375488281,-5.2849998474121085,12.820075988769533,14.8643798828125,-14.330520629882812,-8.567459106445312,12.026008605957033,-0.24240875244140625,-8.469955444335938,-12.423370361328125,-7.323955535888673,4.0,8.0,09-11,-1.6913213729858398
06-29,3.441471099853516,-4.458038330078125,-6.2479400634765625,10.327342987060547,13.118400573730467,-13.680145263671875,-8.567459106445312,11.481285095214846,-2.903915405273437,-9.502418518066406,-12.259307861328125,-7.323955535888673,4.0,8.0,09-12,-2.2145566940307617
06-30,3.0094451904296875,-4.019134521484375,-8.703449249267576,10.878158569335938,14.80645751953125,-13.680145263671875,-9.782302856445312,8.8741455078125,-2.3037567138671875,-5.74346923828125,-11.3607177734375,-8.315982818603517,4.0,8.0,09-13,-2.1950626373291016
07-01,4.478935241699219,-3.05666732788086,-7.672626495361327,11.13106918334961,14.80645751953125,-13.392433166503904,-7.060829162597656,7.903755187988281,-3.5465164184570312,-5.054290771484375,-11.3607177734375,-11.351741790771484,4.0,8.0,09-14,-2.014633814493815
07-02,5.3511009216308585,-2.680522918701172,-7.453315734863281,11.13106918334961,13.61944580078125,-12.119850158691404,-7.819419860839844,7.3709869384765625,-1.0449905395507812,-5.054290771484375,-6.034873962402344,-10.960468292236328,4.0,8.0,09-15,-1.3079274495442708
07-03,6.5853233337402335,-3.405548095703125,-6.996696472167969,8.400093078613281,13.869384765625,-14.219154357910154,-7.95159912109375,5.529029846191406,-1.0449905395507812,-5.082954406738281,-6.992561340332031,-10.733623504638672,4.0,8.0,09-16,-1.8369414011637368
07-05,9.35468292236328,-3.6868972778320312,-6.996696472167969,11.860260009765625,11.831192016601562,-9.64887237548828,-4.665084838867188,5.529029846191406,1.5670089721679688,-4.995697021484375,-2.553314208984375,-9.060466766357422,5.0,7.0,09-18,-0.1220712661743164
07-06,9.35468292236328,-3.6868972778320312,-5.344459533691406,11.9234619140625,13.037849426269533,-9.6767578125,-4.665084838867188,7.8905181884765625,4.522148132324219,-6.3437652587890625,-8.345680236816406,-9.060466766357422,5.0,7.0,09-19,-0.03287092844645182
07-07,10.277238845825195,-5.739849090576173,-6.037567138671875,11.294212341308596,14.896980285644533,-9.6767578125,-6.1883087158203125,8.993568420410156,4.5408477783203125,-6.216819763183594,-8.249069213867188,-6.801383972167969,5.0,7.0,09-20,0.09109099706013997
07-08,9.44403076171875,-7.693992614746094,-6.390373229980469,10.231975555419922,14.896980285644533,-9.9088134765625,-4.3665313720703125,7.247779846191406,3.49664306640625,-5.527626037597656,-8.249069213867188,-5.816596984863281,5.0,7.0,09-21,-0.21963278452555332
07-09,8.741264343261719,-8.025688171386719,-5.356006622314453,10.231975555419922,13.76079559326172,-10.642204284667967,-8.3070068359375,7.239013671875,4.495353698730469,-5.527626037597656,-7.285980224609375,-3.2469635009765625,5.0,7.0,09-22,-0.3269227345784505
07-10,8.533668518066406,-7.1544837951660165,-7.040916442871094,11.214214324951172,13.247474670410154,-9.723991394042967,-7.353363037109375,10.186172485351562,4.495353698730469,-6.330497741699219,-8.460029602050781,-6.169166564941406,5.0,7.0,09-23,-0.3796304066975911
07-11,9.175466537475586,-6.8186988830566415,-7.040916442871094,10.043766021728516,11.79608917236328,-10.951766967773438,-8.262237548828125,10.186172485351562,3.5364761352539062,-5.041519165039063,-9.222785949707033,-6.083580017089844,5.0,7.0,09-24,-0.7236278851826986
07-12,8.354589462280272,-6.8186988830566415,-6.9862213134765625,10.608661651611328,11.255661010742188,-13.681312561035154,-10.303421020507812,8.074424743652344,3.3176193237304688,-4.305206298828125,-10.121192932128906,-8.132946014404299,5.0,7.0,09-25,-1.5615035692850752
07-13,8.354589462280272,-7.394130706787108,-10.132274627685547,9.325679779052734,13.203598022460938,-12.473472595214846,-10.303421020507812,8.284126281738281,2.606147766113281,-1.7086181640625,-9.567512512207033,-8.132946014404299,5.0,7.0,09-26,-1.4948528607686358
07-14,7.976573944091798,-7.700431823730469,-10.49759292602539,8.81985092163086,12.875236511230467,-12.473472595214846,-11.256599426269533,4.836349487304688,4.204078674316406,0.9859161376953124,-11.29705047607422,-10.421493530273438,6.0,6.0,09-27,-1.9957195917765305
07-15,6.120563507080077,-6.389030456542969,-11.191635131835938,7.982936859130858,12.875236511230467,-10.499069213867188,-9.35393524169922,4.874176025390625,4.727226257324219,0.6700363159179688,-11.29705047607422,-10.330978393554688,6.0,6.0,09-28,-1.817626953125
07-16,4.370521545410156,-5.005039215087892,-10.461044311523438,7.982936859130858,12.403533935546875,-15.553466796875,-8.998146057128906,5.015838623046875,5.1552276611328125,0.6700363159179688,-9.884437561035156,-10.266632080078123,6.0,6.0,09-29,-2.047555923461914
07-17,4.753944396972656,-4.6420326232910165,-12.43362808227539,7.063232421875,12.144561767578125,-12.70110321044922,-10.365211486816406,10.116676330566406,5.1552276611328125,0.9476318359375,-9.758819580078123,-9.623111724853516,6.0,6.0,09-30,-1.6118860244750977
07-18,4.212680816650392,-3.716342926025391,-12.43362808227539,7.587471008300781,10.9744873046875,-13.1656494140625,-7.3033905029296875,10.116676330566406,5.345458984375,3.2736434936523438,-10.097000122070312,-11.395267486572266,6.0,6.0,10-01,-1.3834050496419268
07-19,5.056102752685547,-3.716342926025391,-13.57974624633789,6.345874786376952,9.531570434570312,-15.915855407714846,-4.803375244140625,11.259628295898438,2.3874053955078125,4.958335876464844,-12.386932373046875,-11.642776489257812,6.0,6.0,10-02,-1.875509262084961
07-20,5.056102752685547,-4.687400817871094,-13.712162017822266,6.879306793212892,10.479644775390623,-17.932044982910156,-4.803375244140625,12.223129272460938,2.9295272827148438,6.83447265625,-15.102012634277346,-11.642776489257812,6.0,6.0,10-03,-1.9564657211303709
07-21,4.925300598144531,-4.288097381591797,-15.77606201171875,8.249649047851562,10.576766967773438,-17.932044982910156,-4.241569519042969,14.376815795898438,4.061424255371094,6.8344573974609375,-16.821884155273438,-14.335662841796875,6.0,6.0,10-04,-2.030908902486165
07-22,4.352489471435547,-3.1899795532226562,-17.424423217773438,6.382667541503906,10.576766967773438,-18.303680419921875,-2.340850830078125,14.291793823242188,3.0341796875,7.1981964111328125,-16.821884155273438,-15.177188873291016,6.0,6.0,10-05,-2.285159428914388
07-23,3.1347007751464844,-2.9993972778320312,-14.862834930419922,6.382667541503906,10.969863891601562,-17.551109313964847,0.6929092407226562,15.48199462890625,2.8724746704101562,7.1981964111328125,-17.189041137695312,-13.900043487548828,7.0,5.0,10-06,-1.6474682490030923
07-24,3.527084350585937,-2.8995819091796875,-13.429058074951172,7.164409637451173,12.8243408203125,-18.238670349121094,5.1404876708984375,17.59789276123047,2.8724746704101562,4.556312561035156,-16.271148681640625,-12.454605102539062,7.0,5.0,10-07,-0.8008384704589844
07-25,4.63665771484375,-2.359588623046875,-13.429058074951172,7.233402252197266,12.588523864746096,-18.331565856933594,9.035621643066406,17.59789276123047,1.3886795043945312,1.7708282470703125,-14.058502197265625,-12.4447021484375,7.0,5.0,10-08,-0.5309842427571615
07-26,4.695289611816406,-2.359588623046875,-13.593433380126953,5.743476867675781,12.52838897705078,-18.378028869628906,9.906410217285156,15.9920654296875,1.7120590209960938,2.0962677001953125,-14.039169311523438,-11.73188018798828,7.0,5.0,10-09,-0.6190118789672852
07-27,4.695289611816406,-0.925678253173828,-11.657390594482422,4.051258087158203,12.37116241455078,-17.495376586914062,9.906410217285156,16.398246765136722,0.1997528076171875,0.650909423828125,-14.6768798828125,-11.73188018798828,7.0,5.0,10-10,-0.6845146814982096
07-28,5.083175659179688,-0.90753173828125,-13.027229309082033,5.2836456298828125,12.398902893066404,-17.495376586914062,6.479423522949219,15.623687744140625,1.027252197265625,2.3451385498046875,-14.812156677246096,-10.45473861694336,7.0,5.0,10-11,-0.7046505610148112
07-29,8.474948883056639,-0.5082054138183594,-10.314922332763672,4.570869445800781,12.398902893066404,-18.28511047363281,8.707916259765625,14.726325988769533,1.5598907470703125,-3.283233642578125,-14.812156677246096,-10.722049713134766,6.0,6.0,10-12,-0.6239020029703776
07-30,7.5323028564453125,0.9347648620605468,-9.808097839355467,4.570869445800781,12.680992126464846,-20.134056091308594,8.202285766601562,16.388839721679688,1.7025680541992188,-3.283233642578125,-16.879875183105472,-8.93008804321289,7.0,5.0,10-13,-0.5852273305257162
07-31,7.464633941650391,-1.6335487365722656,-9.438240051269533,5.2836341857910165,13.582809448242188,-18.220069885253906,8.277191162109375,16.624984741210938,1.7025680541992188,-2.364295959472656,-16.367767333984375,-8.553874969482424,6.0,6.0,10-14,-0.3034979502360026
08-01,5.8544578552246085,-1.635833740234375,-9.438240051269533,4.313365936279297,12.449806213378904,-22.559066772460927,8.277183532714844,16.624984741210938,2.3493576049804688,-3.7809677124023438,-11.42072296142578,-7.652946472167969,6.0,6.0,10-15,-0.5515518188476562
08-02,6.7376441955566415,-1.635833740234375,-8.337787628173826,5.821666717529298,12.963134765625,-25.987548828125,8.90386962890625,15.500877380371096,4.1184844970703125,-3.5895538330078125,-13.787956237792967,-8.66278076171875,6.0,6.0,10-16,-0.6629819869995117
08-03,6.7376441955566415,-1.2682952880859375,-8.036949157714844,1.6888160705566406,12.013717651367188,-21.79998016357422,8.90386962890625,12.56024932861328,7.3428955078125,0.153167724609375,-9.420646667480467,-8.66278076171875,7.0,5.0,10-17,0.01764233907063802
08-04,6.376808166503906,-1.7400245666503906,-3.645465850830078,3.76065444946289,13.087745666503904,-21.79998016357422,8.622978210449219,9.82866668701172,6.590850830078125,-1.359375,-10.17938995361328,-10.731945037841797,6.0,6.0,10-18,-0.09903971354166667
08-05,6.887729644775392,-1.0178070068359375,-6.551860809326173,4.451496124267578,13.087745666503904,-18.8453369140625,10.507537841796877,3.5742568969726562,7.5614013671875,-3.3923110961914062,-10.17938995361328,-12.16411590576172,6.0,6.0,10-19,-0.5067211786905924
08-06,6.648445129394531,1.011455535888672,-1.1002845764160156,4.451496124267578,13.531692504882812,-14.110359191894533,9.356521606445312,2.4868927001953125,6.808692932128906,-3.3923110961914062,-9.48370361328125,-12.962722778320312,7.0,5.0,10-20,0.2704846064249675
08-07,8.918285369873047,-0.13787841796875,-0.2538642883300781,3.071949005126953,11.7276611328125,-13.61798858642578,10.503219604492188,4.313148498535156,6.808692932128906,-3.8996429443359375,-10.14642333984375,-12.133460998535154,6.0,6.0,10-21,0.4294748306274414
08-08,8.282363891601562,0.15299224853515625,-0.2538642883300781,3.2325477600097656,11.747276306152346,-13.782371520996096,8.209312438964844,4.313148498535156,5.400970458984375,-3.8353500366210938,-15.1221923828125,-13.677009582519533,7.0,5.0,10-22,-0.4443480173746745
08-09,7.6182708740234375,0.15299224853515625,-1.2858161926269531,1.7644195556640625,11.8724365234375,-11.221176147460938,7.186714172363281,4.577659606933594,5.304389953613281,-4.238937377929688,-11.041419982910156,-14.83700942993164,7.0,5.0,10-23,-0.3456230163574219
08-10,7.6182708740234375,-0.19186019897460932,0.2387962341308593,1.0555801391601562,12.29364013671875,-14.907882690429688,7.186714172363281,5.342536926269531,7.503334045410156,-6.040901184082031,-7.787208557128906,-14.83700942993164,7.0,5.0,10-24,-0.21049912770589194
08-11,8.718807220458983,0.8190803527832031,-1.0687141418457031,0.4747543334960938,9.187240600585938,-14.907882690429688,6.222282409667969,3.5555191040039062,8.1883544921875,-9.744537353515623,-5.487701416015625,-13.807376861572266,7.0,5.0,10-25,-0.654181162516276
08-12,7.8517189025878915,0.9541473388671876,-1.319438934326172,0.7234535217285156,9.187240600585938,-13.412010192871096,5.654838562011719,2.440460205078125,8.235115051269531,-14.52001953125,-5.487701416015625,-11.670665740966795,7.0,5.0,10-26,-0.9469051361083984
08-13,6.19476318359375,1.5622978210449219,-3.925373077392578,0.7234535217285156,9.427719116210938,-11.85791015625,5.54180908203125,2.1555252075195312,7.920677185058594,-14.52001953125,-6.067436218261719,-9.437313079833984,7.0,5.0,10-27,-1.0234839121500652
08-14,5.552574157714844,0.821441650390625,-3.971111297607422,0.2406196594238281,11.662925720214846,-10.819717407226562,3.3938064575195312,1.6539993286132812,7.920677185058594,-16.022834777832028,-2.6565704345703125,-12.561832427978516,7.0,5.0,10-28,-1.2321685155232749
08-15,6.7973785400390625,0.82598876953125,-3.971111297607422,0.4843482971191406,12.505622863769533,-16.2432861328125,2.6715850830078125,1.6539993286132812,8.843299865722656,-7.779594421386719,-2.0844497680664062,-11.496082305908205,7.0,5.0,10-29,-0.6493584314982096
08-16,5.667961120605469,0.82598876953125,-3.190296173095703,-0.053668975830078125,12.5421142578125,-12.771965026855467,4.63238525390625,1.9279556274414065,11.517311096191404,-8.7664794921875,-4.418800354003906,-13.566085815429688,6.0,6.0,10-30,-0.4711316426595052
08-17,5.667961120605469,0.3404502868652344,-0.4457130432128906,0.6465301513671875,15.068466186523438,-11.25446319580078,4.63238525390625,1.5872421264648438,14.515998840332033,-12.009605407714846,-5.5075531005859375,-13.566085815429688,7.0,5.0,10-31,-0.02703221638997396
08-18,5.44696044921875,0.7891082763671875,3.533512115478516,2.1606178283691406,12.869422912597654,-11.25446319580078,4.257843017578125,-0.7285842895507812,14.850669860839846,-8.68212890625,-7.632408142089844,-13.377979278564453,7.0,5.0,11-01,0.18604755401611328
08-19,5.484188079833984,1.9739990234375,0.9301872253417968,3.265979766845703,12.869422912597654,-12.741058349609375,8.070098876953125,-1.1165084838867188,15.555068969726562,-8.84515380859375,-7.632408142089844,-11.18535614013672,7.0,5.0,11-02,0.5523716608683268
08-20,3.7130661010742174,2.178436279296875,-0.1369476318359375,3.265979766845703,11.976882934570312,-13.820541381835938,8.698005676269531,0.14105224609375,17.860862731933594,-8.84515380859375,-6.5502471923828125,-9.420402526855467,7.0,5.0,11-03,0.7550827662150065
08-21,2.847301483154297,2.796737670898437,4.5114479064941415,3.633861541748047,12.369049072265625,-11.102218627929688,10.655357360839844,-0.067138671875,17.860862731933594,-9.534347534179688,-7.363136291503906,-7.807483673095702,7.0,5.0,11-04,1.5666910807291667
08-22,3.29458236694336,-1.3390007019042969,4.5114479064941415,3.7490921020507812,11.453636169433596,-11.858039855957033,18.1317138671875,-0.067138671875,17.337753295898438,-9.7996826171875,-3.925613403320313,-8.868114471435547,6.0,6.0,11-05,1.8850529988606768
08-23,4.333648681640625,-1.3390007019042969,3.315128326416016,3.84906005859375,12.500968933105467,-16.239837646484375,16.274116516113278,-0.10491943359375,17.13909912109375,-13.272605895996096,2.171821594238281,-7.848114013671875,7.0,5.0,11-06,1.7316137949625652
08-24,4.333648681640625,0.07674407958984375,4.70684814453125,3.716869354248047,10.54753875732422,-10.821517944335938,16.274116516113278,1.4272232055664062,19.082015991210934,-10.4515380859375,1.9991989135742188,-7.848114013671875,9.0,3.0,11-07,2.7535861333211265
08-25,4.9741249084472665,0.4395103454589844,6.2197303771972665,5.978420257568359,9.117027282714844,-10.821517944335938,17.116813659667972,1.615692138671875,21.530548095703125,-10.650848388671877,-0.5137710571289062,-7.8976173400878915,8.0,4.0,11-08,3.092342694600424
08-26,6.401397705078125,0.9661140441894532,5.260368347167969,5.066497802734375,9.117027282714844,-12.17803955078125,14.654273986816404,3.2241973876953125,21.75737762451172,-8.905601501464844,-0.5137710571289062,-7.228778839111327,8.0,4.0,11-09,3.1350886027018228
08-27,7.9095497131347665,0.09093856811523438,4.822685241699219,5.066497802734375,9.496238708496094,-8.772102355957031,9.034011840820312,2.251167297363281,20.08042907714844,-8.905601501464844,0.0562896728515625,-9.921932220458984,9.0,3.0,11-10,2.6006809870402017
08-28,8.704879760742188,2.0756988525390625,3.139019012451172,5.227458953857422,5.687652587890625,-8.0277099609375,7.704612731933594,2.317413330078125,20.08042907714844,-8.254707336425781,2.43695068359375,-5.439373016357422,9.0,3.0,11-11,2.9710270563761387
08-29,8.717521667480469,2.934673309326172,3.139019012451172,3.6333389282226562,6.496673583984375,-10.389663696289062,7.9034881591796875,2.317413330078125,20.318214416503906,-13.153434753417967,0.5139846801757812,-2.698047637939453,9.0,3.0,11-12,2.4777650833129883
08-30,8.297378540039062,2.934673309326172,2.8422203063964844,4.050884246826172,6.7420501708984375,-8.140724182128906,4.84503173828125,3.328109741210937,20.25238037109375,-12.644973754882812,-0.05963897705078125,-2.978046417236328,8.0,4.0,11-13,2.45577875773112
08-31,8.297378540039062,3.2477684020996094,3.492237091064453,3.0532188415527344,4.0899658203125,-9.24858856201172,4.84503173828125,4.063545227050781,18.80631256103516,-16.079093933105472,-0.5158920288085938,-2.978046417236328,8.0,4.0,11-14,1.7561531066894531
09-01,8.919797897338867,1.9592247009277344,5.8428382873535165,2.8236541748046875,5.182518005371094,-9.24858856201172,6.9892425537109375,2.8524627685546875,18.06421661376953,-18.17052459716797,-1.1756515502929688,-2.8493423461914062,8.0,4.0,11-15,1.7658206621805828
09-02,8.607559204101562,1.2271881103515625,7.134849548339844,1.9393768310546875,5.182518005371094,-9.24858856201172,3.8775634765625,3.714141845703125,15.958869934082033,-18.602027893066406,-1.1756515502929688,-2.7743911743164062,8.0,4.0,11-16,1.3201173146565754
09-03,8.51708984375,1.0187339782714844,7.1244544982910165,1.9393768310546875,5.182518005371094,-10.86846160888672,4.646408081054688,-0.0894775390625,14.901260375976562,-18.602027893066406,-1.1756515502929688,-0.030078887939453125,7.0,5.0,11-17,1.0470120112101238
09-04,9.113958358764648,1.126678466796875,6.3603782653808585,1.9393768310546875,4.308563232421875,-5.809700012207031,7.5537261962890625,0.5255889892578125,14.901260375976562,-18.602027893066406,-2.8192825317382812,2.6400222778320312,9.0,3.0,11-18,1.7698785463968914
09-05,7.435688018798827,0.7267265319824219,6.3603782653808585,3.587635040283203,4.683998107910156,-8.024375915527344,5.134651184082031,0.5255889892578125,14.901260375976562,-15.427635192871096,-1.7518768310546875,4.926994323730469,9.0,3.0,11-19,1.9232527414957683
09-06,6.875511169433594,0.7267265319824219,6.3603782653808585,2.042926788330078,3.225830078125,-3.292724609375,7.170501708984375,0.5255889892578125,13.084671020507812,-9.678176879882812,-4.71746826171875,4.926994323730469,9.0,3.0,11-20,2.270896593729655
09-07,6.875511169433594,0.7267265319824219,2.98724365234375,2.720287322998047,2.041595458984375,-2.6782684326171875,7.170501708984375,-1.7178878784179688,12.571372985839846,-8.203178405761719,-8.991630554199219,4.926994323730469,8.0,4.0,11-21,1.5357723236083984
09-08,6.875511169433594,0.9005317687988281,4.010787963867188,2.941009521484375,1.5925140380859375,-2.6782684326171875,7.170501708984375,-1.99993896484375,14.111930847167967,-8.059616088867188,-7.381011962890625,4.926994323730469,8.0,4.0,11-22,1.8675788243611653
09-09,5.692455291748048,1.6952362060546875,4.968032836914063,2.3837203979492188,1.5925140380859375,-2.585357666015625,5.50860595703125,3.0106201171875,13.018104553222654,-11.27202606201172,-7.381011962890625,3.907260894775391,9.0,3.0,11-23,1.7115128835042317
09-10,4.415699005126953,0.201995849609375,4.607326507568359,2.3837203979492188,1.661895751953125,-2.202339172363281,4.431755065917969,2.6988983154296875,13.22772216796875,-11.27202606201172,-7.477638244628906,7.728786468505858,9.0,3.0,11-24,1.7004830042521162
09-11,5.580619812011719,0.16116714477539062,4.1360816955566415,2.3699302673339844,1.0803070068359375,-1.0366363525390625,5.227516174316406,2.3203887939453125,13.22772216796875,-13.090705871582033,-7.153709411621094,6.6892547607421875,9.0,3.0,11-25,1.6259946823120115
09-12,5.066429138183594,-1.5658531188964844,4.1360816955566415,2.457843780517578,1.0807266235351562,-1.4495086669921875,5.901679992675781,2.3203887939453125,12.714111328125,-10.289390563964844,-6.16949462890625,6.5704498291015625,8.0,4.0,11-26,1.7311220169067385
09-13,5.23358154296875,-1.5658531188964844,3.843841552734375,1.8376579284667969,1.3531494140625,-1.9977035522460933,8.312812805175781,4.757476806640625,10.145881652832033,-15.065422058105467,-5.375053405761719,6.5704498291015625,8.0,4.0,11-27,1.5042349497477214
09-14,5.23358154296875,-1.5250244140625,1.845375061035156,-0.36208343505859375,1.64910888671875,-4.62310791015625,8.312812805175781,8.236465454101562,9.565803527832033,-14.449630737304688,-11.413932800292967,6.5704498291015625,7.0,5.0,11-28,0.7533181508382162
09-15,3.984210968017578,-0.743743896484375,0.2967872619628906,-0.5241584777832031,1.653717041015625,-4.62310791015625,7.545021057128906,4.909812927246094,6.442985534667969,-14.74736785888672,-12.976028442382812,7.1446685791015625,7.0,5.0,11-29,-0.13643360137939453
09-16,2.9882736206054688,-0.8805274963378906,2.565860748291016,0.06075286865234375,1.653717041015625,-7.698509216308594,3.5158309936523438,2.515785217285156,6.6237030029296875,-13.00212860107422,-12.976028442382812,4.8972930908203125,8.0,4.0,11-30,-0.8113314310709635
09-17,2.1655845642089844,0.11344528198242188,4.8695945739746085,0.06075286865234375,0.7426376342773438,-10.156333923339844,2.361328125,2.4102020263671875,7.2525634765625,-13.00212860107422,-8.705337524414062,4.570587158203125,9.0,3.0,12-01,-0.6097586949666342
09-18,2.151519775390625,0.6169509887695312,7.390510559082031,0.2998619079589844,-2.39886474609375,-16.803970336914062,6.867698669433594,11.948394775390625,7.2525634765625,-14.830398559570312,-8.375045776367188,5.045799255371094,8.0,4.0,12-02,-0.06958166758219403
09-19,3.226287841796875,1.8349533081054688,7.390510559082031,1.9562301635742188,-2.5706710815429688,-15.753097534179688,7.2059326171875,11.948394775390625,7.176490783691406,-13.889404296875,-10.062118530273438,6.926860809326173,8.0,4.0,12-03,0.4491974512736003
09-20,2.6841583251953125,1.8349533081054688,7.682746887207031,1.95623779296875,-1.7104644775390625,-10.460700988769533,4.213127136230469,11.617805480957033,7.911903381347656,-15.041786193847654,-9.579460144042967,6.926860809326173,8.0,4.0,12-04,0.669615109761556
09-21,2.6841583251953125,0.977336883544922,8.814067840576172,1.5972824096679688,-1.4836044311523438,-9.064224243164062,4.213127136230469,10.780784606933594,8.749893188476562,-15.281082153320312,-10.689056396484377,6.926860809326173,8.0,4.0,12-05,0.6854619979858398
09-22,1.4438209533691406,1.655029296875,11.877971649169922,1.9099349975585933,-0.7197265625,-9.064224243164062,5.430381774902344,10.684654235839844,6.349906921386719,-15.014373779296875,-7.516304016113281,7.283271789550781,8.0,4.0,12-06,1.1933619181315105
09-23,2.1607894897460938,1.9135856628417969,13.055652618408205,2.619213104248047,-0.7197265625,-8.228042602539062,7.5935211181640625,14.067512512207033,4.551971435546875,-18.88843536376953,-7.516304016113281,9.332637786865234,8.0,4.0,12-07,1.6618645985921223
09-24,3.229907989501953,1.0972633361816406,12.975955963134766,2.619213104248047,-2.213531494140625,-8.318672180175781,6.9184417724609375,14.066673278808596,2.608238220214844,-18.88843536376953,-5.9993438720703125,9.065326690673828,8.0,4.0,12-08,1.4300864537556963
09-25,3.8209228515625,0.728546142578125,12.12496566772461,2.9824905395507812,-2.695343017578125,-8.759567260742188,3.3243026733398438,13.650352478027346,2.608238220214844,-20.46782684326172,-5.686393737792969,8.273303985595701,8.0,4.0,12-09,0.8253326416015625
09-26,2.3715972900390625,0.4967498779296875,12.12496566772461,3.6536026000976562,-5.495880126953125,-12.555145263671875,7.3335723876953125,13.650352478027346,2.0565643310546875,-22.01227569580078,-0.79339599609375,8.283206939697267,8.0,4.0,12-10,0.7594928741455078
09-27,2.570377349853516,0.4967498779296875,11.24371337890625,1.992835998535156,-5.7465362548828125,-11.652122497558596,8.525054931640625,14.31158447265625,2.4479751586914062,-22.210739135742188,-0.1534576416015625,8.283206939697267,8.0,4.0,12-11,0.8423868815104166
09-28,2.570377349853516,0.2562446594238281,12.118247985839846,2.696666717529297,-4.534278869628906,-13.849258422851562,8.525054931640625,10.535484313964844,3.5619125366210938,-24.57831573486328,0.9010391235351562,8.283206939697267,9.0,3.0,12-12,0.5405317942301432
09-29,1.8893165588378904,-0.6558113098144531,13.778587341308596,2.173175811767578,-5.946281433105469,-13.849258422851562,7.869606018066406,10.944175720214844,4.419342041015625,-26.070953369140625,0.7361068725585938,9.520744323730467,8.0,4.0,12-13,0.4007291793823242
09-30,1.4886322021484375,-0.9427223205566406,13.80810546875,3.0988922119140625,-5.946281433105469,-11.201255798339844,5.181953430175781,8.789451599121094,3.11468505859375,-24.287338256835927,0.7361068725585938,9.768253326416016,8.0,4.0,12-14,0.3007068634033203
10-01,2.3180809020996094,-2.417510986328125,13.828617095947266,3.0988922119140625,-7.273590087890625,-9.119888305664062,1.3556442260742188,11.419075012207033,2.7907257080078125,-24.287338256835927,3.28692626953125,10.837486267089844,8.0,4.0,12-15,0.4864266713460286
10-02,4.4095458984375,-1.7815704345703125,11.39004898071289,2.662036895751953,-6.3985137939453125,-9.77117156982422,-0.0452117919921875,7.8232879638671875,2.7907257080078125,-24.7755126953125,6.986106872558594,10.886985778808594,7.0,5.0,12-16,0.3480631510416667
10-03,4.257225036621094,-2.476940155029297,11.39004898071289,3.5019683837890625,-5.833946228027344,-10.274818420410156,-2.9938507080078125,7.8232879638671875,3.4375152587890625,-26.194061279296875,4.797538757324219,9.253437042236328,7.0,5.0,12-17,-0.2760496139526367
10-04,4.9393959045410165,-2.476940155029297,8.992835998535156,3.5666732788085938,-6.790901184082031,-8.7786865234375,-4.4011077880859375,8.739547729492188,3.3133926391601562,-28.687515258789066,7.068267822265625,9.253437042236328,7.0,5.0,12-18,-0.4384667078653972
10-05,4.9393959045410165,-3.2074813842773438,8.140098571777344,5.172981262207031,-6.0186614990234375,-3.5000228881835938,-4.4011077880859375,6.349235534667969,2.065589904785156,-33.18349456787109,9.062301635742188,9.253437042236328,7.0,5.0,12-19,-0.4439773559570313
10-06,4.0057373046875,-3.570209503173828,8.827953338623047,6.573028564453125,-4.93072509765625,-3.5000228881835938,-6.451683044433594,6.651641845703125,3.70379638671875,-34.125328063964844,10.789344787597656,9.71875,7.0,5.0,12-20,-0.1923096974690756
10-07,3.5947418212890625,-3.061168670654297,9.524669647216797,5.8959999084472665,-4.93072509765625,-2.1249237060546875,-9.667930603027344,6.82080078125,4.857208251953125,-35.11304473876953,10.789344787597656,9.005928039550781,7.0,5.0,12-21,-0.3674249649047852
10-08,1.5383186340332031,-3.5650177001953125,8.563373565673826,5.8959999084472665,-4.297149658203125,-1.7879638671875,-14.484146118164062,5.715095520019531,6.867637634277344,-35.11304473876953,11.784553527832033,8.055500030517576,7.0,5.0,12-22,-0.9022369384765624
10-09,2.3649940490722656,-3.5240211486816406,8.659450531005861,5.330371856689453,-2.783241271972656,3.0203475952148438,-15.834640502929688,5.137886047363281,6.867637634277344,-37.52519989013672,12.560203552246096,8.164398193359375,8.0,4.0,12-23,-0.630151112874349
10-10,3.3144187927246094,-3.5240211486816406,8.659450531005861,6.9274330139160165,-2.8510360717773438,5.036628723144531,-15.05829620361328,5.137886047363281,6.601318359375,-35.003746032714844,13.61907196044922,7.520881652832031,8.0,4.0,12-24,0.031665802001953125
10-11,3.3144187927246094,-3.5240211486816406,8.326122283935549,6.775676727294923,-4.7610931396484375,10.676406860351562,-15.05829620361328,6.3091888427734375,6.458641052246094,-30.361297607421875,13.290557861328125,7.520881652832031,8.0,4.0,12-25,0.7472654978434244
10-12,3.3144187927246094,-3.2290802001953125,7.956264495849608,6.890071868896484,-6.13507080078125,11.933250427246096,-15.05829620361328,6.0730438232421875,9.402359008789062,-33.27545166015625,15.013328552246096,7.520881652832031,8.0,4.0,12-26,0.8671433130900065
10-13,3.7428932189941406,-2.97683334350586,8.285682678222656,5.766288757324219,-5.838775634765625,11.933250427246096,-14.356048583984375,7.2198944091796875,10.155014038085938,-37.868072509765625,15.430534362792967,7.095165252685548,8.0,4.0,12-27,0.7157494227091471
10-14,3.817447662353516,-3.435855865478516,6.537952423095702,5.204399108886719,-5.838775634765625,11.858909606933596,-11.34259033203125,7.1442108154296875,11.624252319335938,-31.98983764648437,15.430534362792967,8.104999542236326,8.0,4.0,12-28,1.4263038635253906
10-15,3.3611412048339844,-4.508445739746094,8.052333831787111,5.204399108886719,-5.421188354492188,5.4741973876953125,-12.871856689453125,8.289176940917969,10.623802185058594,-31.98983764648437,14.406341552734375,7.269996643066406,8.0,4.0,12-29,0.6575050354003906
10-16,3.216571807861328,-5.158336639404297,6.8765106201171875,3.5970077514648438,-6.606346130371094,2.3740386962890625,-15.958488464355467,7.446998596191406,10.623802185058594,-31.903533935546875,15.009857177734375,7.930000305175781,8.0,4.0,12-30,-0.2126598358154297
10-17,2.222694396972656,-4.608417510986328,6.8765106201171875,2.9430160522460938,-5.661918640136719,2.8953933715820312,-12.871833801269533,7.446998596191406,10.3951416015625,-30.06239318847656,15.883079528808596,9.15999984741211,8.0,4.0,12-31,0.3848559061686198
10-18,2.222694396972656,-4.608417510986328,4.767353057861328,3.1686935424804688,-6.7729949951171875,1.461669921875,-12.871833801269533,8.062057495117188,11.147850036621094,-28.53771209716797,18.143768310546875,9.15999984741211,8.0,4.0,01-01,0.4452606836954753
10-19,2.222694396972656,-3.767635345458984,3.920932769775391,2.551532745361328,-7.856330871582031,-0.05585479736328125,-12.871833801269533,6.235801696777344,12.091110229492188,-28.91166687011719,14.291854858398438,9.15999984741211,7.0,5.0,01-02,-0.24911626180013025
10-20,2.195587158203125,-3.804000854492188,4.9000244140625,3.997711181640625,-7.629478454589844,-0.05585479736328125,-12.928123474121096,6.0276031494140625,10.547561645507812,-27.847267150878906,15.621101379394533,9.06999969482422,7.0,5.0,01-03,0.007905324300130209
10-21,2.651866912841797,-3.358600616455078,3.6098251342773438,5.328754425048828,-7.629478454589844,-3.1001815795898438,-12.355873107910154,6.8319244384765625,11.748123168945312,-24.586898803710927,15.621101379394533,10.229999542236328,7.0,5.0,01-04,0.4158802032470703
10-22,2.642833709716797,-2.254219055175781,4.7444725036621085,5.328754425048828,-8.013710021972656,0.0,-14.08209991455078,9.386810302734377,13.30120849609375,-24.586898803710927,13.767921447753904,8.419998168945312,7.0,5.0,01-05,0.7212559382120768
10-23,5.0688133239746085,-2.4178428649902344,4.808528900146484,6.2268524169921875,-6.212852478027344,-1.0799179077148438,-14.776359558105467,9.4625244140625,13.30120849609375,-19.66761779785156,11.837112426757812,7.8400001525878915,7.0,5.0,01-06,1.1992041269938152
10-24,5.552223205566406,-2.3314743041992188,4.808528900146484,6.208442687988281,-7.810020446777344,-5.045936584472656,-12.440261840820312,9.4625244140625,13.76806640625,-15.505859375,12.632728576660154,10.419998168945312,7.0,5.0,01-07,1.6432466506958008
10-25,5.701320648193359,-2.3314743041992188,6.437305450439452,6.1623802185058585,-8.9906005859375,-3.928787231445313,-15.076557159423828,10.3614501953125,14.101554870605467,-12.657859802246096,15.48528289794922,10.419998168945312,7.0,5.0,01-08,2.140334447224935
10-26,5.701320648193359,-1.5543098449707031,6.7392578125,5.4807395935058585,-7.208213806152344,-4.422203063964844,-15.076557159423828,11.392860412597654,14.53032684326172,-11.555068969726562,17.69745635986328,10.419998168945312,7.0,5.0,01-09,2.6788005828857417
10-27,5.7419700622558585,-1.3361701965332031,4.387607574462892,3.523334503173828,-7.240623474121094,-4.422203063964844,-14.42922592163086,12.746002197265625,13.567977905273438,-6.252220153808594,15.805450439453125,10.769996643066406,7.0,5.0,01-10,2.7384913762410483
10-28,6.45123291015625,-0.3090476989746094,3.1980552673339844,3.7490081787109375,-7.240623474121094,-7.280311584472656,-18.13503646850586,11.563156127929688,11.605201721191404,-2.732940673828125,15.805450439453125,12.84000015258789,7.0,5.0,01-11,2.459512074788412
10-29,5.967830657958984,-0.349945068359375,7.361473083496094,3.7490081787109375,-8.472076416015625,-5.8186798095703125,-18.763648986816406,12.282356262207033,11.89105224609375,-2.732940673828125,15.06806182861328,11.379997253417967,7.0,5.0,01-12,2.630207379659017
10-30,7.445117950439452,0.2999763488769531,6.286293029785156,3.7490081787109375,-6.171165466308594,-4.4315032958984375,-20.80886459350586,13.72064971923828,11.89105224609375,-6.060417175292969,18.075851440429688,11.109996795654297,8.0,4.0,01-13,2.9254995981852208
10-31,6.0762596130371085,1.1716995239257812,6.286293029785156,4.426044464111328,-5.365653991699219,-9.812599182128906,-21.71888732910156,13.72064971923828,11.567092895507812,-5.9645233154296875,16.455535888671875,10.199996948242188,8.0,4.0,01-14,2.25349235534668
11-01,7.200618743896484,1.1716995239257812,7.910499572753906,4.029949188232422,-7.185050964355469,-7.6899566650390625,-20.38497543334961,13.020401000976562,9.26129913330078,-9.60845947265625,13.94255828857422,10.199996948242188,8.0,4.0,01-15,1.8223816553751628
11-02,7.200618743896484,0.4127159118652344,3.262104034423828,4.356964111328125,-6.879486083984375,-5.033241271972656,-20.38497543334961,13.228591918945312,11.614707946777346,-3.6822662353515625,12.264022827148438,10.199996948242188,8.0,4.0,01-16,2.213312784830729
11-03,6.735298156738281,4.548454284667969,1.8352622985839844,3.896759033203125,-5.976654052734375,-5.033241271972656,-22.617862701416016,12.735565185546875,10.671424865722656,-7.4412841796875,12.661819458007812,10.329998016357422,8.0,4.0,01-17,1.8621282577514648
11-04,5.6962318420410165,4.420757293701172,0.6954307556152344,4.021282196044922,-5.976654052734375,-2.2030792236328125,-20.7602653503418,13.01947784423828,6.283660888671875,-7.152946472167969,12.661819458007812,9.30999755859375,8.0,4.0,01-18,1.6679760615030923
11-05,4.571483612060547,5.513477325439453,1.2403831481933594,4.021282196044922,-4.249824523925781,-7.62139892578125,-19.734909057617188,11.562385559082033,6.417228698730469,-7.152946472167969,12.351341247558596,9.75,8.0,4.0,01-19,1.3890419006347656
11-06,3.0121307373046875,6.1741485595703125,1.9964714050292969,1.6401634216308594,-2.8193130493164062,-11.42205047607422,-20.76327896118164,11.486572265625,6.417228698730469,-8.092704772949219,14.86431121826172,10.769996643066406,8.0,4.0,01-20,1.1053063074747722
11-07,2.303180694580078,5.518657684326172,1.9964714050292969,2.552085876464844,-0.5972671508789062,-8.435958862304688,-22.72907257080078,11.486572265625,7.246177673339844,-9.83795166015625,12.19599151611328,5.039997100830078,8.0,4.0,01-21,0.5615736643473307
11-08,1.8416671752929688,5.518657684326172,1.65789794921875,4.804668426513672,-0.8386001586914062,-8.372566223144531,-23.42518615722656,11.552818298339846,9.600608825683594,-5.3493499755859375,10.570152282714844,5.039997100830078,8.0,4.0,01-22,1.0500637690226238
11-09,1.8416671752929688,4.36883544921875,3.2086715698242188,5.730903625488281,-0.9403152465820312,-7.243812561035156,-23.42518615722656,11.287521362304688,9.295906066894533,-4.060104370117188,10.187652587890623,5.039997100830078,8.0,4.0,01-23,1.2743113835652669
11-10,2.392822265625,3.473430633544922,1.5007705688476562,5.4865989685058585,0.2137298583984375,-7.243812561035156,-24.56037902832031,12.3099365234375,11.82421875,-4.001968383789063,9.262832641601562,3.1599998474121094,9.0,3.0,01-24,1.151515007019043
11-11,2.930622100830078,3.532787322998047,0.8025131225585938,4.679512023925781,0.2137298583984375,-7.4765625,-18.200092315673828,11.559326171875,12.91181182861328,-4.280685424804688,9.262832641601562,3.4399986267089844,9.0,3.0,01-25,1.6146494547526042
11-12,2.40933609008789,4.473564147949219,0.4311637878417969,4.679512023925781,2.227577209472656,-6.53662109375,-14.535457611083984,10.56610107421875,13.512985229492188,-4.280685424804688,9.777069091796877,4.859996795654297,9.0,3.0,01-26,2.2987117767333984
11-13,2.9882125854492188,3.4541854858398438,1.4667587280273438,4.440025329589844,-0.04682159423828125,-4.543495178222656,-19.228126525878906,10.77460479736328,13.512985229492188,-1.6627960205078125,9.210243225097656,2.680000305175781,8.0,4.0,01-27,1.920481363932292
11-14,1.2431411743164062,4.551219940185547,1.4667587280273438,5.434978485107422,-1.831085205078125,-5.2575531005859375,-17.434436798095707,10.77460479736328,15.409065246582033,-0.587371826171875,7.535003662109375,0.0,7.0,5.0,01-28,1.7753604253133135
11-15,0.90380859375,4.551219940185547,2.11184310913086,4.2745361328125,-4.212425231933594,-2.9474716186523438,-17.396808624267578,8.986190795898438,15.493385314941404,-2.1751861572265625,3.313720703125,0.0,7.0,5.0,01-29,1.0752344131469729
11-16,0.90380859375,5.178386688232422,1.9319648742675781,3.546173095703125,-0.5154266357421875,-7.518341064453125,-17.396808624267578,8.835525512695312,15.722511291503904,-6.597984313964844,5.8668212890625,0.0,7.0,5.0,01-30,0.8297192255655924
11-17,1.15228271484375,6.019905090332031,3.322372436523437,3.916362762451172,-1.7065658569335938,-7.518341064453125,-15.69869613647461,10.148590087890623,14.396476745605467,-6.3470458984375,4.0074462890625,0.0,7.0,5.0,01-31,0.9743989308675132
11-18,1.3142929077148438,4.810451507568359,3.492511749267578,3.630416870117188,-1.7065658569335938,-8.747230529785156,-15.32636260986328,7.770904541015625,13.241607666015625,-5.78961181640625,4.0074462890625,0.0,7.0,5.0,02-01,0.5581550598144531
11-19,1.6433372497558594,6.1812591552734375,4.710086822509767,3.630416870117188,-1.4148941040039062,-8.606086730957031,-10.732650756835938,5.7465057373046875,13.07939910888672,-5.78961181640625,4.8418731689453125,0.0,7.0,4.0,02-02,1.1074695587158203
11-20,4.167743682861328,6.840972900390625,4.600120544433594,4.187705993652344,-0.2798690795898437,-9.527542114257812,-12.529457092285154,5.196792602539063,13.07939910888672,-2.5772018432617188,3.893234252929688,0.0,7.0,4.0,02-03,1.4209915796915693
11-21,4.064857482910156,6.777248382568359,4.600120544433594,3.2288970947265625,-1.7988357543945312,-8.413253784179688,-14.288684844970705,5.196792602539063,12.869781494140625,-6.3079681396484375,-0.1621246337890625,0.0,6.0,5.0,02-04,0.4805692036946614
11-22,4.141765594482422,6.777248382568359,5.0713653564453125,4.506938934326172,-3.809860229492188,-2.8483047485351562,-11.438385009765625,5.5753021240234375,14.386856079101562,-1.56201171875,-1.3411178588867188,0.0,6.0,5.0,02-05,1.6216497421264648
11-23,4.141765594482422,8.504268646240233,6.878986358642577,3.902751922607422,-0.195281982421875,-3.893035888671875,-11.438385009765625,2.7156524658203125,10.799179077148438,-1.0526580810546875,0.33499908447265625,0.0,7.0,4.0,02-06,1.724853515625
11-24,3.9746131896972656,7.9178504943847665,8.413532257080076,5.6861114501953125,-0.7004623413085938,-3.893035888671875,-13.849517822265625,4.8465728759765625,7.6789703369140625,-3.806976318359375,3.6740570068359375,0.0,7.0,4.0,02-07,1.6618096033732097
11-25,1.5050125122070312,8.194892883300781,8.85799789428711,6.0781211853027335,-0.7004623413085938,-1.2676315307617188,-13.985260009765625,3.671340942382813,8.20123291015625,-5.89251708984375,3.6740570068359375,0.0,7.0,4.0,02-08,1.5280653635660808
11-26,2.607280731201172,7.653186798095702,7.188819885253906,6.0781211853027335,-0.7050704956054688,2.150909423828125,-13.866756439208984,3.6675643920898438,5.825279235839844,-5.89251708984375,5.236152648925781,0.0,8.0,3.0,02-09,1.6619141896565754
11-27,2.028141021728516,7.139019012451173,7.321723937988281,6.801216125488281,3.2468795776367188,8.620498657226562,-12.577987670898438,4.5679473876953125,5.825279235839844,-5.326759338378906,3.6605300903320312,0.0,9.0,2.0,02-10,2.608874003092448
11-28,3.7017288208007812,6.770313262939452,7.321723937988281,6.262432098388673,5.415206909179688,8.769752502441406,-16.57241439819336,4.5679473876953125,5.806236267089844,-10.137809753417967,3.5876922607421875,0.0,9.0,2.0,02-11,2.1244007746378584
11-29,0.8512382507324219,6.770313262939452,6.1138648986816415,7.2870941162109375,4.349205017089844,7.64202880859375,-16.384269714355472,5.542564392089844,0.654510498046875,-12.238914489746096,2.954925537109375,0.0,9.0,2.0,02-12,1.1285467147827148
11-30,0.8512382507324219,6.893013000488281,4.064910888671875,7.323966979980469,4.5948486328125,5.720390319824219,-16.384269714355472,-2.4128646850585938,-2.0051803588867188,-8.524185180664062,4.122772216796875,0.0,7.0,4.0,02-13,0.3537200291951497
12-01,0.0380706787109375,5.807014465332031,4.334400177001953,7.8494834899902335,4.7709808349609375,5.720390319824219,-16.965950012207028,-2.978134155273437,0.3620452880859375,-11.762313842773438,4.697120666503906,0.0,8.0,3.0,02-14,0.15609232584635416
12-02,0.5802001953125,4.365638732910156,5.030937194824219,7.618885040283202,4.7709808349609375,2.8715896606445312,-13.97314453125,-3.0554962158203125,1.494964599609375,-10.685920715332033,4.697120666503906,0.0,8.0,3.0,02-15,0.3096462885538737
12-03,1.96002197265625,5.148509979248047,5.406364440917969,7.618885040283202,4.548751831054688,1.4751129150390625,-14.311458587646484,-2.9027557373046875,5.588432312011719,-10.685920715332033,6.647331237792969,0.0,8.0,3.0,02-16,0.8744395573933921
12-04,1.8289680480957031,4.243099212646484,5.905834197998048,7.6465301513671875,3.7848739624023438,1.850425720214844,-11.829303741455078,-3.3576889038085938,5.588432312011719,-6.811859130859375,3.474578857421875,0.0,8.0,3.0,02-17,1.0269908905029297
12-05,2.571125030517578,3.988189697265625,5.905834197998048,6.9372520446777335,4.761878967285156,5.922760009765625,-7.6163482666015625,-3.3576889038085938,5.731361389160156,-4.951530456542969,5.1832122802734375,0.0,8.0,3.0,02-18,2.089670499165853
12-06,2.589214324951172,3.988189697265625,4.6339263916015625,6.978523254394531,7.924644470214844,7.9049530029296875,-4.860137939453125,-2.894012451171875,7.6750946044921875,-4.749702453613281,1.173614501953125,0.0,8.0,3.0,02-19,2.5303589502970376
12-07,2.589214324951172,4.7471580505371085,5.484916687011719,5.5343666076660165,10.176109313964844,6.804229736328125,-4.860137939453125,-2.477691650390625,7.74310302734375,-3.0070037841796875,0.2602996826171875,0.0,8.0,3.0,02-20,2.749547004699707
12-08,3.501789093017578,4.978954315185547,7.856849670410156,6.378589630126952,9.684852600097656,6.804229736328125,-5.723297119140625,-4.352142333984375,7.0569915771484375,-1.7040252685546875,2.9373855590820312,0.0,8.0,3.0,02-21,3.1183481216430664
12-09,3.9726524353027344,5.525215148925781,4.93096923828125,4.5291709899902335,9.684852600097656,5.910484313964844,-8.194114685058594,-6.870887756347656,6.581016540527344,-2.597808837890625,2.9373855590820312,0.0,8.0,3.0,02-22,2.20074462890625
12-10,3.665630340576172,8.323650360107424,6.761970520019531,4.5291709899902335,9.143196105957033,6.699058532714844,-7.77130126953125,-5.8671875,4.529510498046875,-2.597808837890625,2.6172103881835938,0.0,8.0,3.0,02-23,2.502758344014486
12-11,2.8010330200195312,8.086940765380861,6.7665557861328125,4.068592071533203,11.09747314453125,4.0965728759765625,-2.332954406738281,-7.70587158203125,4.529510498046875,-2.9430084228515625,1.5263519287109375,0.0,8.0,3.0,02-24,2.4992663065592446
12-12,-0.15502548217773438,10.850048065185547,6.7665557861328125,1.5978813171386719,9.184402465820312,5.3456573486328125,-8.122714996337889,-7.70587158203125,5.415641784667969,-8.023101806640625,-2.185760498046875,0.0,6.0,5.0,02-25,1.0806427001953125
12-13,1.0982742309570312,10.850048065185547,7.9332313537597665,3.2244911193847656,9.991180419921877,6.00604248046875,-6.711662292480469,-9.76873016357422,6.960945129394531,-6.795295715332031,-5.18804931640625,0.0,7.0,4.0,02-26,1.4667062759399414
12-14,1.0982742309570312,10.418289184570312,10.7567138671875,1.356952667236328,11.326332092285154,7.3306732177734375,-6.711662292480469,-6.135032653808594,8.907089233398438,-4.90789794921875,-10.378662109375,0.0,7.0,4.0,02-27,1.9217557907104488
12-15,0.4612884521484375,9.192684173583984,10.656814575195312,1.2428970336914062,12.45722198486328,7.3306732177734375,-7.124443054199219,-7.064277648925781,10.575401306152344,-2.0041275024414062,-14.06818389892578,0.0,7.0,4.0,02-28,1.8046623865763347
12-16,0.023448944091796875,9.73465347290039,8.290069580078125,2.8201866149902344,12.45722198486328,7.2096405029296875,-6.67669677734375,-5.61407470703125,6.846405029296875,-0.9181060791015624,-14.06818389892578,0.0,7.0,4.0,03-01,1.6753803888956706
12-17,0.7513389587402344,9.46237564086914,9.70907211303711,2.8201866149902344,12.498924255371096,-0.7742385864257812,-5.271903991699219,-5.993965148925781,1.5792694091796875,-0.9181060791015624,-14.94140625,0.0,6.0,5.0,03-02,0.7434622446695963
12-18,0.8330764770507812,7.564006805419923,8.448944091796875,1.4615287780761719,11.888320922851562,-2.3762969970703125,-6.1138343811035165,-3.09381103515625,1.5792694091796875,1.1915054321289062,-19.783611297607425,0.0,7.0,4.0,03-03,0.13325818379720053
12-19,0.12842178344726562,7.909976959228516,8.448944091796875,1.5805206298828125,11.250450134277344,-5.38458251953125,-4.7433815002441415,-3.09381103515625,0.13100433349609375,1.1797103881835938,-17.250415802001953,0.0,7.0,4.0,03-04,0.013069788614908857
12-20,0.5763626098632812,7.909976959228516,7.350902557373048,-0.5536117553710938,9.71337890625,-4.199821472167969,-2.880802154541016,-2.791015625,-2.108436584472656,6.6124267578125,-19.00787353515625,0.0,5.0,6.0,03-05,0.05179055531819662
12-21,0.5763626098632812,7.823616027832031,8.652420043945312,-0.74322509765625,11.182113647460938,-4.087867736816406,-2.880802154541016,-3.711273193359375,-4.528205871582031,9.365386962890623,-20.125049591064453,0.0,5.0,6.0,03-06,0.12695630391438806
12-22,-0.8150711059570312,8.666160583496094,7.204524993896484,0.9673309326171876,10.686203002929688,-4.087867736816406,-2.467998504638672,-4.165306091308594,-4.908821105957031,12.325660705566404,-18.518795013427734,0.0,5.0,6.0,03-07,0.4071683883666992
12-23,-2.0533409118652344,8.228595733642576,6.911205291748048,1.3824005126953125,10.686203002929688,-5.3447113037109375,-3.9915847778320312,-1.7027816772460938,-7.863639831542969,8.90423583984375,-18.518795013427734,0.0,5.0,6.0,03-08,-0.28018442789713544
12-24,-1.378704071044922,8.468898773193361,6.352714538574219,1.3824005126953125,10.389907836914062,-3.9871444702148438,-1.7063827514648438,-2.6971893310546875,-7.997215270996094,8.90423583984375,-18.93600082397461,0.0,5.0,6.0,03-09,-0.1003732681274414
12-26,-0.7818946838378906,7.203418731689452,6.5451622009277335,2.8482322692871094,10.236846923828123,-5.517402648925781,0.24289703369140625,-7.151695251464844,-7.997215270996094,2.4589767456054688,-27.32799530029297,0.0,6.0,5.0,03-11,-1.6033891042073567
12-27,-0.4244728088378906,7.203418731689452,6.5451622009277335,3.327922821044922,9.30584716796875,-7.419456481933594,1.842071533203125,-7.151695251464844,-7.263954162597656,-2.068084716796875,-44.06388473510742,0.0,5.0,6.0,03-12,-3.3472604751586914
12-28,-0.4244728088378906,7.26702880859375,8.302932739257812,4.709617614746094,8.544830322265625,-7.0836334228515625,1.842071533203125,-5.4849700927734375,-5.2409210205078125,-1.02325439453125,-39.44224548339844,0.0,5.0,6.0,03-13,-2.336084683736165
12-29,-0.126312255859375,5.365150451660156,7.8275299072265625,4.360481262207031,8.326980590820312,-7.0836334228515625,1.2791519165039062,-5.997314453125,-6.7779388427734375,-0.0340118408203125,-42.10960006713867,0.0,5.0,6.0,03-14,-2.9141263961791988
12-30,-0.3980979919433594,6.394317626953125,7.044269561767577,4.26824951171875,8.326980590820312,-5.566108703613281,1.7389068603515625,-5.675331115722656,-8.674850463867188,1.4940948486328125,-42.10960006713867,0.0,6.0,5.0,03-15,-2.7630974451700845
12-31,0.19359207153320312,6.949432373046875,7.1288490295410165,4.26824951171875,8.100128173828125,-5.7631683349609375,4.307441711425781,-8.325386047363281,-8.827522277832031,1.4940948486328125,-43.43884658813477,0.0,7.0,4.0,03-16,-2.826094627380371
