,2009,2010,2011,2012,2013,2014,2015,2016,2017,2018,2019,2020,ups,downs,avg
01-02,-32.210082127169784,6.250001475362509,0.9705264666044028,9.137486689483724,2.5873534319938933,2.8985503836850626,0.2955528203922891,6.491029890315438,8.44867439271186,-2.573017264356728,7.284826624305255,-39.71759495959394,9.0,3.0,-2.5113910146888343
01-03,-27.40652700630385,8.042493063792271,0.9705264666044028,9.137486689483724,2.51238710197158,3.3425203242220034,1.6632926474805372,8.11368678018656,8.44867439271186,-3.4214243121060623,10.960644998991807,-57.35259078211386,9.0,3.0,-2.9157358029232525
01-04,-23.692474144497762,8.042493063792271,2.443868592059952,8.906446382156409,1.1552124821431082,5.273793739811448,2.682461103676109,8.11368678018656,6.128166314611571,-2.2100416851847484,9.950422343213704,-56.245451520795356,9.0,3.0,-2.4542847124022287
01-05,-23.692474144497762,7.981793648616028,3.740250113880701,9.669832008209324,1.8527725568389104,3.914736240155008,2.682461103676109,7.785388804276867,8.488846108267603,-5.034443461214078,9.612266470187402,-77.02962092622023,9.0,3.0,-4.169015956485343
01-06,-28.69390288428821,4.86561293654981,4.4134468908734,10.268893756359008,1.9502163726888768,3.914736240155008,2.9219677459072737,11.819012911180947,9.45344642017924,-4.277560660388605,9.547014853085962,-77.02962092622023,9.0,3.0,-4.237228028659794
01-07,-22.905986510099602,4.71276968875525,7.0460682427649965,10.220375218706467,1.9502163726888768,3.5253149998522284,0.9948269081734205,12.534436487253062,7.7813979915736375,-4.186050373154065,9.547014853085962,-75.64454888535717,9.0,3.0,-3.702013750479743
01-08,-27.31201323043872,5.696400680679911,6.25496053570148,10.420647569785784,0.5531514145680375,2.7061744499364977,-0.35798800880061626,13.224356328950288,7.577939113552907,-4.186050373154065,8.798050917568597,-67.7246705289315,8.0,4.0,-3.69575342754845
01-09,-17.054057765651393,6.616203701243782,6.456725223221151,10.420647569785784,-2.9936636399899217,2.5573956330708456,-0.23848808125657545,14.011289059320074,7.577939113552907,-3.747261418883968,9.889914284456395,-61.389866648291814,7.0,5.0,-2.3244352474518943
01-10,-16.370597577172035,5.73131588340121,6.456725223221151,8.497981784435481,-4.265649039999192,1.3612156676270837,-0.3370413270307794,14.011289059320074,7.539568930792866,-4.761479802358169,3.786672437041229,-76.67585701778017,7.0,5.0,-4.585487981541771
01-11,-15.455533074448347,5.73131588340121,7.079746359790082,6.841653047535249,-6.131904362755518,2.6494533829623084,-1.7036739961118417,14.011289059320074,7.637168116424179,-7.389473958559455,4.857086742782932,-57.48933140098739,7.0,5.0,-3.2801836833872096
01-12,-15.455533074448347,7.0304118182270825,6.3937732853327285,6.033103506482703,-5.214865594809917,1.391738408857967,-1.7036739961118417,13.40130561005013,6.667307166301468,-5.574910968244665,5.9062398392673305,-50.76420791155136,7.0,5.0,-2.65744265922056
01-13,-13.069413110704515,4.977587106477047,7.714670547330567,8.269580459282976,-5.214865594809917,1.391738408857967,-2.036320526198426,14.74252925405157,7.22404163171453,-4.226606713212494,7.376455860751354,-50.76420791155136,7.0,5.0,-1.9679008823342248
01-14,-4.029970059897942,4.964429838727278,6.981425436921133,8.042612408659833,-5.214865594809917,-0.2520853517711366,-2.562131988592521,14.116565107132947,8.573878151222639,-4.226606713212494,7.376455860751354,-51.59257270289663,6.0,6.0,-1.485238800647122
01-15,-12.527175831321545,5.641731719357558,8.168665631559604,7.1112027332519565,-4.550885115678907,-0.6173155576852756,-1.4531710337329686,15.996343469757926,9.265383126969878,-4.226606713212494,8.248548037808195,-45.65508286724132,6.0,6.0,-1.216530200013949
01-16,-12.367782764830991,2.755487677113412,13.280514774565429,7.1112027332519565,-4.279723274045317,1.645615759040199,-2.623724551437901,17.156553561599686,9.265383126969878,-4.226606713212494,8.216971182304832,-49.89412195542279,7.0,5.0,-1.1633525370086748
01-17,-7.317064597812037,2.755487677113412,13.280514774565429,7.1112027332519565,-6.002682648635914,2.0572784287217942,-1.1616611040032572,18.14119997760953,9.265383126969878,-4.119304109313814,4.88172410928494,-49.54609896582275,7.0,5.0,-0.8878350498392363
01-18,-0.3293571051368033,2.755487677113412,13.280514774565429,6.050789808551556,-6.3878889620588915,3.3767287480972104,-1.1616611040032572,18.14119997760953,8.115557011397401,-6.102155269802672,7.69567573243389,-50.58612642034735,7.0,5.0,-0.4292695942983779
01-19,-0.3293571051368033,2.755487677113412,13.044846432490756,8.392485030698356,-6.791833095398647,3.68041909612055,-1.1616611040032572,18.14119997760953,7.21355319658411,-9.40328847616836,8.657212512768249,-57.57917180051994,7.0,5.0,-1.1150089714868363
01-20,-0.3293571051368033,3.470948631194494,14.447947512331982,8.96806112700872,-7.572334960308983,3.68041909612055,-1.1616611040032572,16.11803889588446,5.786069399608482,-5.99019645656241,8.92826251828611,-57.57917180051994,7.0,5.0,-0.9360811871747164
01-21,3.7812132733323636,11.12782184342693,14.861640227349481,7.681854568016236,-7.572334960308983,3.68041909612055,-1.5904802453207505,18.73397783313865,4.3237557740216515,-5.406623173815705,8.92826251828611,-57.57917180051994,8.0,4.0,0.08086124614388268
01-22,11.826751111642645,10.460251332236883,13.53399182360111,7.681854568016236,-7.572334960308983,5.173021081049321,-3.4752680064526698,16.96229464763201,4.533335367838542,-5.406623173815705,8.92826251828611,-56.27399779028248,8.0,4.0,0.5309615432869185
01-23,11.429865193063574,9.644965666030922,13.587807909879926,7.681854568016236,-7.102322777532772,5.496559172290915,-1.6011044145686797,18.23566332152328,4.533335367838542,-5.830850285305197,11.260866911514945,-56.98122797110752,8.0,4.0,0.8629510551370139
01-24,9.228973909698446,9.44402580488702,13.587807909879926,7.5041808970263775,-9.299324677226156,5.940850875631746,-1.2983608301378529,18.70985089053848,3.047616141183036,-6.5102573579898895,11.082113748459737,-45.226828520567615,8.0,4.0,1.3508873992819377
01-25,9.228973909698446,9.44402580488702,13.307749552650495,4.791311848095763,-9.707120625228463,4.836362368100651,-0.7473587780984929,18.70985089053848,3.980236482972941,-9.891214695306154,9.527973234697177,-34.98737954534871,8.0,4.0,1.5411175373049293
01-26,9.228973909698446,11.089690238650189,11.74143730106058,7.747428615165467,-5.540901953792267,6.387653862768367,-0.7473587780984929,17.398286653665117,3.9604002421262567,-10.820181137040796,9.257964599288544,-34.98737954534871,8.0,4.0,2.059667834011892
01-27,8.574762229826067,12.39511548037051,11.978181883364206,5.506633890086207,-3.96554002128933,6.387653862768367,0.07517718359994321,16.101616002456634,3.56366787015274,-8.34541412969943,9.747610469016523,-34.98737954534871,9.0,3.0,2.252673764608645
01-28,4.571959723131455,14.079793157650638,12.334104469503961,2.8450377037418746,-3.96554002128933,6.776028207979264,2.8904225937536125,17.651797522981308,3.7997349350026783,-9.41617956668278,9.747610469016523,-36.16204167932789,9.0,3.0,2.096060626288444
01-29,12.430509230260787,14.820727500263025,10.110924851686152,5.362809018115334,-4.752705868435384,3.5586489401463663,1.6514131965720318,14.828078002634356,3.7997349350026783,-9.41617956668278,9.068753725471813,-32.21210518086978,9.0,3.0,2.4375507320137166
01-30,16.72944617409879,14.149720343576947,8.659367242287567,5.362809018115334,-1.903927843591924,1.6771424941091748,2.9225974833864026,15.362144261079573,3.7997349350026783,-8.299780194125086,8.269292585490094,-26.695485160250268,9.0,3.0,3.3360884449316086
01-31,15.046451912383848,14.372034774056985,8.659367242287567,5.246455507129174,-1.188987241972477,3.288076489455607,1.855593464531516,16.31796066817812,5.704314125616407,-7.897130469925356,8.788924019743236,-27.924846229179092,9.0,3.0,3.5223511885254615
02-01,15.63905752252916,14.372034774056985,6.784431271902883,6.165445737695387,-6.938523240862721,6.184694073943738,1.5576224219532122,16.31796066817812,4.283266804275598,-6.9272752241654825,9.186918919457124,-30.768396530520743,9.0,3.0,2.988103099870272
02-02,15.63905752252916,13.767807819607794,7.935989304164392,6.184703398922321,-3.262727082926725,6.184694073943738,1.5576224219532122,18.550294860093814,3.677452983362192,-3.4356303861653275,10.253377730738436,-37.138327005253224,9.0,3.0,3.3261929700808146
02-03,16.741671594556383,15.086768630443327,7.609285413544882,5.861713328929963,-4.93958372085358,6.184694073943738,0.16280651604730834,16.941752828542498,4.222409122320643,0.9727612807828996,10.253377730738436,-37.138327005253224,10.0,2.0,3.4966108161452727
02-04,20.906526267718775,16.526899240370042,6.061933419987361,7.585925729385352,-4.93958372085358,5.988433331158864,-0.3087086872071389,17.035112081329938,4.601871102855443,1.0689981962841837,10.253377730738436,-38.48326642236165,9.0,3.0,3.8581265224505032
02-05,16.846988107477262,16.894583064438827,7.5692539166382575,7.7079352830244225,-4.509064573953616,7.519701140184977,-1.659235910466778,19.766736288050076,4.838096981956845,1.0689981962841837,9.61993179295602,-40.449942032908346,9.0,3.0,3.7678318544735134
02-06,9.423477249909668,18.07982203498187,7.5692539166382575,7.7079352830244225,1.6494789663035148,10.297808008393023,-1.3967006486594005,23.080223785093413,4.838096981956845,-0.6802691284197131,9.617515098584203,-33.27618032811549,9.0,3.0,4.742538434974219
02-07,10.036666199299226,18.17278755398833,7.5692539166382575,7.311876194150926,2.5566743490470447,7.12323215541078,0.10129739019938844,22.762124785396576,4.7523789178757445,-4.0952187967573535,12.522945152508322,-34.58836735895397,10.0,2.0,4.518804204900274
02-08,10.93467175431412,18.17278755398833,6.882108733862896,9.297029098661818,3.2532205291988165,6.3302138398521866,-0.1855183034706332,22.762124785396576,5.894522995734726,-1.31349340415138,10.559533844245946,-37.359386950727604,9.0,3.0,4.602317873075487
02-09,10.93467175431412,16.073199545634857,8.51491746752847,9.142069357816492,3.7638099678037453,6.301584403294686,-0.1855183034706332,21.60765219005428,5.484241130919083,-3.2053688291717006,10.967523571371258,-34.21783035333491,9.0,3.0,4.598412658563314
02-10,15.176955906324608,14.94661921708185,7.523248935439876,10.078210167193332,3.883287205087161,6.301584403294686,-0.8127259921751525,17.159446246847928,6.9160272872519615,-7.762131960325995,10.219477221639275,-34.21783035333491,9.0,3.0,4.117680690360387
02-11,14.016110576877914,15.490385324585418,5.405119378425236,10.705880557789524,3.883287205087161,5.674986865237688,-1.0359466474709105,21.132613554560386,9.032667536361652,-5.654436650740977,10.219477221639275,-35.394690087081145,9.0,3.0,4.456287902939268
02-12,18.785748102762877,14.649321877158982,5.831651895015897,12.565994593434635,5.883569479010955,4.498483495506185,-4.352694159227116,18.490230885402084,8.752720405971067,-5.654436650740977,7.741768541279905,-35.17455274864288,9.0,3.0,4.334817143077634
02-13,17.76061755991059,10.933876182758077,5.459402450486574,12.565994593434635,5.3093750305103065,2.9795834424818834,-7.2085115367773085,17.55173911892489,8.752720405971067,-6.192065698225756,6.613000493701673,-29.89001710073623,9.0,3.0,3.719642911870032
02-14,20.49028738767089,12.156750890441588,5.459402450486574,13.103582380543983,4.091625595432871,1.3422506438783384,-6.83548286472367,17.1431060123938,8.064811179742053,-8.003716797433691,8.955093490360321,-25.1562515894572,9.0,3.0,4.2342882316113215
02-15,22.07615163093443,12.156750890441588,5.608974450412562,14.521952672521332,5.189773269678591,3.32124542078206,-6.157450622188685,17.1431060123938,8.79683784256437,-7.613226940602229,6.8311843209851935,-30.42956018945316,9.0,3.0,4.2871448965391545
02-16,22.07615163093443,12.156750890441588,5.778630206794358,13.496121183028345,7.768107056676643,3.6308227231603865,-6.157450622188685,17.1431060123938,7.347050222033171,-9.709110951416797,7.463826930269282,-24.457660877541127,9.0,3.0,4.711362033715449
02-17,22.07615163093443,13.23694100680809,5.5138917520497515,12.466738296755759,6.5358060839063175,3.6308227231603865,-6.157450622188685,15.757734479066322,6.4772486727495036,-7.93116676221249,5.837012031278205,-24.457660877541127,9.0,3.0,4.415505701230539
02-18,22.610668006761323,11.737959093133144,4.2388165092872665,14.078848622877905,6.5358060839063175,3.6308227231603865,-6.625748373502322,14.222300058925825,5.9102961072037585,-9.166590223563418,5.837012031278205,-24.457660877541127,9.0,3.0,4.046044146827271
02-19,24.05724680250467,12.345678153429608,5.472313788304263,14.199086551026905,6.5358060839063175,2.896595644068784,-4.876418080349907,14.032722860592287,5.677653041676197,-9.166590223563418,5.837012031278205,-31.586473889294403,9.0,3.0,3.7853860636316266
02-20,29.74193942162298,9.347161401749402,3.6840378952763255,14.199086551026905,11.42914985789944,3.2943912885898525,-5.159312390939631,11.671231761914955,5.677653041676197,-9.166590223563418,6.012336539931117,-35.63636432994496,9.0,3.0,3.7578934012699294
02-21,32.09525974904343,8.003559253266946,3.6840378952763255,14.199086551026905,14.578406308248784,3.073155490947976,-6.728948252955433,10.93102082833911,5.677653041676197,-10.156253577641627,6.375924657927401,-36.945757404765246,9.0,3.0,3.7322620450325625
02-22,32.331809890705145,8.003559253266946,3.6840378952763255,14.365666357173247,12.809691543407064,3.5555312348901142,-6.503040865998286,10.93102082833911,6.442808144852552,-8.890976455645793,4.1706066178846415,-30.587969895567962,9.0,3.0,4.192728712381927
02-23,32.331809890705145,8.922484584032347,4.089090092380438,12.747233324606734,14.958881338168506,5.142397573826502,-6.503040865998286,12.634675434205937,7.199709895302843,-10.592223045828735,1.8696482673122299,-29.808550317143954,9.0,3.0,4.416009680964142
02-24,29.283694042178773,4.092666449233832,4.9120505270351,14.246962712387461,16.01134229445411,5.142397573826502,-6.62913804026025,11.880642206979045,4.721942942148671,-10.170602215113306,1.4909638644911896,-29.808550317143954,9.0,3.0,3.7645310033514328
02-25,26.869426304592892,4.279666880474695,4.217789795801694,12.740587196184313,16.01134229445411,4.010265170782269,-4.784133356291735,10.433012350729848,5.006955588575787,-9.789813571954847,1.4909638644911896,-23.457199871400032,9.0,3.0,3.9190718872033483
02-26,29.69588623467553,8.272463445088599,3.70451249847462,12.271096564482427,14.477250742702921,1.6048471143645782,-2.9644152786142928,8.63737766979095,5.006955588575787,-9.789813571954847,2.2364457967367843,-20.728193449561985,9.0,3.0,4.3687011128967566
02-27,28.66330084328113,6.096641906450508,1.7890883971225846,12.271096564482427,12.51299034300652,1.4901804234279148,-3.5411089547873886,11.220458200104284,5.006955588575787,-7.716015199777526,0.6289857386146931,-12.622301105930381,9.0,3.0,4.650022728714212
02-28,31.242843076760806,7.776461219687987,1.7890883971225846,12.280537885985133,12.632193994612846,0.7973503378420257,-5.884445245594858,10.137776554902876,5.025496750698476,-5.9655091835304015,0.2405529652576372,-15.51647761934535,9.0,3.0,4.546322427866647
02-29,0.0,0.0,0.0,13.69526425536051,0.0,0.0,0.0,10.137776554902876,0.0,0.0,0.0,-20.175739882824406,2.0,1.0,0.3047750772865818
03-01,28.288371083264767,7.776461219687987,2.50027786799833,11.911777249246128,12.009665393225283,0.3388449822598149,-5.4569668965504174,7.298451379193131,3.8805120086287563,-10.634272899255755,-1.3573052909936798,-25.011871117207303,8.0,4.0,2.628662081624753
03-02,28.288371083264767,7.45121372117969,1.8949916013725936,10.298683537354773,13.532301225101442,-0.25437525753476464,-5.4569668965504174,7.5914003115495845,4.424949002641157,-7.070019124980996,0.17927299445945644,-25.011871117207303,8.0,4.0,2.988995923387498
03-03,28.86130419848009,5.7502249517536175,-1.435511049557,10.33470104428924,13.34441408571408,-0.25437525753476464,-4.055013148689795,5.998120037050113,5.482501958043983,-9.443854675545976,0.5181363394719265,-23.919755504344746,7.0,5.0,2.598407748260898
03-04,27.092666381651238,3.3492035844676815,0.056424114430239126,9.955771256430435,13.34441408571408,-1.846766853835766,-2.858388635883616,5.242238911208692,5.781590636010628,-8.946861967372435,0.5181363394719265,-25.578687392729663,8.0,4.0,2.1758117049636203
03-05,32.51185064610756,4.28009938520606,-0.11438855664105554,9.955771256430435,12.941777875643453,-2.522729425134956,-1.6184721835959652,3.401550618618332,4.0576472056113815,-8.946861967372435,1.0630716593285259,-18.09710502565748,7.0,5.0,3.0760176240453205
03-06,33.25771584798951,3.1692794505626725,1.7512406330513108,11.144959545838454,12.921893737814669,-2.4467643142726305,-0.4503566353037631,2.8386095125405624,4.0576472056113815,-11.17874366649683,2.098826740717469,-10.451822137836958,8.0,4.0,3.8927071600179866
03-07,33.94536475416172,1.2585478023763976,1.7512406330513108,8.396555943838703,14.712915925453649,-2.0557101490020333,-1.000038148630381,2.8386095125405624,4.455825206728883,-10.161854811626084,1.7267606362547994,-4.494746177364023,8.0,4.0,4.28112259398196
03-08,35.164835164835175,1.2585478023763976,0.28064660402021463,4.735542469046052,12.555712165566705,-2.3557670564861355,-1.4676978630362838,4.586894709478479,-1.3663558684370665,-9.957127090523224,-1.7542225980347832,-1.4793268360680012,6.0,6.0,3.35014013356146
03-09,35.164835164835175,2.2218773952991273,0.9895392447971828,6.80129014485962,13.313202049251306,-1.5874650869198426,-1.4676978630362838,3.180614000155708,3.5603887681419715,-12.01561734100452,-2.110094542897076,-1.4793268360680012,7.0,5.0,3.880962091451196
03-10,28.15384917206817,-3.4762822318209325,1.8171562158551031,6.2160040958610425,12.548399802928698,-1.5874650869198426,0.5503841991644958,3.1070477834565047,4.068785853745895,-13.243877121341207,-2.5995571603602605,-6.240239219158197,7.0,5.0,2.442850525289955
03-11,27.67033000568767,-0.9570941170235236,-0.9693010643823676,7.64881595282128,12.548399802928698,-0.1724381706385668,1.6380553531536963,1.3342085547999916,3.767569595167297,-13.387206817801127,-2.5995571603602605,-1.0209432011077129,6.0,6.0,2.958403227770422
03-12,22.00771949888236,-4.274345741897566,-2.222734814304196,7.64881595282128,11.685181406224014,-0.02029139589867706,-0.20503478142614665,2.8025280369269487,3.983544079835398,-13.387206817801127,-2.4612814217567567,5.45798192437584,6.0,6.0,2.584572993831781
03-13,26.058706676626077,-3.648339116893309,-0.5839854530434495,6.438497318131664,10.174546790729512,0.7333854833939152,0.5584880516872084,3.3050238562969168,3.983544079835398,-13.007497545943684,-2.6272109014817193,2.0690349942351194,8.0,4.0,2.7878495194644706
03-14,26.832522674867054,-4.251531243887296,-0.5839854530434495,7.063494574425879,9.326791295350176,2.152267306728592,-1.482004495527826,3.3050238562969168,4.871889812539774,-12.004675241905144,-2.677401814755986,17.580001831054688,7.0,5.0,4.177699425178614
03-15,24.811692321034673,-4.251531243887296,0.6068919823478197,10.134354959567867,9.902441240819844,1.0902425078512064,-0.4102306205420699,3.2865561010187623,2.7118023748576707,-11.49268173589939,-2.116008147839327,19.472399220616527,8.0,4.0,4.478827413328859
03-16,24.811692321034673,-4.49401673434784,2.072604087985534,9.294440723900733,10.315893687567158,2.142318744635612,-0.4102306205420699,1.5786549938056953,3.0773555353392745,-11.15086906107168,-3.1996974641045552,19.472399220616527,8.0,4.0,4.459212119568257
03-17,22.46062507221672,-6.530877587562285,-0.06889229510848938,10.123691288414564,10.184595403170992,2.142318744635612,0.8204612410841399,-1.578462976608715,2.564341714640292,-12.054632021785755,-3.517444142873688,19.276986831150502,7.0,5.0,3.6518926059478236
03-18,20.639597284253952,0.5377146932136948,0.3872482408511137,7.627618706057401,10.184595403170992,1.1435671840862982,0.07832561519170356,-0.2762459078940981,0.8546239983285264,-11.623780814408343,-3.517444142873688,28.95557423756228,9.0,3.0,4.582616208128318
03-19,21.070390126771127,-1.3422828382205159,0.1578347175481069,7.627618706057401,10.331005955298258,2.9054708148709576,1.1883442823872614,-1.123698997997213,0.7427612927734943,-11.623780814408343,-3.4707979194915937,24.69755194509417,8.0,4.0,4.263368105890258
03-20,24.609039108931807,-4.700995200459472,-2.0746834693905725,8.14590422163055,9.788243420592798,3.407566636768694,-0.013098187773114871,-0.8427449568665079,0.7427612927734943,-12.244896117102295,-3.338308375949877,22.878979295239407,6.0,6.0,3.863147305699576
03-21,18.91299773417187,-1.158658985176251,-2.0746834693905725,8.99072199560882,10.62431303910754,3.5634886811732125,0.7973745122535597,-0.8427449568665079,1.7675792051800692,-12.911215830071635,-7.634971569296807,32.57068241856639,7.0,5.0,4.3837402312716405
03-22,17.04035590613518,-1.158658985176251,-1.5329577788296969,6.063055836205471,12.356580020861086,4.218716267766179,1.5478989227158508,-1.7225346574668332,4.497987813657146,-9.116748581127851,1.0113159679307764,35.08237840088902,8.0,4.0,5.690615761130007
03-23,17.04035590613518,-2.039239342450654,-2.448648781696253,4.213966716423816,12.809324356390311,5.224170442754129,1.5478989227158508,-0.8687638335663753,5.252667558904633,-6.8827521534250895,4.162565181262491,35.08237840088902,8.0,4.0,6.091160281194756
03-24,17.959638106671598,-2.2983133860925773,-4.415400902537696,3.61652114245619,10.73405261275852,5.224170442754129,1.956606762259394,-1.1888165701353737,4.217423098083343,-9.200000297732467,4.708501101355914,26.53115792662187,8.0,4.0,4.820461669705237
03-25,18.044442070855037,-4.693318470481134,-6.3495886613224615,6.286213584084457,10.73405261275852,5.390957255106579,2.7582276700395814,-1.1838686152247062,4.20741619685725,-7.6974886717108895,4.708501101355914,22.867173356770788,8.0,4.0,4.589393285757411
03-26,14.05417784721325,-9.170520811436273,-4.318390447086259,6.286213584084457,10.634050018591529,6.271223537848934,3.2060541812137835,-1.5124848599662355,3.7366702237495955,-7.6974886717108895,3.5514000159853976,21.228605054723413,8.0,4.0,3.8557924727675585
03-27,16.911270091757718,-5.84258974039859,-5.837774402996469,5.96208608229345,11.800096251312963,7.514758428186072,2.2533973047400178,1.397021599817032,3.7366702237495955,-7.678248180026403,2.5754456923022384,25.04409271934425,9.0,3.0,4.819685505840159
03-28,19.002639364876377,-6.218708283487893,-5.837774402996469,7.6038242469561625,13.542470936941072,6.9718702204694525,2.076333481716876,1.397021599817032,2.6703730126700296,-6.6737851655968665,1.9913998470105243,22.886376251177587,9.0,3.0,4.951003425796157
03-29,18.519339377050247,-6.218708283487893,-7.270573844320595,7.706402237896852,13.035586992552798,5.996110862441128,3.186992942053453,0.34249415400636407,1.9922179043342343,-7.153141468165061,1.3287845538741705,21.203230513995468,9.0,3.0,4.389061328519264
03-30,18.519339377050247,-6.687131666208135,-12.514658575654893,6.0415810984966365,11.678730050815087,5.904668788548665,3.186992942053453,-1.3311611125968883,4.275445224410592,-4.166267505378859,2.2507465021494517,21.203230513995468,8.0,4.0,4.030126303140069
03-31,18.45303530192507,-3.2849049922290305,-13.197002013521562,6.212195032081183,11.1228841507627,5.904668788548665,2.734177791605534,-2.0596851373119933,4.594150705133667,-4.568727337683948,2.3677209108867268,23.330889790724115,8.0,4.0,4.30078358257676
04-01,13.157314503529117,-2.6551424098711505,-13.430346646069241,4.1507243694726,11.1228841507627,4.3579797898235455,4.07282300763709,-5.03296317770474,5.816973990787423,-4.801547858607012,2.3677209108867268,19.75692913950604,8.0,4.0,3.2402791475127586
04-02,6.8247324576970545,-4.448257355542528,-12.853798671075475,4.1507243694726,11.434246343677671,3.1044342604258084,4.145765560105172,-4.7721334730773135,5.757845891430772,-4.801547858607012,2.350628301747874,20.564788410226463,8.0,4.0,2.6214523530400906
04-03,-1.3187854413178903,-2.0433002447036896,-14.910082721279695,6.113240244392159,14.523090378865492,3.3778866260119207,2.876201755216796,-5.224160149445108,5.757845891430772,-6.660210116325736,1.9929875614312744,22.0639508879891,7.0,5.0,2.2123887226887833
04-04,-2.786163852895636,-0.5710809260438334,-14.910082721279695,7.704406252654562,12.955865369135624,2.590882501689763,3.353447749696929,-5.224160149445108,6.035877450164659,-6.569836370915098,1.3299039134898034,17.306228057571193,7.0,5.0,1.7679406061519305
04-05,-2.382050738471194,-0.5710809260438334,-14.743357238829756,7.537928288965774,15.617196071675545,4.661491994805486,3.908457727059012,-4.5113463090282515,5.677326367364395,-5.968875573607331,-0.026101783013328703,17.39296749828544,6.0,6.0,2.2160462815968294
04-06,-2.382050738471194,-1.5930230598274544,-14.623710572466733,10.049626743627584,16.043947883299943,5.167242596837738,3.908457727059012,-4.786838809280899,5.298674725620462,-4.180951799665179,0.2441565909938684,17.39296749828544,7.0,5.0,2.5448748988343826
04-07,1.0175819248993416,-1.9498083656721548,-13.356931793302913,11.235637851655051,14.736979626740146,5.167242596837738,3.61704061621078,-2.246256515363977,4.554043318151449,-5.262655816265008,1.0894017779140448,13.14008395898562,8.0,4.0,2.6451965983991768
04-08,0.16301745939199552,-1.905185378482499,-11.600135780538498,11.118446636868091,14.736979626740146,5.447220657877993,4.027667613546583,-3.1451795975828567,4.5044213023606625,-4.251475410549811,1.0894017779140448,10.60141724664046,8.0,4.0,2.565549679515525
04-09,-5.021021815044018,-2.7989864016115256,-8.218395997476987,11.118446636868091,13.958620048031982,3.7053433392705606,2.6683757897528846,-3.349993363287968,4.418141828844722,-4.251475410549811,1.1931565269910107,6.315081926985547,7.0,5.0,1.6447744257312076
04-10,-8.329335653895061,-5.111379962351255,-8.206068786114953,13.15541725499366,10.274518910456589,7.141809692168842,2.8941340627388423,-3.5896510845190583,4.418141828844722,-4.964810016174549,0.2517587545628004,9.636344207790357,7.0,5.0,1.464239934041745
04-11,-8.72079714034622,-5.821814138803653,-8.206068786114953,7.693807258636777,7.582265781677361,8.098051665303826,2.9546053931285914,-3.5896510845190583,4.174198350057272,-4.774684162825758,1.3354036838400458,9.653777510408467,7.0,5.0,0.8649245275368918
04-12,-5.026762359902872,-5.821814138803653,-6.8611857978478215,7.064018080324584,7.1107125692564725,7.127026206818183,2.6913647697755687,-4.75837584545384,4.983270463451391,-4.382472801012621,1.1120641871591614,8.04868194867083,7.0,5.0,0.9405439402029484
04-13,-5.026762359902872,-6.497701161414201,-6.045275689799928,5.536366830136838,11.087058909990072,7.781094325390186,2.6913647697755687,-2.7063496701977825,5.655946981360579,-4.6522684437762765,-0.1720173590876643,8.04868194867083,6.0,6.0,1.3083449234287792
04-14,-2.6995573992518684,-10.141025929302797,-6.115183544877748,5.775957821405691,11.785233260801174,7.781094325390186,3.382213971757853,-11.466950641836812,4.899837863317902,-5.61277020621641,-0.8136436002236846,8.92225813010185,6.0,6.0,0.4747886709221111
04-15,-1.3686096533594003,-10.77045673045604,-6.5432411468622504,6.358718223421666,11.785233260801174,7.79576580732777,3.4864921029544504,-16.881138535391294,4.615801043284678,-6.336215387728716,-0.8136436002236846,13.904829962935409,6.0,6.0,0.43612794555864703
04-16,-5.829701476516366,-9.969795409940751,-3.3122318963375195,6.358718223421666,9.697984529021603,5.405270436009838,3.927634990532272,-15.105412500189672,5.113892428902622,-6.336215387728716,-2.4842056408783932,12.962598338444245,6.0,6.0,0.03571138622840205
04-17,-3.2603745674328186,-15.081962210233094,-2.5241193800830177,4.9671500312128325,11.158830449593165,2.2494468361886573,1.4567777029524722,-12.937849948885512,5.113892428902622,-7.582533702238617,-1.2943308377771754,10.227058527158412,6.0,6.0,-0.625667889220173
04-18,1.6173186207097907,-16.205921412942146,-2.5241193800830177,4.859902202219203,3.934164074552017,6.476326912031971,0.7670893248331735,-12.937849948885512,5.69911033442603,-7.0658353522987625,-2.6989988437914305,14.105222919892938,7.0,5.0,-0.33113254577797885
04-19,1.6173186207097907,-16.205921412942146,-4.48732334236981,4.824729187775053,4.614663157405652,5.8986916059638,0.7670893248331735,-13.718416900229563,4.240767406447725,-5.69747984329917,1.171709872570522,14.105222919892938,8.0,4.0,-0.23907911693683614
04-20,1.6173186207097907,-16.553557093123633,-6.057888223977251,4.551452794991803,3.2942598418365483,5.8986916059638,0.7670893248331735,-13.250075240615507,2.991334914411971,-4.955171332600624,1.171709872570522,14.105222919892938,8.0,4.0,-0.5349676662588724
04-21,0.5922599708275599,-16.685975901039892,-4.240553403786395,3.5243504484874486,3.709416897890678,5.8986916059638,1.0416663895646483,-5.866539146265271,3.655871841157615,-6.038173870096554,0.7197887208743704,17.018664753779017,8.0,4.0,0.2774556922797517
04-22,-0.6852513936105474,-15.069616507635551,-1.7201979937973062,3.689926791127352,3.709416897890678,5.984870230523438,2.832620645285676,-8.295068959816113,2.3505998189803554,-6.745095346488204,0.7197887208743704,15.30794453491074,7.0,5.0,0.1733281198537404
04-23,-3.0842210913382386,-17.66550602964014,-2.1204530404459656,3.689926791127352,2.8709409221413846,5.765443160479012,2.562333816640202,-9.693128884887264,2.412358295612016,-6.745095346488204,0.3979961096482738,17.007429268965222,7.0,5.0,-0.3834980023488628
04-24,-5.671777314610991,-16.776749697850914,-0.9944850802084306,2.745992876467311,3.0817572853859785,7.446711497224362,2.9930492966937674,-9.352235737841056,2.412358295612016,-3.696075140261183,2.0490446791124635,15.598834927269053,7.0,5.0,-0.013631176083968612
04-25,-5.790485125567428,-12.129382531940456,-0.9944850802084306,1.2513031771304757,3.6150075928544174,7.3903487831925165,4.028328354931164,-9.352235737841056,-0.12649023243803756,-4.931426724268436,2.060020620579716,11.455449528408835,6.0,6.0,-0.2936706145972261
04-26,-5.284550694882413,-12.129382531940456,-1.5782067352270277,0.33153213520209296,5.416696001555851,7.412960157074032,2.365159556545316,-10.274838987694867,-0.3907317521595589,-4.563103833244842,-1.2287337505791045,9.83375702137893,5.0,7.0,-0.8407869511643368
04-27,-5.284550694882413,-9.338828949022169,-0.2463272151370713,-2.2153437696441034,6.075509219318897,7.867387896877551,2.365159556545316,-9.667086482072293,-0.26126208606067003,-3.8972316427234936,-1.0091410594342587,9.83375702137893,4.0,8.0,-0.4814965170713149
04-28,-3.3955093113458874,-8.824899873844846,-2.1927883009549247,-3.035048455693714,5.780562292855134,7.867387896877551,2.4049524822279293,-6.066588569183548,1.0272184038204444,-1.030528788369192,-1.4730065802782042,14.0696939843941,5.0,7.0,0.4276204317087372
04-29,-4.773208958441813,-10.244498353163028,-4.874267962229804,-4.3219674157989125,5.780562292855134,7.131174478835497,1.3805045397742477,-3.5456324525429617,1.3607300348021942,-2.053009400884789,-1.4730065802782042,8.755238311118687,5.0,7.0,-0.5731151221628127
04-30,-5.030998281930877,-10.332399017580864,-4.763493435706195,-4.3219674157989125,5.703662060638727,6.639666480055088,3.58572906167811,-2.336707439593372,2.1280376710917706,-2.053009400884789,-1.8109316970559963,15.143870465084436,5.0,7.0,0.21262158749976048
05-01,-1.0328225065214076,-9.107602604434414,-4.670295712209025,-6.1062686655660725,8.118712858419332,7.397971196440755,3.6514179164086,-1.6168782527899177,2.1280376710917706,-3.055419921875,0.4568954993938578,19.546532995318643,6.0,6.0,1.3091900394730935
05-02,-5.3704937106768735,-10.477375213808116,-4.670295712209025,-6.487183133050998,5.864452070345797,6.158955949353938,4.332115631546628,-1.6168782527899177,2.119094415943361,-1.8008501661509382,0.23923340490996906,22.278910774873857,6.0,6.0,0.8808071715239736
05-03,-0.8676822974374998,-10.477375213808116,-2.412985835184548,-3.735243610547967,3.0001952666166884,4.704221776510254,3.8168950582616894,-0.027403653021245776,2.846979122949524,-0.932783191296782,0.06796519554577135,24.900536439728146,6.0,6.0,1.7402765881929927
05-04,-0.8676822974374998,-6.122140085481861,-2.193332400612146,-3.4661715565735713,1.9891513200074815,4.810726575377894,3.8168950582616894,0.03682308435857495,2.5797904107982443,-3.936698907074544,1.323714534401384,24.900536439728146,7.0,5.0,1.905967681312816
05-05,0.7158308617790325,-4.442728814818411,-0.6356637743543773,-2.660140541173418,3.2513107762789737,4.810726575377894,5.291504756175371,0.6314586192087173,2.1246472603847666,-0.7589369078552145,0.2744187403732953,23.655081693313786,8.0,4.0,2.6881257703908683
05-06,6.778973252600392,-3.6663479812580246,-1.8938116587917315,-2.6010164324515586,3.2513107762789737,5.014817241905757,0.710962413803432,0.9057689529022759,4.001767831067435,0.5058556585736241,0.2744187403732953,22.956792117007343,9.0,3.0,3.0199575760009347
05-07,11.763522335567579,-2.6387761052033945,-2.2859714974909946,-2.6010164324515586,2.320540211325376,4.313910248785853,-0.5858665128959284,0.8673139286152494,4.55105478731417,0.5058556585736241,1.8437539787544164,19.234892001580704,8.0,4.0,3.107434383539592
05-08,11.357778901057188,-3.790218086905697,-2.1600451462064405,-2.2267008738472067,3.0375003814697266,6.332619460369711,-3.3152937323817597,2.3539001787010427,4.55105478731417,0.06557348461285127,2.5470114161825586,15.915528046307266,8.0,4.0,2.889059068056117
05-09,13.662501185710475,-3.533940089946789,-2.1600451462064405,5.3769173743243615,3.2922878691862776,5.8107807821856285,-5.041125475656196,2.3539001787010427,5.061619786297701,-0.6203625020168879,3.9400942886928823,17.919394369041612,8.0,4.0,3.8385018850261385
05-10,14.206894747729368,-3.533940089946789,-2.7196422458581178,7.1321872867949425,3.5059105957022623,5.092569091028325,-5.157743331037951,1.1814918084029706,-1.0588429914661162,-1.0571434384300595,4.027361442819986,19.036534812084145,7.0,5.0,3.3879698073185813
05-11,14.206894747729368,-2.5154277417487747,-0.011107475509076377,5.0203138226580135,3.7202274789754166,5.182822511063728,-5.157743331037951,1.0774456288816188,-1.024721547189816,3.811898493762764,6.481169421494229,19.036534812084145,8.0,4.0,4.152358901763638
05-12,13.911332755253234,-2.48484756007339,-0.8657483943444692,5.0110491289165315,2.46370962062365,5.182822511063728,-3.8440249324302,0.14863321861719653,-1.6415251607862873,2.9042920720629204,5.800168130926872,21.534744794089352,8.0,4.0,4.0100505153265935
05-13,20.16390620337956,1.2860350731096724,0.09034650287694077,4.065490002824204,2.46370962062365,5.981647081494456,-6.693174172732878,-0.10319975056839313,-0.8122516493552803,5.77415595633149,5.800168130926872,23.99170218170529,9.0,3.0,5.167377931717964
05-14,19.31126571666482,4.560118401048873,-2.3443890686516897,4.065490002824204,0.17188965451587976,6.408916503213378,-10.7990329548464,-1.3113539695254433,-1.1522279690244437,5.77415595633149,5.537680779022564,22.24131411079184,8.0,4.0,4.371985596863756
05-15,20.090892509837417,3.895349107992966,-4.258826760684743,4.93999224497476,1.4237980014283065,6.817633249038756,-13.145814205203965,-1.9511805030380944,-1.1522279690244437,5.7192533581763385,5.248008278545361,21.14669734020475,8.0,4.0,4.06446455435395
05-16,16.117978171220308,3.951182068572345,-4.258826760684743,5.98725229229004,0.9929333285808452,6.37849124233834,-7.991955027387187,-1.9511805030380944,-0.6182704094701406,6.470272388542313,4.25640509457758,15.40799693756193,8.0,4.0,3.728523235258628
05-17,15.03469367091884,3.951182068572345,-2.847056669347426,10.478174141174891,1.445679628669028,4.366072475338177,-6.35073838302231,-0.8671937318290383,0.6311805551712308,4.596124513054463,5.6235781853817235,16.810075692767793,9.0,3.0,4.4059810122374765
05-18,15.03469367091884,4.662985553800534,-5.3577748264820375,12.100189714085698,2.4774948261762937,4.1040941594879765,-6.35073838302231,-0.862719002421255,0.6036021852462776,4.364863321278372,9.431742860670234,16.810075692767793,9.0,3.0,4.751542481042201
05-19,13.916732983917464,6.480672921026012,-5.61758138761113,9.062669698443752,2.106709568299153,4.1040941594879765,-5.917843851724823,-0.888167618476935,-1.406178961457096,5.087660126962609,8.220463051412072,15.569243611306513,8.0,4.0,4.2265395251321305
05-20,16.3756660033071,11.386209455045767,-4.946366448633307,7.884505677918953,2.106709568299153,4.275297435556002,-5.478252744863181,-1.4712916236433533,-1.2463110560240425,4.2832447223649295,8.220463051412072,11.28465751280321,8.0,4.0,4.3895442961286095
05-21,19.945456764914773,11.853211184357253,-6.045034713184438,7.884505677918953,0.9349289311733896,0.5999205675260262,-5.752907149252516,-2.6424899211646418,-0.19772063485815156,4.2832447223649295,7.147115966667494,11.667445434237989,8.0,4.0,4.139806402558421
05-22,21.453711179479964,12.125104642675295,-4.864477616349652,8.14361986043136,3.201027052663917,1.0282742539487375,-6.23435459617079,-2.0128423629491508,-0.19772063485815156,6.27905477832796,6.215954807494812,10.430245143152751,8.0,4.0,4.630633042320588
05-23,21.072931740594704,13.191307613475141,-4.864477616349652,6.354511684016617,3.3875338626041724,0.8772777139227212,-6.4013512635799685,-2.0128423629491508,-0.4613481480023536,6.046469656791003,6.437767007094794,7.227016281066921,8.0,4.0,4.2378996807237455
05-24,21.16967260265884,13.191307613475141,-3.981124080138186,4.578754706714748,3.125577600636705,0.0454122363305435,-6.351444324099612,-3.2876452074927633,-2.168724861155513,7.6160407216451596,2.8929335895442088,10.442417409722934,8.0,4.0,3.939431500653517
05-25,21.16967260265884,12.217827833362735,-12.422761956703972,6.11465070737121,2.533760614722566,0.387150824487867,-6.351444324099612,-4.053795660479478,-1.8093529066059977,6.272659706388644,3.12669049895675,10.442417409722934,8.0,4.0,3.135622945815208
05-26,21.16967260265884,11.943059629392796,-11.838728230435937,5.756813452472845,2.3340955939618047,0.387150824487867,-6.351444324099612,-3.1312808900799536,-1.9973354444662943,8.1120391444282,4.740384941687116,10.442417409722934,8.0,4.0,3.4639037258108836
05-27,21.990738083469196,6.4126621397099495,-20.356417717264144,5.409055983454424,2.3340955939618047,0.387150824487867,-8.89649338637144,-3.9433336378372976,-2.9787251311440515,7.514873303865131,4.740384941687116,8.156859088427035,8.0,4.0,1.7309041738704654
05-28,21.54804349813708,8.16969646337032,-14.732893221236855,5.409055983454424,2.3340955939618047,-1.4848938612529776,-10.575448120483353,-3.1714069861918706,-3.0086103586317217,7.514873303865131,4.740384941687116,9.73529134109003,7.0,5.0,2.2065157148140933
05-29,19.27754384183984,9.806743267229514,-21.407062568138247,5.409055983454424,2.9228175703025854,-0.3895708593254277,-7.349215870571807,-2.8560490916436816,-3.0086103586317217,7.514873303865131,8.118303554931543,12.156557762671774,7.0,5.0,2.516282211331994
05-30,16.518586325109588,6.726326518954919,-21.407062568138247,8.179941084387869,3.3273577843887554,-1.2200060367136376,-9.678187312626433,-2.8560490916436816,-3.0086103586317217,7.123888695648772,7.0146569312780285,14.492511151891534,7.0,5.0,2.101112760325479
05-31,17.089857864912588,6.726326518954919,-21.407062568138247,6.659445293034636,4.791121794344355,-1.4032992877702255,-10.07882412129586,-2.8560490916436816,-4.963977783878148,6.0859863867915625,7.019103786470777,14.5631832616668,7.0,5.0,1.8521510044541232
06-01,17.089857864912588,6.726326518954919,-15.818979969046516,10.150717602261526,4.681737143255715,-0.1584116295829715,-10.07882412129586,-3.093379376786113,-8.368907003114396,3.8367266445811232,4.695373357983428,14.5631832616668,7.0,5.0,2.0187850244825203
06-02,17.828197242591397,3.171271751050511,-14.801493434207499,9.872793494140916,4.452790506226812,-0.1584116295829715,-9.703932845486241,-4.048465401439762,-7.663807329813019,4.136638495147784,2.2137565000751724,11.133152705622717,7.0,5.0,1.3693741711938179
06-03,20.21467395940316,3.5439580163527467,-10.845728609640977,10.655216695231866,4.452790506226812,0.143553930012606,-11.084820784027915,-3.0729457329181646,-5.265201127258949,4.297859036331116,2.2137565000751724,6.0011761635645655,8.0,4.0,1.7711907127793365
06-04,17.55221969524358,7.096678798829816,-11.835108892364055,10.655216695231866,5.425877824431355,-1.136078386130846,-9.250244002180828,-4.312591562854029,-4.453444034815751,4.297859036331116,-1.3518398178802218,6.606152621102207,6.0,6.0,1.6078914979120178
06-05,14.970738384798016,10.658396270584246,-11.686580432559294,9.540347630714995,5.530011049335084,-0.4350569068254319,-9.644158928787952,-4.3730153188879335,-4.453444034815751,4.232457097040653,-2.4904174960205285,4.179281279202868,6.0,6.0,1.3357132161482481
06-06,16.355051411960282,10.007434263548443,-11.686580432559294,7.479101498055593,4.615670744977994,-0.5692635711825828,-9.065700855503412,-4.3730153188879335,-4.472719765949528,3.679333794773816,-2.0502137084893275,4.45698947401982,6.0,6.0,1.198007294563656
06-07,17.106493238711515,10.007434263548443,-13.784856351577075,6.956914438952666,1.2052799050278786,-0.2345676176931855,-11.268295660251525,-4.035138964134553,-5.0350585835406445,4.916068918161408,-2.123270971931662,4.4167210811927315,6.0,6.0,0.677310308038833
06-08,17.106493238711515,7.6133813113528115,-19.940338809680156,5.020156809353207,2.9565307367124136,-0.5047034349546644,-11.268295660251525,-6.919148633947197,-5.720999444686518,5.085210662852039,-3.708065480262418,4.4167210811927315,6.0,6.0,-0.4885881353006463
06-09,14.804416624055051,5.610606336247987,-23.78049584199089,5.127014118958638,3.041918370513625,-0.5047034349546644,-11.829268292682926,-5.442563511447479,-7.364001328717297,6.436803572215982,-3.333335630651834,6.085638282069214,6.0,6.0,-0.9289975613653828
06-10,14.863596047184252,3.1804308601302202,-22.004638282162308,8.18550537369055,3.041918370513625,-0.8428073330413866,-16.090917445553192,-3.830433242434692,-5.356799717886099,6.0307398381257675,-3.333335630651834,7.780782403972965,6.0,6.0,-0.6979965631760111
06-11,16.681940607505407,0.3537968764431273,-17.852118438575868,8.18550537369055,4.53146042750886,-0.2535616675531913,-20.352848316474915,-1.17437051045551,-6.281966909939056,6.0307398381257675,-5.555557087101223,15.79125879069422,6.0,6.0,0.008689915322347344
06-12,16.657433432301772,0.2180336266073742,-16.622613784529936,6.213418582854946,5.744612737349688,0.4742122738847787,-26.409058421429854,-1.2219222287957834,-6.281966909939056,6.392404875555675,-6.257946852985584,16.063763035596658,7.0,5.0,-0.4191358027941095
06-13,18.99060821408511,1.6426154511052318,-16.622613784529936,6.496003615404868,4.2961051434362805,0.9503910661316064,-26.776492516490134,-1.2219222287957834,-7.661876533673621,5.894136639492436,-9.733435946564446,13.870808536898998,7.0,5.0,-0.8229726952916163
06-14,18.161521829913198,1.6426154511052318,-18.931702219921405,6.770498659036947,4.018220671198192,1.6661834396691402,-23.984964765882072,-0.6485594937162732,-7.511330618354671,6.020614262111974,-8.752454085168164,13.964152085162235,7.0,5.0,-0.6321003987371392
06-15,18.161521829913198,-0.6754719765566529,-18.134495016313892,4.790636309515714,1.0458886624852657,1.0816610608486203,-23.984964765882072,0.1217772865742096,-7.3274184194707574,5.1741205274106585,-7.001206951563681,13.964152085162235,7.0,5.0,-1.0653166139897627
06-16,19.854859788584573,-1.8677299853076923,-16.27039655557182,3.7744518627872057,-0.2247086003205169,1.0816610608486203,-24.59720934608221,-1.1442071720781621,-6.7306788608050505,4.432513538581424,-5.411356133115198,12.663605834492955,5.0,7.0,-1.2032662139988226
06-17,21.65246828337305,1.400886487909911,-12.26652854453807,4.493665432792377,-0.2247086003205169,1.3301553855293835,-22.56539045763863,-0.5390351666168322,-6.9805507003601965,5.964538280209081,-5.411356133115198,13.179897382465226,6.0,6.0,0.0028368041407995648
06-18,23.239185411408013,-1.8020773437404425,-11.702401353818445,4.493665432792377,-0.5200390639120516,0.8039412936618705,-22.57829238417982,-1.0626392641872746,-7.032080939639223,5.964538280209081,-5.182061441013016,14.493943808998251,5.0,7.0,-0.07369313028505638
06-19,22.707583907156053,-1.4886764397396062,-11.541982491141374,3.2175725173226066,1.0207989175428764,1.0806080579833977,-23.09791365805725,-2.3989431256292826,-7.032080939639223,6.7436917085169625,-6.080899712961784,13.853820675899714,6.0,6.0,-0.2513683818955761
06-20,22.965979221750995,1.9806426510890915,-11.541982491141374,3.3451811134548906,3.9119025000615473,0.6266362004800003,-29.359606067669677,-2.3989431256292826,-6.71419071825816,5.839158211198798,-4.585076338971216,16.39516276697959,7.0,5.0,0.03873866027876597
06-21,22.75171590641748,1.9806426510890915,-14.544989622269744,5.594985541843492,4.679605981179362,0.39963317630590217,-26.34448809070504,-2.0589349846298832,-6.6178623525199285,5.747334538114844,-4.765771943013746,17.709163830372606,7.0,5.0,0.3775862193487029
06-22,22.75171590641748,3.843900536699221,-14.558038985520588,5.299031430235524,6.698055841477872,-0.4127137733644352,-26.34448809070504,-1.8228186203636096,-5.991180999121583,4.631809936834219,-5.858916239086418,17.709163830372606,6.0,6.0,0.4954600644896041
06-23,23.02985706167445,4.489443989994032,-15.966951288608112,6.323376586553674,7.713608643075673,-0.4127137733644352,-26.472792108825693,-4.944326946397206,-5.822740396328786,4.341096434563325,-4.824251295515972,17.693284903616068,6.0,6.0,0.4289076508697517
06-24,20.322638647233237,8.430060523727175,-18.47220881290997,6.840116798409393,7.713608643075673,0.2456640313461546,-26.13065621766705,4.026529822243805,-7.134567942028403,4.963831771710301,-4.824251295515972,19.130024973276228,8.0,4.0,1.2592325785750478
06-25,18.979856481093734,10.045730575543919,-18.797817909691727,6.840116798409393,6.990059418457164,-0.4174472664270662,-25.28196814017563,8.29771425132155,-6.353169808508049,4.963831771710301,-4.259325809704752,16.304262662424428,7.0,5.0,1.442653585371105
06-26,20.62306398378104,7.8939652694937275,-15.931204649933262,5.451871369119687,7.205584353531788,0.6766056272730422,-26.47090903858016,7.533027885925795,-6.353169808508049,4.312836083973837,-1.9322414965299517,16.695213374768482,8.0,4.0,1.642053579526331
06-27,20.816029800230798,8.986974271494937,-15.931204649933262,8.424775790324253,6.417583184114991,-0.06375288543539143,-19.273860515517548,7.533027885925795,-6.036469385552563,6.151785169328963,-0.09500830152991173,14.092070190430928,7.0,5.0,2.585162546156832
06-28,22.316682037613216,8.986974271494937,-17.93093796186645,8.520416688751045,9.422170121905113,-4.313504861021642,-19.646207265962364,5.780947816244041,-6.78780637783921,5.192360151203089,-0.17165646259995695,17.073555546303375,7.0,5.0,2.3702494753520993
06-29,22.316682037613216,11.722139874076346,-19.10743419493981,8.351324028401983,9.327471532726703,-3.7982746851753775,-19.646207265962364,2.668570851424465,-5.8499907348405635,7.4582864252722265,-1.1597174463055404,17.073555546303375,7.0,5.0,2.4463671640495552
06-30,22.24583379783996,12.840857054796029,-24.199730247147514,9.640118696440904,9.719009795340863,-3.7982746851753775,-19.375653529897022,-3.2619481416002296,-3.8338031162365978,8.801844173592682,-0.8072713679287821,15.38215999888974,6.0,6.0,1.9460952024095548
07-01,23.179509580820408,13.734630305310553,-25.61541989057787,9.562062724208618,9.719009795340863,-3.1611151260749306,-20.550497450105386,-1.7127233069756915,-3.674194469250444,8.345977484602965,-0.8072713679287821,15.420709176928847,6.0,6.0,2.036723121358262
07-02,26.43978693350996,15.45226101219617,-22.4929640824992,9.562062724208618,9.329763111983755,-3.420712666211676,-19.840779775857357,-1.4729120302786494,-5.2826986300494445,8.345977484602965,-0.3483990751628265,14.185679776359697,6.0,6.0,2.5380887319001677
07-03,25.712311222383548,15.110731031638785,-20.381576136538857,9.406581761614527,8.153741743371274,-5.248403130374926,-22.238736191169156,-1.95669568408002,-5.2826986300494445,8.952958036763288,-0.735980672802754,15.613246611010348,6.0,6.0,2.2587899968138845
07-05,28.168307069311187,15.454413380699556,-20.381576136538857,11.233590445563333,7.7360768858251845,-3.919808718770829,-21.068685014824236,-1.95669568408002,-3.9443997143419502,8.344477813268712,-2.2538128123828987,14.848106811528993,6.0,6.0,2.688332860438181
07-06,28.168307069311187,15.454413380699556,-19.491093159619904,10.911392662595595,7.33551332731016,-3.2453069376873933,-21.068685014824236,-1.7088140986149754,-3.5277515450061774,8.84148867390398,0.708132273302476,14.848106811528993,7.0,5.0,3.102141953574938
07-07,30.505928609045053,12.681715681008725,-18.73093015165071,11.988075408690662,8.688398810067218,-3.2453069376873933,-21.02660979061497,-2.814090131312228,-3.932581299840197,8.254611769420789,2.553799752126128,15.97953827497867,7.0,5.0,3.4085458328526466
07-08,29.45344035764461,10.825819183039599,-18.52805108042513,11.830429349976745,8.688398810067218,-2.4624689964891098,-19.733219955866467,-5.1840104559234925,-2.436779682739991,9.67405874627002,2.553799752126128,17.624757276051742,7.0,5.0,3.5255144419776565
07-09,29.404862475850376,11.065236045012796,-16.447369133291097,11.830429349976745,6.7218872197160175,-2.2937603751276634,-20.871334304848297,-5.283427178802008,-1.9943073679156225,9.67405874627002,2.9222120529612727,16.450660224417156,7.0,5.0,3.431595646184975
07-10,29.73697505172593,11.649817672378445,-22.74951797560648,12.879562222158158,7.113525695739992,-2.2582722184252684,-22.953456691407837,-4.050362641968655,-1.9943073679156225,8.909169689798972,4.374843543366618,10.859427645474089,7.0,5.0,2.626450385443193
07-11,27.528275999824114,11.514987293163287,-22.74951797560648,14.775707601028245,4.961510741258911,-4.181693915160274,-27.18838166990137,-4.050362641968655,-1.98511507267172,10.498618323999963,2.7335251365387148,9.46863306596774,7.0,5.0,1.7771822405393731
07-12,26.215071536395346,11.514987293163287,-22.17840271354964,14.397476998922189,3.4818275028518024,-4.897118606842075,-29.564149006125913,-6.090179503734912,-2.6149174511255686,10.467327701036153,1.1068843054359647,7.5557830159437716,7.0,5.0,0.7828825893642004
07-13,26.215071536395346,9.364594656671963,-28.288162999568897,11.531548242646231,3.9640274540588822,-3.714975793582223,-29.564149006125913,-6.137290933210917,-3.3468180564110805,7.720298508432753,-1.2733336357171972,7.5557830159437716,6.0,6.0,-0.49778391753894
07-14,25.26672034160049,9.699091114301682,-28.52368111081857,11.214467237046213,4.646497767762601,-3.714975793582223,-30.764951543081906,-5.1902786720110115,-3.334554110968687,8.221264204480358,-0.9000474793438694,5.578092031054834,6.0,6.0,-0.6501963344633398
07-15,21.22351655244195,11.40976399306533,-23.78519484655692,10.881327562599482,4.646497767762601,-2.503243462912825,-32.76586374599372,-6.9806121950501705,-4.10100162255584,7.265147828072607,-0.9000474793438694,2.7994907836013745,6.0,6.0,-1.0675182387391666
07-16,14.535994529598543,14.17971952173193,-19.041872088874463,10.881327562599482,5.952382828041955,-4.24496705768102,-26.57913100553593,-6.6861945413002335,-4.602279210129099,7.265147828072607,-1.020053809923052,4.149686373197115,6.0,6.0,-0.4341865891835144
07-17,15.656904715857953,15.02597478189883,-24.06992878947225,9.13612684128216,5.874583645177884,-4.66112378042137,-32.29203671245417,-5.532493360835593,-4.602279210129099,4.511274350098465,0.04286220657307699,8.099228506135821,7.0,5.0,-1.0675755671906908
07-18,14.11304167287134,14.746227400535565,-24.06992878947225,9.580838838761562,3.1887239887601813,-5.058656371332174,-28.97033439206905,-5.532493360835593,-4.593017115094071,2.0552325054353924,1.031975307144113,9.091666479625085,7.0,5.0,-1.2013936529724922
07-19,13.331040102357873,14.746227400535565,-24.81118582345389,2.507834678907713,4.728836353366743,-6.104500442973322,-26.41121608839065,-4.644199645425048,-4.363803460345757,2.510765080848304,0.8438106336800777,10.394824910772707,7.0,5.0,-1.43929719167664
07-20,13.331040102357873,11.330592542303634,-23.496890613039522,1.471228500855377,4.244351018929644,-9.19600460293904,-26.41121608839065,-7.809133266074657,1.7853877931376736,4.328018223234624,-0.06844716332694341,10.394824910772707,7.0,5.0,-1.674687386848274
07-21,13.36539924696918,10.989010528354411,-27.3422002455745,3.384800965178665,4.146665678959802,-9.19600460293904,-23.400611325992042,-5.0599803566712405,4.171168696772945,5.262676227696691,-2.220079717534363,9.764087475556627,7.0,5.0,-1.3445889524352377
07-22,10.27227940633438,9.700364883196878,-29.49912936256009,5.025298498996291,4.146665678959802,-9.90741362285736,-19.926772031263503,-4.069991284906839,5.8933820877018634,3.9731440830023086,-2.220079717534363,8.293643106718553,7.0,5.0,-1.5265506895176737
07-23,6.736575211342441,6.353815716532076,-25.300700928374376,5.025298498996291,4.5067177954529285,-10.012030953064917,-13.997402416046198,-4.44879289599846,6.119724403928927,3.9731440830023086,-3.9769209655835027,10.091664760916851,7.0,5.0,-1.244075640741302
07-24,8.654847867568352,7.837841961834883,-21.701484953179783,6.9033556381297245,5.651993123692787,-9.470939583468873,-9.155306054960032,-4.932067746138098,6.119724403928927,2.464821321101229,-3.0541012623053114,12.19822175485044,7.0,5.0,0.12640887258785347
07-25,8.995342953321199,8.774752542187459,-21.701484953179783,8.143906214905485,7.121122646918751,-9.201647122700779,-9.625265221519957,-4.932067746138098,4.5875658541581394,-0.7560388177631946,-1.3033755850352655,11.497390079447383,6.0,6.0,0.13335007038344493
07-26,8.74373190251751,8.774752542187459,-19.007688009362468,8.232998883730463,6.43201882925987,-11.935414772311967,-8.567492355234844,-5.099429229968933,5.556046047173053,-2.443998427223082,-1.9272347891953636,14.510624112152454,6.0,6.0,0.2724095611436789
07-27,8.74373190251751,7.97217618267603,-15.316783415759984,6.201157811807753,1.0073087735648527,-10.098664861986574,-8.567492355234844,-3.8164143294942727,6.294136061308866,0.1277599811179799,-5.411661694374804,14.510624112152454,7.0,5.0,0.13715651402458073
07-28,9.193018477650336,7.6592977600589816,-15.065322794081842,4.079164513048995,0.806251595913672,-10.098664861986574,-13.370799424013462,-12.536007232662499,5.86825341456724,-11.34334474646196,-3.360096362886971,15.790290231771701,6.0,6.0,-1.8648299524235323
07-29,12.394461332807017,8.496209902185297,-10.151745498417828,3.788143831016849,0.806251595913672,-8.157023591748128,-13.365358150176474,-11.571657737795467,6.344543003804989,-10.180722434732868,-3.360096362886971,18.208756819629453,6.0,6.0,-0.5623531075333721
07-30,8.937238749101073,7.373331705729166,-10.090542624049244,3.788143831016849,0.8801038364003831,-9.890874599377836,-13.076998293979322,-13.401944429244434,6.36954312681233,-10.180722434732868,-3.822654200927806,20.370920621060094,6.0,6.0,-1.0620378926826348
07-31,8.501082279928587,5.8013208654542625,-7.896089533140133,5.1144257061918585,2.604257510713712,-8.06864468120853,-11.341690292657127,-13.84598149826235,6.36954312681233,-11.104423049626837,-1.4957597032359555,20.874679080363286,6.0,6.0,-0.3739400157222412
08-01,6.299471855661516,6.715628620997907,-7.896089533140133,6.409147396982854,2.3928068924522115,-12.344981881105694,-11.00020828137094,-13.84598149826235,6.4940866594940445,-13.851428184225426,2.9369808288811994,19.607702803541017,7.0,5.0,-0.6735720266744826
08-02,7.6548011992768625,6.715628620997907,-5.092591275312717,5.769065721457981,2.269309674143623,-12.974430143351677,-10.840529269256557,-12.780073621912644,6.34039007465571,-14.964774324282255,2.5936361567040294,20.21695506712212,7.0,5.0,-0.4243843433131349
08-03,7.6548011992768625,8.15844883917418,-6.3988687239216056,5.975548887444554,2.1694443017762177,-11.146811699272853,-10.840529269256557,-13.254449327429802,7.779737296083425,-15.392610699418285,6.13315291104872,20.21695506712212,7.0,5.0,0.08790156521891508
08-04,7.29725004525807,7.140055609718847,2.546730400969625,6.722116949125433,2.6049824324723767,-11.146811699272853,-9.473901818346874,-12.419006684124193,7.2103880575603005,-12.365043137006845,6.724949614634122,19.912323465022922,8.0,4.0,1.229502769667577
08-05,8.005800699279215,8.492896871391578,-0.051388640042718335,7.623770363756084,2.6049824324723767,-9.81163806862448,-7.384640382739492,-12.702348562370505,6.922804318523713,-12.433751127944367,6.724949614634122,18.341378399541235,7.0,5.0,1.3610679931563971
08-06,8.384990952073151,9.534332028522902,9.637069348670119,7.623770363756084,2.8877409556654237,-9.38238870747241,-4.437166284982354,-12.574082647693439,6.8568373955512,-12.433751127944367,6.708133649086971,18.751823078150228,8.0,4.0,2.6297757502819583
08-07,9.310957469912092,7.918701683813588,7.47082656422917,6.262086661507298,7.668942963946508,-5.3778410276201605,-2.7080429487104567,-12.878139706944198,6.8568373955512,-12.066852839853865,6.911908117017697,15.343960032698705,8.0,4.0,2.8927786971289646
08-08,9.998364684565477,9.927707890907731,7.47082656422917,6.700811128499534,7.9308198797093175,-4.728532739434018,-5.15881189448076,-12.878139706944198,8.398295498055576,-10.364685683042776,6.1015870773794285,14.03105276233601,8.0,4.0,3.1191079551483747
08-09,7.675545763199032,9.927707890907731,1.94063781121912,5.402191819420342,8.44799168641802,-1.6017136794457083,-5.932036225068959,-12.759297212072775,9.570461941794745,-7.7127919340165345,7.4991967045519425,13.646199419612715,8.0,4.0,3.0086744988766383
08-10,7.675545763199032,10.482833517370565,9.444723249577374,5.845367401702996,10.426382016654207,-2.8238014414990373,-5.932036225068959,-12.98294658304249,13.952105984312706,-5.705287441893975,10.154062371017584,13.646199419612715,8.0,4.0,4.515262335995224
08-11,7.574990416907362,12.547274484068028,10.480397479783427,4.673707359433822,9.588120427547086,-2.8238014414990373,-3.746029705211535,-13.37952043497626,13.824960319185307,-5.415884653074067,9.576603239369662,9.803774908097758,8.0,4.0,4.392049366635964
08-12,8.487148154215863,12.534347498106628,11.066355211405185,5.999828359782379,9.588120427547086,-3.0044870495650287,-0.3956726711516785,-11.529386793537402,12.670303621831502,-8.48844667148348,9.576603239369662,9.506357049052845,8.0,4.0,4.667589197964463
08-13,5.797099120093213,14.25061943815376,7.161027650708507,5.999828359782379,8.792380336076441,-3.648025055417826,0.4519677183942658,-14.514358349695575,12.878018607634218,-8.48844667148348,9.142769158195897,11.514117987585456,9.0,3.0,4.111416525002271
08-14,6.236037296874413,13.958603479359082,9.71010818348307,7.416569896571794,9.52301959061451,-2.920603034181089,-0.7408800546573845,-12.905320876166561,12.878018607634218,-9.275925350844476,10.810811144521523,9.403790681438013,8.0,4.0,4.5078524637205915
08-15,10.2203369140625,13.364588974177822,9.71010818348307,6.605784744153848,12.725370563705404,-5.020767322171336,-1.2921420646180732,-12.905320876166561,12.5552145990783,-3.201233944781015,11.62528060505699,6.6488745280513655,8.0,4.0,5.086341242002693
08-16,7.475980400518558,13.364588974177822,11.38345933611861,6.085173137185984,12.327935832274617,-4.288860693479517,0.06709450167323085,-12.029837101865695,12.58110772355502,-4.93046737775422,10.50036210484457,5.023561186422347,9.0,3.0,4.796674835305946
08-17,7.475980400518558,11.762406114566936,15.326658278021725,4.973277719372553,15.470862917407185,-6.102577992432816,0.06709450167323085,-10.969467628441697,12.931399949577289,-5.374670825251495,10.739704100300699,5.023561186422347,9.0,3.0,5.110352393477876
08-18,7.5109156979223535,12.206264569678734,21.215171200381086,5.993798587537084,13.679404163030323,-6.102577992432816,-0.23003724677218776,-11.736829518814176,12.1212133153948,-5.286895098534998,11.398634884669757,5.207249173979871,8.0,4.0,5.4980259780033185
08-19,8.525936578061764,14.485007891002507,20.28701037583485,6.764603728289818,13.679404163030323,-6.550378355195524,1.7069416955634498,-12.455713997231856,11.91500234743032,-4.415269940750769,11.398634884669757,7.384860470828317,9.0,3.0,6.060503320127746
08-20,5.812508881018085,14.699356869987831,18.510633942275067,6.764603728289818,12.49036771110609,-6.098255968459088,4.210626606272538,-13.446195285685622,11.671841781413633,-4.415269940750769,12.44641997726443,8.849832908497847,9.0,3.0,5.958039267602488
08-21,5.113936955245288,16.26738453465508,20.484423450946863,8.208063255942463,12.854639601997835,-0.6824092360882006,6.528847034160907,-13.888289903126175,11.671841781413633,-5.6998817222380485,11.524940442613412,12.538829884020554,9.0,3.0,7.076860506628634
08-22,6.605722743352917,16.536137314605902,20.484423450946863,8.825943949633471,12.366624406848494,-2.0861446506127885,11.450235171925351,-13.888289903126175,9.817113037590302,-3.6162644628099168,12.228957006319066,11.53002974493874,9.0,3.0,7.521207317467685
08-23,6.087406054148192,16.536137314605902,17.946941299066825,9.114410000054713,11.5665542593154,-3.90990802595232,11.16887965140734,-15.219750601874015,10.78685090708086,-2.675140663165704,16.824104956265444,8.832163197927901,9.0,3.0,7.254887362406713
08-24,6.087406054148192,17.563230725861132,18.914960049373352,10.371158958793751,12.573642881756875,-0.4774644226743301,11.16887965140734,-15.956402604521458,11.001458705156928,-3.917337640100987,16.85157989258826,8.832163197927901,9.0,3.0,7.751106287476412
08-25,5.844604475898239,17.679765385263227,19.692689961015184,11.210329502637062,12.32494442186511,-0.4774644226743301,12.333908610931585,-15.019936222501789,10.847512046102162,-3.5115467787198456,17.41543142440327,9.780888564536374,9.0,3.0,8.176760580729686
08-26,9.207631482834538,18.01179716822763,18.62767705708941,9.333556194626967,12.32494442186511,-0.5895282406173873,9.795563123759928,-12.082672718861534,10.477905445869073,-1.4607856221610058,17.41543142440327,13.243163811704374,9.0,3.0,8.69205696239503
08-27,6.139456899986228,15.159942368116324,15.540389143519773,9.333556194626967,13.69803508035614,0.4124367314427904,7.582521901547331,-13.573992928354798,10.308302564224196,-1.4607856221610058,17.230484606754903,12.950413882023694,10.0,2.0,7.776730068506877
08-28,8.099228506135821,16.330179440897787,11.624912805003856,9.739721534687119,13.293255936288185,0.7056507965914122,5.524429923454819,-12.918456753407225,10.308302564224196,-0.3104208628453149,16.020952598325046,13.921190562029395,10.0,2.0,7.694912254282091
08-29,9.135639795481678,16.07279393192237,11.624912805003856,6.717117154052272,13.97808220467433,0.1987703755354576,5.76542886936556,-12.918456753407225,10.558044993321653,-2.7514544433097434,14.567172700922878,15.698084756041016,10.0,2.0,7.387178032467007
08-30,9.447529830770351,16.07279393192237,10.465927187600759,7.573691938717072,14.245716088355556,0.03409922405866405,6.219859912273603,-12.582640097147676,9.832363384763438,-2.7388400359405334,14.249223272110394,15.59761186302709,10.0,2.0,7.368111375042591
08-31,9.447529830770351,15.624192946046527,11.169107801520358,6.342048608341818,13.862247851868265,-0.6326672798120752,6.219859912273603,-9.301119284993359,9.025899223328024,-4.876659691875252,15.216890360709574,15.59761186302709,9.0,3.0,7.307911845100411
09-01,11.605097153816848,12.738441775051735,14.845081988931446,7.901233733864106,14.846706276815699,-0.6326672798120752,10.09743339691037,-10.660965930613694,8.694898689236087,-5.339852195562941,15.262435467456115,13.073953518720765,9.0,3.0,7.702649716234538
09-02,10.459902515261797,10.237041853758077,15.717723767674494,6.998538010928709,14.846706276815699,-0.6326672798120752,5.725229672000629,-11.441954726276714,9.540879911060005,-4.299951442723233,15.262435467456115,9.930644344854972,9.0,3.0,6.8620440309165405
09-03,10.35453932538255,8.951336454310885,16.19920065604933,6.998538010928709,14.846706276815699,0.8283374670528589,6.7936113753112695,-11.83622466207444,8.775021608431668,-4.299951442723233,15.262435467456115,14.024650176092527,10.0,2.0,7.2415167260861635
09-04,10.646265477840664,9.658643655600377,13.811377975726614,6.998538010928709,14.354994679814975,0.13732162220614108,8.474742175848009,-11.685348759764175,8.775021608431668,-4.299951442723233,14.050098926345735,15.013518417316606,10.0,2.0,7.16126852896434
09-05,9.582107562385339,10.252369695098997,13.811377975726614,5.622562565669061,13.158457206811313,0.6672162396972706,5.220723239003932,-11.685348759764175,8.775021608431668,-3.287258669102449,12.478767306648164,15.551061453394553,10.0,2.0,6.678921452000026
09-06,8.461409806489373,10.252369695098997,13.811377975726614,2.266046258729642,13.755751278672518,2.1966435640550057,7.51223407739996,-11.685348759764175,8.604512765701305,-4.5068600481270495,10.192367030931006,15.551061453394553,10.0,2.0,6.367630424858979
09-07,8.461409806489373,10.252369695098997,9.309632491203503,5.7559379312387255,12.513528796588096,3.1994708895831856,7.51223407739996,-10.47510887345724,8.626899355935143,-3.5376093741388592,9.5348954034184,15.551061453394553,10.0,2.0,6.392060137729486
09-08,8.461409806489373,10.896201476609981,10.478471646075668,3.54852313864068,11.284301812822893,3.1994708895831856,7.51223407739996,-10.620863904877748,9.827647271458686,-4.076136967541565,7.89723151286129,15.551061453394553,10.0,2.0,6.16329601774308
09-09,5.077337728658169,10.42905141026967,10.668462863971898,4.738792259657759,11.284301812822893,4.367225286390212,7.032992240779759,-4.854972502771297,7.816848835511168,-5.865129623690264,7.89723151286129,12.514837300117804,10.0,2.0,5.925581593714922
09-10,3.814343158705828,8.506789865362638,10.64401672928619,4.738792259657759,10.148183613651478,4.796387083886601,7.627607672945031,-6.830231342208674,8.184493767762122,-5.865129623690264,7.296445341449481,12.235643111557431,10.0,2.0,5.441445136530469
09-11,5.3361962784989965,7.382028696979282,10.028293630032648,4.672974218484512,10.30984529792593,6.468543087885663,8.29619787496734,-6.3547911561880435,8.184493767762122,-6.337362352222812,6.365372358827519,11.286386065563905,10.0,2.0,5.469848147376422
09-12,4.328430505075255,5.637511699845621,10.028293630032648,4.911707069349975,11.377736315702341,7.371162085892037,10.723426024170433,-6.3547911561880435,7.499561445401873,-4.887184102630037,5.741172448280603,9.115653778970476,10.0,2.0,5.457723311991932
09-13,3.241434713733254,5.637511699845621,8.096461761354746,3.8826301441904207,11.808458500302708,7.35723898106939,10.740349256895223,-4.698820934040956,8.857464545685659,-5.275418011386847,6.581112451567018,9.115653778970476,10.0,2.0,5.4453397406822255
09-14,3.241434713733254,6.032668521491238,4.4866151923039865,3.389972950103413,10.310008817772337,7.2841168185721425,10.740349256895223,-3.1663122074382337,8.285956282188769,-4.499722373616026,9.726895857362383,9.115653778970476,10.0,2.0,5.412303134028249
09-15,0.7351689856754767,7.918760238605167,2.555064640995921,3.1783637626012182,10.765412093618226,7.2841168185721425,10.626599025008343,-3.1692659710568143,8.243414370434012,-6.795836110226142,11.063144985545266,9.318074757733317,10.0,2.0,5.143584799792176
09-16,1.2856416727174504,6.956066066647477,4.736527580329527,2.789172668842911,10.765412093618226,6.908073373100637,10.698853548374382,-2.937853780359172,8.982438737923593,-4.970269885225951,11.063144985545266,9.932303037603377,10.0,2.0,5.5174591749264765
09-17,0.08427953853802134,7.390745211378349,6.519122214018375,2.789172668842911,10.678984362894266,6.969345623357938,11.062988514532233,-3.1428590112802928,8.725748994163359,-4.970269885225951,9.636887658921204,9.785721961589855,10.0,2.0,5.460822320977523
09-18,-0.3701854611701306,6.7983523404361925,11.43019803908476,3.650536933497905,9.065783210254528,7.156568475434898,11.868730542752711,-5.368499436563688,8.725748994163359,-5.2303950997229345,7.554765811431181,12.214704479322991,9.0,3.0,5.624692402410148
09-19,0.3672195314028669,9.015773720528763,11.43019803908476,4.403132381566776,8.73084444126104,7.7591294571599105,12.467220795859607,-5.368499436563688,7.40962792928221,-6.06619503734162,6.325670698647434,16.186223040312832,10.0,2.0,6.0550287967667416
09-20,1.4203148161646648,9.015773720528763,11.658123483685007,4.747721940824212,9.463140877851425,8.876015047520685,11.287260112967768,-5.556136572603674,6.880617047939433,-6.027619342835102,7.190659816163059,16.186223040312832,10.0,2.0,6.261841165709923
09-21,1.4203148161646648,9.604305171957533,15.031775479488257,2.7699735702739514,10.04073826129101,10.561678048564449,11.287260112967768,-7.580849834783231,5.986373176172941,-6.082503809114548,7.5101599555401135,16.186223040312832,10.0,2.0,6.394620665736313
09-22,0.7101574080823325,10.113480937074957,17.403091545270122,2.909151418023609,10.675047338110668,10.561678048564449,13.024486489728055,-9.050536469521546,7.4855355606631635,-1.9265601753325439,8.326883904850401,15.66971725284719,10.0,2.0,7.158511104863405
09-23,0.9061938482037282,11.571789295015645,19.196898938155233,2.2183170485419432,10.675047338110668,11.188746905919237,13.767977171798892,-7.5841222432661795,6.501067527101178,-5.584183357083602,8.326883904850401,17.41467427486673,10.0,2.0,7.383274221017822
09-24,3.0804911849095182,8.792994431066628,15.2153553704721,2.2183170485419432,10.64771579802217,10.357164513150108,16.84597832045171,-6.152565052838036,6.050433455186517,-5.584183357083602,9.969017922634752,16.974947022384846,10.0,2.0,7.3679722214082215
09-25,4.442234748609372,9.533870055806013,14.444308482369495,3.7083545447235737,9.428979813372367,11.415751287702081,15.858654981099464,-4.033407081038576,6.050433455186517,-4.506696718173835,11.034851431321604,16.067567240860196,10.0,2.0,7.787075186819856
09-26,0.13596504222845227,8.842682718465008,14.444308482369495,6.988069697532062,11.280878862076433,10.945072603872273,17.751822738461833,-4.033407081038576,6.609863278941533,-4.348235593450997,11.981281445926333,15.027574346788693,10.0,2.0,7.968823045181044
09-27,1.1440113070093971,8.842682718465008,11.98771908040699,5.058910151356447,11.483049472684677,11.622134540208046,16.779911770994662,-4.34915118129339,6.9933706863301035,-5.579767818973979,11.099409671419673,15.027574346788693,10.0,2.0,7.50915456211636
09-28,1.1440113070093971,8.391780129707358,13.469681257864954,7.2674420753728,10.83000153931734,9.685306225267947,16.779911770994662,-4.184685524059032,6.099033649500398,-5.480377169069847,10.538234283862083,15.027574346788693,10.0,2.0,7.463992824379729
09-29,1.1776530356911017,8.931919117174727,13.807485859171233,7.589569573164545,8.384978356536008,9.685306225267947,15.361896242942152,-2.7794505760461603,6.068461812367679,-6.512033215113753,10.43004737132727,16.01172733811088,10.0,2.0,7.346463428382803
09-30,1.4058296378454147,10.012358864455653,14.372265467067908,7.226013472083155,8.384978356536008,10.916911905834795,13.074935736643095,-4.77445414254462,4.219518004489026,-6.079645245687376,10.43004737132727,14.790257422697199,10.0,2.0,6.99825140422896
10-01,3.3327585099665566,9.159834489737538,15.585054338805506,7.226013472083155,8.522077337414618,14.119500032697404,8.710630822551941,-6.5842340945013484,4.516129032258063,-6.079645245687376,11.669560197198315,14.999654395414035,10.0,2.0,7.098111107328202
10-02,5.746356817038,11.176692195541387,14.364086136438312,7.964677282438524,9.395388729519127,13.033394686870663,5.1877617115261465,-7.5595345855049905,4.516129032258063,-6.524260641534302,14.466201883506852,13.959661501342532,10.0,2.0,7.14387956245336
10-03,2.159497412187533,12.009745181005762,14.364086136438312,6.8684598171102325,8.977091378379754,12.039793880771567,4.018271528401088,-7.5595345855049905,3.6645179666498655,-7.760160270212129,13.841062170533865,12.110005992964576,10.0,2.0,6.227736384060452
10-04,2.935219128879627,12.009745181005762,11.88279194754477,9.936116955635946,6.304824772377174,11.718821637816104,5.617645993053002,-6.114178012650975,1.3705829931263729,-8.308368030292064,12.480298126392471,12.110005992964576,10.0,2.0,5.995292223821063
10-05,2.935219128879627,9.86601537717971,9.186221115881755,9.416278643777233,8.550730840396858,13.943125618777005,5.617645993053002,-5.702396923980506,1.7899014893925629,-11.211777718098539,13.065369062055693,12.110005992964576,10.0,2.0,5.7971948850232495
10-06,2.1086370204794163,8.224892000421463,8.853720067929629,11.134596409813266,9.350533102050187,13.943125618777005,6.805028548947337,-6.536701826680067,2.4541449595506744,-13.319550454284306,12.10785837525009,13.0662390329121,10.0,2.0,5.682710237930565
10-07,0.7545917184762644,9.096450298928806,7.1401416562545466,10.281232225360707,9.350533102050187,16.125257456887194,4.000407563755808,2.5878173271460865,3.1553591660050286,-13.636836549064176,12.10785837525009,10.00209492826069,11.0,1.0,5.913742272442603
10-08,-2.49221611600694,8.681400525609329,5.3726125321543385,10.281232225360707,12.103870153905113,16.510284407945054,0.5400397419428039,1.8716028094423889,3.030306612851063,-13.636836549064176,14.660080757420127,5.779296804898917,10.0,2.0,5.225139492204894
10-09,-2.6103391202350266,9.068868880331824,6.962026491901292,11.813129209874802,12.315168347754796,18.3720913727648,1.295898480641795,2.107024318962956,3.030306612851063,-2.208853309838311,13.472282574063954,5.158092531074859,10.0,2.0,6.564641365845732
10-10,-2.106338883922071,9.068868880331824,6.962026491901292,14.16027893870404,11.729718123667658,20.056621005051753,1.437834920640316,2.107024318962956,3.2541376459377815,-2.6063652902553525,12.68966362473815,5.039436731622224,10.0,2.0,6.816075542281713
10-11,-2.106338883922071,9.068868880331824,7.241972142682299,14.085869775391851,10.647302345448136,23.08798273364389,1.437834920640316,3.723792210855545,3.228305683347034,0.7108297554090144,10.04001126987173,5.039436731622224,11.0,1.0,7.183822297110147
10-12,-2.106338883922071,8.462661339534035,5.355405708079469,14.280348142237205,10.44204588527628,23.577274964070174,1.437834920640316,4.099301337837809,2.3928376415859134,1.2769968447162363,11.878803153812065,5.039436731622224,11.0,1.0,7.178050648790803
10-13,-3.0066255985695567,7.744435591901245,5.694514821089959,14.123044460007115,11.435119276500108,23.577274964070174,1.5998398105289815,3.0315760562294414,2.3151754754139007,-0.5753170089293446,12.228542026859536,6.770431115361319,10.0,2.0,7.078167582538573
10-14,-3.7605389054417593,7.814010848114057,4.550356789069218,13.804367927281469,11.435119276500108,23.148831002593603,2.9130070143394415,2.2072065829530856,2.67457915634695,3.1429386750215214,12.228542026859536,6.058496318645513,11.0,1.0,7.184743059356897
10-15,-4.213533908157049,7.528306736593902,7.2891886771278545,13.804367927281469,11.781642972484965,21.90204057918963,1.1256073914614315,3.328111489613636,2.850029835786269,3.1429386750215214,11.47970269012442,4.557826889485238,11.0,1.0,7.048019163001108
10-16,-2.5255030915061583,8.312464338152969,5.978988432053924,12.557521974569216,11.622713950198483,21.48624521511539,-0.8408371622226909,2.123158915931276,2.850029835786269,1.0980118613379208,10.797841526675251,4.26467538783065,10.0,2.0,6.477109265326876
10-17,-4.396901252552237,8.704431671708987,5.978988432053924,10.629503016453636,7.088080543784306,19.448509596541378,-0.596538539668072,2.123158915931276,3.0303020379698777,3.2537916406448293,9.054084401673695,6.246944008755459,10.0,2.0,5.880362872774755
10-18,-4.396901252552237,8.704431671708987,2.4882202389339447,10.539362450356206,6.395779414692415,17.757899357241744,-0.596538539668072,1.9647202348438413,3.0989790338680545,2.395977468987812,6.811187733815108,6.246944008755459,10.0,2.0,5.117505151748605
10-19,-4.396901252552237,10.022565649169431,4.771113098146967,11.281080584461078,6.292778974656661,17.47388860675784,-0.596538539668072,2.2287954485708523,2.440898399800074,-0.15805198795726905,6.1992160527238696,6.246944008755459,9.0,3.0,5.150482420238722
10-20,-3.116574216811042,7.620750752453031,3.940942544090208,13.040272153201618,6.8807354211630045,17.47388860675784,-0.7953821910910701,2.7803944647624586,-0.8046588288494041,0.5575659553038246,6.599748914115847,6.030571042084628,9.0,3.0,5.017354551431746
10-21,-0.6918661137780162,8.802190499275676,-0.22757509434396755,15.048722947863624,6.8807354211630045,15.375986278550947,-0.8720083951636504,2.5116133697326406,0.9406784833487818,0.029500224777908025,6.599748914115847,6.449364987518297,9.0,3.0,5.070590960255091
10-22,-3.65561898903356,9.753219858442261,0.8458660684571424,15.048722947863624,5.030058188714354,16.197269379718822,-4.857319435925091,2.1102384632340883,1.0999264107827569,0.029500224777908025,6.157771002952424,6.679700592469568,10.0,2.0,4.536611226037858
10-23,2.079205203398278,7.311516782701805,1.0551013993901135,16.607724019778384,5.552029934167702,15.039233181308608,-6.155572514957968,4.143105704100115,1.0999264107827569,1.0423887919552917,5.417936589762838,6.281845279270339,11.0,1.0,4.956203398471522
10-24,4.007256480267371,7.830750387766925,1.0551013993901135,14.94011022218126,5.253152819738125,12.363518056313724,-5.716613656950253,4.143105704100115,0.6345714396374763,0.193939409042386,4.711234864161602,8.333916441224908,11.0,1.0,4.812503630572814
10-25,5.487905601138748,7.830750387766925,3.24736714344567,16.81365481637048,2.9863513096869303,13.605161965073096,-7.732972934669861,6.219796063696622,-0.2128202923317409,-3.8034183596015834,3.9119959451737945,8.333916441224908,9.0,3.0,4.723974007247833
10-26,5.487905601138748,7.866505785563457,-0.3785186791563482,16.013302936417553,3.92500501251386,13.987134834557777,-7.732972934669861,3.2420058716495235,0.21022536482453869,-2.5838028955318646,3.411932139372024,8.333916441224908,9.0,3.0,4.315219956492027
10-27,4.2052283587777595,8.169858798704354,-4.9197711937796855,16.50858917621579,4.528422323204778,13.987134834557777,-6.696381261251912,2.343339208688332,0.6654320311694695,-1.8007318693179148,3.660154539052921,11.083970411987293,9.0,3.0,4.311270446500747
10-28,7.467268484958457,6.9484951918224604,-5.976521766979678,17.199429360112838,4.528422323204778,12.741157115306553,-9.532810321317255,3.611827485886016,1.7425118738985397,-1.369457526747229,3.660154539052921,12.605573148195779,9.0,3.0,4.468837492282848
10-29,5.4089071296969875,7.120373882822187,-0.3134481940725255,17.199429360112838,2.09004416971233,16.45641248804547,-10.360885952862466,3.3820958158244037,0.38589910461096505,-1.369457526747229,2.616619044099456,10.588397931569867,9.0,3.0,4.4336989377343565
10-30,8.511673109637544,6.5341956480735,0.21939355122332407,17.199429360112838,4.454847211477036,15.25311491870831,-10.386453684444357,3.6220636442957153,0.38589910461096505,-2.679804158328202,2.0830096602624666,9.457669189420386,10.0,2.0,4.554586462920793
10-31,5.490711905392,7.637638602731711,0.21939355122332407,17.41553339728743,4.197712206494697,9.97126963915746,-9.335572957326324,3.6220636442957153,0.3172993265117827,-2.3770041653594878,2.318677239613624,5.646689017538288,10.0,2.0,3.760367617296684
11-01,6.474702233934335,7.637638602731711,2.309468862863393,14.285715819723373,2.6682971098263084,11.727393159069393,-11.767863072665778,4.025664390165179,0.591718066885078,-4.79088673098048,2.9252427980098634,5.646689017538288,10.0,2.0,3.477815021425055
11-02,6.474702233934335,6.4691032506771196,-0.1154716811582584,14.96844699218029,3.8922901668698735,11.719613147311955,-11.767863072665778,4.398220139501938,1.1992821607338289,-4.854849570502348,1.4161444174648965,5.646689017538288,9.0,3.0,3.2871922668238454
11-03,5.677568910298578,6.167934724515997,-0.7500041614879261,13.101185022345405,3.796534006416373,11.719613147311955,-11.97205698472891,5.285436772388949,1.3878305958029742,-5.396036582418008,2.0269305827832453,4.474072360547486,9.0,3.0,2.95991736614801
11-04,6.198147547795728,4.131334655059216,-1.131176338136313,12.470355419112735,3.796534006416373,12.556725490910544,-11.61740698985344,3.6441052194262813,0.2572042638268713,-3.8131421862731454,2.0269305827832453,7.300904866293628,9.0,3.0,2.985043044780144
11-05,5.733400599343063,4.173684443321233,-0.9768293973289668,12.470355419112735,3.869947426389544,9.56954712247758,-10.302446746915688,1.6880303490426092,-1.6069837012145198,-3.8131421862731454,1.4150267904129432,3.496900688365522,8.0,4.0,2.1431242338944085
11-06,5.237711587365944,4.928484172606448,1.1123470334003684,11.456912155528435,4.142629272631037,8.890362900824009,-12.07834416737779,2.4201095337681773,-1.6069837012145198,-4.700604302505266,0.7419314516962009,3.147909283961615,9.0,3.0,1.974372101723721
11-07,5.231206989632079,4.469144264670226,1.1123470334003684,13.289732512219755,4.2787866242040815,10.191861484798435,-11.058957479867683,2.4201095337681773,-1.6069837012145198,-6.8168498160321915,-1.8993784627486037,0.9771823225544108,8.0,4.0,1.7156834421153777
11-08,3.5799177855105686,4.469144264670226,0.5784252098274408,17.1643864280386,4.174577043317228,9.594144038525766,-8.778878323960974,2.016759259902195,1.933958993922515,-1.2201914597115242,-0.3346506789620509,0.9771823225544108,9.0,3.0,2.846231240302868
11-09,3.5799177855105686,5.471673788141327,2.666367263360764,17.76080658091825,4.126313862047697,9.542601685446114,-8.778878323960974,2.2666657276642628,2.794668287537213,-2.1625711587757106,-2.6292776031786382,0.9771823225544108,9.0,3.0,2.9679558514387736
11-10,3.4215108678384767,4.105216251510453,3.036433877463959,17.72081130114385,2.6715109543526108,9.542601685446114,-8.126610753122916,2.1515123771898668,1.806816777194238,-1.0062319761492036,-2.4096331625629444,0.3140901338890272,9.0,3.0,2.769002361182794
11-11,-3.5194617339380914,4.917834255005658,0.2490673793077834,18.08800068266082,2.6715109543526108,9.985530147066008,-10.541778322924257,4.459298998367946,2.302769252232143,-3.2827029631954425,-2.4096331625629444,0.4327565837141107,8.0,4.0,1.9460993391738617
11-12,-0.5173587829842088,7.838193458959331,1.3672306039239053,18.08800068266082,2.484510079230584,11.865144362584962,-6.494198351801883,5.648329889613607,3.6909360177717296,-3.2827029631954425,-3.2419120316806125,2.3731479401700417,8.0,4.0,3.3182767421044024
11-13,1.1787838885378967,8.040202289402517,2.3820144229858595,18.101949690366077,1.2146205146740825,9.911769489065996,-10.668424053987742,4.9762551327452735,3.6909360177717296,-2.2145952368954966,-3.2155909387738375,0.3140901338890272,9.0,3.0,2.809334279148448
11-14,-2.4345490324396204,9.352518244546431,2.3820144229858595,19.21794623560533,-2.1916275296105363,10.49952271913193,-10.120970978469416,4.9762551327452735,3.859091872430677,-3.062020363959881,-3.131708542932977,-0.6979828088078155,6.0,6.0,2.387374114268772
11-15,-3.2263519371464024,9.352518244546431,2.3149180689014037,20.08182883683508,-0.9334523894801899,9.129936391326208,-9.859906891792992,4.798178063181469,5.673404664142575,-3.4589389672025965,-5.318803646895288,-0.6979828088078155,6.0,6.0,2.321278968967323
11-16,-3.2263519371464024,10.862128771113216,4.3904102729799535,17.414283752441403,-1.2169058322819548,7.4005606816922676,-9.859906891792992,5.390277806596607,6.14143328353008,-3.346192211013314,-3.942594080283647,-0.6979828088078155,6.0,6.0,2.4424300672522845
11-17,-2.940682321220596,9.342226535929338,7.1300231845878335,14.894367553146148,-0.7914830635351167,7.4005606816922676,-9.601288512615056,5.302878073641383,4.8005334769754935,-3.0819233229809284,-4.4563280518536725,0.0,6.0,6.0,2.3332403528139243
11-18,-2.541942116023817,6.824462424706367,6.560861368607793,14.390639157538107,-0.7914830635351167,5.970959306020327,-13.182764145738096,6.7039071054841015,2.9319824803055576,-2.5226023983823507,-4.4563280518536725,0.0,6.0,6.0,1.6573076722607665
11-19,-1.3633252094410506,8.186997657591174,8.651484529567522,14.390639157538107,-0.8515270658189377,6.667849277430006,-8.673254585557135,3.819617651463236,3.2426564429055853,-2.5226023983823507,-4.350992705279984,0.0,6.0,6.0,2.2664618960013483
11-20,0.4536297978614238,10.068600682503032,9.938365307767894,13.320967870580047,1.3375216576562938,4.5854275829169495,-9.446601898353697,4.345659529915179,3.2426564429055853,-0.7900944098509172,-2.7536344511750364,0.0,8.0,3.0,2.8585415093938957
11-21,-0.9843179281038376,9.160308763338335,9.938365307767894,11.692170659385125,-0.5264349148136015,3.7455816314539616,-13.359845424401055,4.345659529915179,2.855223551920332,-1.299312486215861,-4.873167678359384,0.0,6.0,5.0,1.7245192509905902
11-22,-2.2293526688643,9.160308763338335,10.554703833220731,12.229649338778561,-3.906826399543384,4.993383374630921,-10.892651186907893,3.91805380635176,1.9979646732187435,-1.43708454259517,-3.354217444415577,0.0,6.0,5.0,1.7528276289343936
11-23,-2.2293526688643,10.839698404618817,11.39198553371691,11.206275673840151,-3.92123489778962,5.223121469958434,-10.892651186907893,2.972763410947642,-0.42383691824464653,-0.9693193662619796,-4.292828032835351,0.0,5.0,6.0,1.5753851185148466
11-24,-1.080897482763637,9.123829086229359,12.902876688177063,11.100667430065627,-3.932965338389174,5.223121469958434,-10.913675940286168,2.7838370517371804,-3.6792239629205175,-0.3083769695098715,-2.3466284565538187,0.0,5.0,6.0,1.57271363131204
11-25,-5.0926704486772545,9.574841429008284,12.577025363791925,11.074965294611108,-3.932965338389174,5.297869076032511,-11.243471765260184,1.791434095605967,-1.6584761362164266,-1.1687067687111985,-2.3466284565538187,0.0,5.0,6.0,1.2394346954368112
11-26,-1.6969517927278952,9.826924665286775,9.554063670463645,11.074965294611108,-4.46338088682132,5.825410623513996,-14.364160593697825,2.6597376315280963,-1.5070544660436451,-1.1687067687111985,-3.884355341828769,0.0,5.0,6.0,0.9880410029644141
11-27,-2.8606128938089608,10.296321871941766,9.889747296399436,11.523170845377495,-3.1410659371239307,5.2152790670974944,-18.471831875890647,2.7472527891306204,-1.5070544660436451,0.2827478102522813,-3.8838869470483455,0.0,6.0,5.0,0.8408389633569641
11-28,-0.4563902272820624,10.047398573993881,9.889747296399436,11.647459268423074,-0.8326965751983563,3.52702572157346,-16.210572970980547,2.7472527891306204,-2.8125814086765195,-2.6609451179114387,-5.081148109066304,0.0,5.0,6.0,0.8170457700337703
11-29,0.5355643428020397,10.047398573993881,9.245716804139013,11.693551931300291,-0.07068172021387692,3.66719688684342,-15.765274910466955,2.097900605526989,-6.083407886511134,-3.4426860474337917,-6.5762238302425935,0.0,6.0,5.0,0.4457545624781068
11-30,0.5355643428020397,9.862410671731643,4.650656129596413,10.821678363793604,0.8101101589613741,3.658752983460308,-15.765274910466955,4.194544156045924,-3.9868253252982417,-4.402215963152764,-5.371056347412418,0.0,7.0,4.0,0.41736202167174397
12-01,-0.26778217140101984,8.752280994656196,4.712098087653619,11.36679725446908,1.130486060952851,3.658752983460308,-16.88198644249688,5.271536705286904,-1.7108237329452278,-2.741378061063232,-5.0179792080917975,0.0,6.0,5.0,0.6893335392067336
12-02,-1.3389108570050994,9.266796861882662,6.818180675920112,13.061604549797716,1.130486060952851,3.9829972348041593,-15.327348983254087,6.179938377558242,-2.6187151396067345,-2.474741110436494,-5.0179792080917975,0.0,6.0,5.0,1.138525705210128
12-03,1.0625923867052955,8.690241832585956,5.910294600669199,13.061604549797716,2.2071441461932664,2.173344442790774,-16.836571047254306,5.493749973240408,-1.0660229255697857,-2.474741110436494,-4.576657769031867,0.0,7.0,4.0,1.1370815899741809
12-04,-0.033135284230334905,9.507641959200916,5.30354029684231,13.51448707445326,1.5127032954828943,3.9994816608382977,-15.449989642377734,5.4285735332319875,-1.0660229255697857,1.0751654826926806,-5.5083405194048884,0.0,7.0,4.0,1.5236754109299664
12-05,1.774660322998414,9.864712853491707,5.30354029684231,14.12551321951234,2.9108567390949127,5.879122320294846,-12.144835274107706,5.4285735332319875,-0.3696701395322601,1.9464255130235728,-8.857716984421938,0.0,8.0,3.0,2.155098533369016
12-06,2.394433763717496,9.864712853491707,5.003335421223324,11.359712888868591,0.561142187847089,5.516221932983479,-10.51578722502056,5.2019692406865765,0.11175829931140648,1.3705026957169764,-10.312102873827467,0.0,9.0,2.0,1.7129915987498847
12-07,2.394433763717496,9.301014976149323,5.859466454756014,12.927754302296545,-0.06431769030063061,5.672201508504108,-10.51578722502056,3.2709356599253385,0.06885431566716063,5.389054367634307,-11.438861717114355,0.0,8.0,3.0,1.9053957263512284
12-08,4.805049595074924,9.988727074614793,9.595190509901476,8.746599210626709,0.187100849617478,5.672201508504108,-8.157894736842106,2.3189476847819246,0.2066162926976136,4.846872169368764,-11.261713071051615,0.0,9.0,2.0,2.2456414239411733
12-09,4.298827817428137,10.50865759327351,8.879722168136047,5.832254953479314,0.187100849617478,4.465798682036982,-7.244693667207898,2.9989250878736757,-0.2426332544147187,5.722616093990473,-11.261713071051615,0.0,8.0,3.0,2.0120719377634493
12-10,5.505759686159335,10.250718800016587,10.27509454409951,5.832254953479314,-0.1550350415411687,6.2208042023288215,-5.489909182040007,4.223299489437955,-0.05189202315213026,5.722616093990473,-10.835010827778477,0.0,7.0,4.0,2.6248917245833514
12-11,5.735462205242883,7.580977095340619,10.108939106961945,4.919773295992559,3.3907252431705297,5.933060058462363,-2.0781659541586355,4.046295235386975,-0.05189202315213026,6.105337232245545,-10.849528218852148,0.0,8.0,3.0,2.903415273053376
12-12,2.8641206092415987,7.036399483017084,10.108939106961945,4.251229014033323,3.1337215469826383,7.048922906565356,-3.0146521846228183,4.046295235386975,-0.2335207028650481,6.056477195397647,-12.488428548807207,0.0,8.0,3.0,2.4007919717742907
12-13,3.8808372087423284,7.036399483017084,11.372551301027805,5.373343293674936,2.9758118412959713,7.881067417913522,-2.142561711140502,5.602562633612733,-0.3366126252321052,9.458004921589216,-15.389952615945194,0.0,8.0,3.0,2.9759542623796498
12-14,3.8808372087423284,6.031197038296474,13.01518481257258,0.2839680485882927,4.3874876492754975,7.451095894694866,-2.142561711140502,6.2670569208610925,3.0989267989272604,10.8440173951826,-21.545200527536842,0.0,9.0,2.0,2.6310007940386373
12-15,5.297902063880271,4.479346842140676,12.599537092906836,1.8691557615617418,5.5558487625156365,7.451095894694866,-2.9995848008236052,6.978994535725743,2.076067784181804,12.86445125168063,-22.146855324183182,0.0,9.0,2.0,2.8354966553567844
12-16,2.915169593777233,6.828321171067989,12.986872582054982,3.312050046469844,5.5558487625156365,8.066361715337306,-3.308936206356204,6.373839896350446,-0.7111262788879543,13.408220701648565,-22.146855324183182,0.0,8.0,3.0,2.773313888316222
12-17,5.248617962599604,7.2075077111876125,14.849890246895022,3.312050046469844,4.929324305789507,5.758141978427808,-0.08149368243252697,6.062676038241568,-3.2817455815465824,13.408220701648565,-22.00935976866058,0.0,8.0,3.0,2.950319163218321
12-18,7.374161926985912,6.1317499252408005,13.28219479077483,1.626319903348163,4.3678076344835866,3.555956411906652,0.2486251598513481,6.844805530214107,-3.2817455815465824,13.791567685864555,-27.087555314769432,0.0,9.0,2.0,2.2378240060294963
12-19,6.980829134830294,6.419726609179355,13.28219479077483,2.5620056842557086,6.328987872263684,4.122845257710166,2.3599100531330093,6.844805530214107,-3.4418312283514916,13.878718179967313,-26.778364804130174,0.0,9.0,2.0,2.7133189233205663
12-20,7.483316153861399,6.419726609179355,11.473973940496574,0.3115482357031901,5.297880123185338,2.106245128348123,2.1141633297187217,7.406333099111144,-4.545048172097056,13.914510592550759,-25.7905272925277,0.0,9.0,2.0,2.1826768122941544
12-21,7.483316153861399,6.283375349471079,11.33175003779292,1.7184172092226602,7.338030002625068,2.4390202786158706,2.1141633297187217,6.358658606643593,-5.378685084059665,13.505747874546337,-27.416414680068986,0.0,9.0,2.0,2.1481149231974164
12-22,6.466475665121938,7.9117435292335285,10.962161502322635,0.7194213175429922,7.036180093481307,2.4390202786158706,0.5738444420787407,6.917497283439117,-3.041859028196756,13.679459617046414,-23.203034118926826,0.0,9.0,2.0,2.53840921514658
12-23,5.738357366249565,6.514617435867044,8.851779488354266,0.15503245463960136,7.036180093481307,1.8143915526968968,0.059825709035439184,6.432801090068624,-1.0515330561238208,13.523296395240585,-23.203034118926826,0.0,9.0,2.0,2.1559762008818897
12-24,5.8777076424255075,5.141682098495034,7.134171348717576,0.15503245463960136,5.9937816264872525,1.8390324430569136,2.0489789422304674,4.8918439818323805,-1.0954635480824662,13.523296395240585,-23.693955556303074,0.0,9.0,2.0,1.8180089857283144
12-26,4.989670068999162,5.712670339982445,7.277751237090904,0.5388615346284512,5.9929050103616675,0.30134614855317393,1.5860512033000231,10.278014760589276,-1.0954635480824662,9.623088171187394,-31.453922742244377,0.0,9.0,2.0,1.1459143486971384
12-27,6.138147253660537,5.712670339982445,7.277751237090904,3.072667346168315,6.250626101700933,-2.1039261138691585,2.3269429818371474,10.278014760589276,-0.9445375420087746,7.488825403775781,-36.854524737533495,0.0,8.0,3.0,0.7202214192828263
12-28,6.138147253660537,4.770022069355137,10.921025671672373,3.687038667486199,4.576980171917292,-3.2329755195293264,2.3269429818371474,8.024873323365881,0.4079926482856948,9.047618525348438,-30.339276126242762,0.0,9.0,2.0,1.3606991389297178
12-29,6.813186971126216,2.5910907378176344,9.464265492083626,2.723870420265918,4.431826578579743,-3.2329755195293264,1.6621010642662368,6.641197984626121,-0.3091195373361123,8.025189425542637,-37.073318032058395,0.0,8.0,3.0,0.14477629878202455
12-30,6.367518621737663,4.171430315290178,10.312599475539548,4.359806375547123,4.431826578579743,-2.877702814236333,3.0512165069517865,7.713282182904406,-1.6627899631689615,8.173895917050741,-37.073318032058395,0.0,8.0,3.0,0.580647097011458
12-31,8.759355401815547,4.291890710655896,9.744454511624896,4.359806375547123,3.8284076845614337,-0.6312568426236908,5.894678902468643,6.369805507818197,-2.573017264356728,8.173895917050741,-37.66113624082735,0.0,8.0,3.0,0.8797403886445595
