,2009,2010,2011,2012,2013,2014,2015,2016,2017,2018,2019,2020,ups,downs,end_day_sum,avg
01-02,-5.305000305175781,2.020000457763672,0.4149971008300781,4.279998779296875,1.839996337890625,2.8199996948242188,0.34000396728515625,6.8000030517578125,8.790000915527344,-2.959999084472656,7.989997863769531,-37.410003662109375,9.0,3.0,03-17,-0.8650004069010416
01-03,-4.654998779296875,2.6500015258789062,0.4149971008300781,4.279998779296875,1.7750015258789062,3.2750015258789062,1.8899993896484373,8.650001525878906,8.790000915527344,-3.910003662109375,12.05999755859375,-47.27000427246094,9.0,3.0,03-18,-1.0041672388712566
01-04,-4.144998550415038,2.6500015258789062,1.0449981689453125,4.1699981689453125,0.81500244140625,5.220001220703125,3.0800018310546875,8.650001525878906,6.350006103515625,-2.540000915527344,11.039993286132812,-46.469993591308594,9.0,3.0,03-19,-0.8445823987325033
01-05,-4.144998550415038,2.6300010681152344,1.6300010681152344,4.5249977111816415,1.3050003051757812,3.8199996948242183,3.0800018310546875,8.300003051757812,8.8699951171875,-5.699996948242188,10.660003662109377,-56.16999816894531,9.0,3.0,03-20,-1.7662491798400881
01-06,-5.019998550415039,1.5749988555908203,1.9300003051757808,4.849998474121094,1.375,3.8199996948242183,3.3550033569335938,12.93000030517578,9.980003356933594,-4.870002746582031,10.580001831054688,-56.16999816894531,9.0,3.0,03-21,-1.3054161071777344
01-07,-4.020000457763672,1.5300006866455078,3.1199989318847656,4.799999237060547,1.375,3.44000244140625,1.125,13.650001525878904,8.1300048828125,-4.7700042724609375,10.580001831054688,-55.16000366210938,9.0,3.0,03-22,-1.3499999046325684
01-08,-4.739999771118164,1.8650016784667969,2.7549972534179688,4.904998779296875,0.3899993896484375,2.6350021362304688,-0.410003662109375,14.400001525878904,7.900001525878906,-4.7700042724609375,9.75,-51.85000610351562,8.0,4.0,03-23,-1.4308342933654783
01-09,-3.1550006866455083,2.185001373291016,2.8499984741210938,4.904998779296875,-2.055000305175781,2.4949951171875,-0.2700042724609375,15.389999389648438,7.900001525878906,-4.2700042724609375,11.139999389648438,-48.94000244140625,7.0,5.0,03-24,-0.9854181607564292
01-10,-2.9950008392333984,1.875,2.8499984741210938,4.0,-2.9000015258789062,1.31500244140625,-0.3799972534179688,15.389999389648438,7.860000610351562,-5.3000030517578125,4.040000915527344,-55.58999633789063,7.0,5.0,03-25,-2.4862497647603354
01-11,-2.8500003814697266,1.875,3.125,3.180000305175781,-4.105003356933594,2.555000305175781,-1.8949966430664065,15.389999389648438,7.9900054931640625,-8.089996337890625,5.199996948242188,-47.16999816894531,7.0,5.0,03-26,-2.0662493705749507
01-12,-2.8500003814697266,2.299999237060547,2.834999084472656,2.825000762939453,-3.4950027465820312,1.3250045776367188,-1.8949966430664065,14.719993591308596,6.9199981689453125,-6.239997863769531,6.400001525878906,-43.51000213623047,7.0,5.0,03-27,-1.722083568572998
01-13,-2.4099998474121094,1.6100006103515625,3.450000762939453,3.945003509521485,-3.4950027465820312,1.3250045776367188,-2.264999389648437,16.089996337890625,7.5,-4.729995727539063,8.120002746582031,-43.51000213623047,7.0,5.0,03-28,-1.1974992752075195
01-14,-0.7800006866455078,1.6399993896484375,3.1199989318847656,3.8499984741210938,-3.4950027465820312,-0.23999786376953125,-2.834999084472656,15.379997253417967,9.0,-4.729995727539063,8.120002746582031,-44.219993591308594,6.0,6.0,03-29,-1.265832742055257
01-15,-2.305000305175781,1.855001449584961,3.699996948242188,3.3699989318847656,-3.0500030517578125,-0.5849990844726562,-1.6199951171875,17.5,9.79999542236328,-4.729995727539063,9.080001831054688,-40.9800033569336,6.0,6.0,03-30,-0.6637501716613771
01-16,-2.2800006866455083,0.9099998474121094,6.3699989318847665,3.3699989318847656,-2.8550033569335938,1.5699996948242188,-2.9449996948242188,18.970001220703125,9.79999542236328,-4.729995727539063,9.18000030517578,-42.410003662109375,7.0,5.0,03-31,-0.4208340644836426
01-17,-1.3499984741210938,0.9099998474121094,6.3699989318847665,3.3699989318847656,-4.019996643066406,1.9900054931640625,-1.3100051879882812,20.30000305175781,9.79999542236328,-4.529998779296875,5.510002136230469,-42.57000732421875,7.0,5.0,04-01,-0.4608335494995117
01-18,-0.06499862670898438,0.9099998474121094,6.3699989318847665,2.895000457763672,-4.284996032714844,3.3199996948242188,-1.3100051879882812,20.30000305175781,8.540000915527344,-6.810005187988281,8.790000915527344,-42.290000915527344,7.0,5.0,04-02,-0.3029168446858724
01-19,-0.06499862670898438,0.9099998474121094,6.209999084472656,4.020000457763672,-4.540000915527344,3.6299972534179688,-1.3100051879882812,20.30000305175781,7.580001831054687,-10.18000030517578,9.889999389648438,-46.0,7.0,5.0,04-03,-0.7962503433227539
01-20,-0.06499862670898438,1.135000228881836,6.8699989318847665,4.3800010681152335,-5.025001525878906,3.6299972534179688,-1.3100051879882812,17.970001220703125,6.080001831054688,-6.599998474121094,10.230003356933594,-46.0,7.0,5.0,04-04,-0.7254166603088379
01-21,0.7950000762939453,3.700000762939453,7.1699981689453125,3.674999237060547,-5.025001525878906,3.6299972534179688,-1.7849960327148438,21.19000244140625,4.529998779296875,-5.989997863769531,10.230003356933594,-46.0,8.0,4.0,04-05,-0.323332945505778
01-22,2.635000228881836,3.5,6.520000457763673,3.674999237060547,-5.025001525878906,5.104995727539063,-3.8850021362304688,19.029998779296875,4.760002136230469,-5.989997863769531,10.230003356933594,-45.43000030517578,8.0,4.0,04-06,-0.4062501589457194
01-23,2.5300006866455083,3.259998321533203,6.5500030517578125,3.674999237060547,-4.7550048828125,5.43499755859375,-1.7949981689453125,20.31999969482422,4.760002136230469,-6.459999084472656,12.949996948242188,-45.83000183105469,8.0,4.0,04-07,0.05333280563354492
01-24,1.9750003814697263,3.18499755859375,6.5500030517578125,3.59000015258789,-6.125,5.7350006103515625,-1.4600067138671875,20.970001220703125,3.1999969482421875,-7.2700042724609375,12.739997863769533,-39.18000030517578,8.0,4.0,04-08,0.32583220799764
01-25,1.9750003814697263,3.18499755859375,6.415000915527344,2.25,-6.3800048828125,4.654998779296875,-0.845001220703125,20.970001220703125,4.189994812011719,-10.81999969482422,10.900001525878906,-31.87000274658203,8.0,4.0,04-09,0.3854155540466309
01-26,1.9750003814697263,3.7399978637695312,5.6399993896484375,3.729999542236328,-3.675003051757813,6.25,-0.845001220703125,19.5,4.200004577636719,-11.860000610351562,10.580001831054688,-31.87000274658203,8.0,4.0,04-10,0.6137496630350748
01-27,1.834999084472656,4.210000991821288,5.709999084472656,2.595001220703125,-2.6699981689453125,6.25,0.08499908447265625,17.80999755859375,3.7700042724609375,-9.209999084472656,11.20000457763672,-31.87000274658203,9.0,3.0,04-11,0.8095838228861489
01-28,0.979999542236328,4.835000991821289,5.854999542236327,1.30999755859375,-2.6699981689453125,6.6300048828125,3.299995422363281,19.740005493164066,4.029998779296875,-10.290000915527344,11.20000457763672,-32.94000244140625,9.0,3.0,04-12,0.9983337720235188
01-29,2.7950000762939453,5.104999542236328,4.740001678466797,2.5349998474121094,-3.1999969482421875,3.3800048828125,1.8949966430664065,16.55999755859375,4.029998779296875,-10.290000915527344,10.419998168945312,-30.06999969482422,9.0,3.0,04-13,0.6583333015441895
01-30,3.7749996185302734,4.905000686645508,3.9949989318847656,2.5349998474121094,-1.30999755859375,1.5750045776367188,3.3549957275390625,17.350006103515625,4.029998779296875,-9.06999969482422,9.469993591308594,-25.94000244140625,9.0,3.0,04-14,1.2224998474121094
01-31,3.3199996948242188,4.995000839233398,3.9949989318847656,2.479999542236328,-0.80999755859375,3.0999984741210938,2.1150054931640625,18.64000701904297,6.049995422363281,-8.69000244140625,10.159996032714844,-26.159996032714844,9.0,3.0,04-15,1.5995837847391765
02-01,3.4749984741210938,4.995000839233398,3.1299972534179688,2.9850006103515625,-4.55999755859375,5.830001831054688,1.7700042724609375,18.64000701904297,4.5,-7.620002746582031,10.70000457763672,-28.54999542236328,9.0,3.0,04-16,1.2745849291483562
02-02,3.4749984741210938,4.785001754760742,3.669998168945313,2.959999084472656,-2.1949996948242188,5.830001831054688,1.7700042724609375,21.19000244140625,3.839996337890625,-3.840003967285156,12.139999389648438,-32.85999298095703,9.0,3.0,04-17,1.7304170926411946
02-03,3.7199993133544917,5.260002136230469,3.5250015258789062,2.84000015258789,-3.270004272460937,5.830001831054688,0.18500518798828125,19.400001525878906,4.449996948242188,1.0999984741210938,12.139999389648438,-32.85999298095703,10.0,2.0,04-18,1.8600007692972822
02-04,4.819999694824219,5.7150020599365225,2.770000457763672,3.729999542236328,-3.270004272460937,5.644996643066406,-0.3499984741210937,19.650001525878906,4.819999694824219,1.2099990844726562,12.139999389648438,-34.04999542236328,9.0,3.0,04-19,1.9024999936421711
02-05,3.8150005340576167,5.9299983978271475,3.5250015258789062,3.795001983642578,-2.9850006103515625,7.205001831054688,-1.8799972534179688,22.87999725341797,5.080001831054688,1.2099990844726562,11.389999389648438,-35.959999084472656,9.0,3.0,04-20,2.0004170735677085
02-06,2.0349998474121094,6.365001678466798,3.5250015258789062,3.795001983642578,1.1599960327148438,10.270004272460938,-1.5900039672851562,26.900001525878906,5.080001831054688,-0.7699966430664062,11.290000915527346,-31.05000305175781,9.0,3.0,04-21,3.0841671625773106
02-07,2.1900005340576167,6.404998779296875,3.5250015258789062,3.60000228881836,1.80999755859375,7.0,0.11499786376953125,26.41999816894531,4.989997863769531,-4.489997863769531,15.010002136230467,-31.51000213623047,10.0,2.0,04-22,2.9220830599466963
02-08,2.4100017547607417,6.404998779296875,3.204998016357422,4.694999694824219,2.334999084472656,6.215003967285156,-0.2100067138671875,26.41999816894531,6.2700042724609375,-1.4300003051757812,12.379997253417967,-32.87999725341797,9.0,3.0,04-23,2.9845830599466963
02-09,2.4100017547607417,5.664999008178711,4.025001525878906,4.6300010681152335,2.7249984741210938,6.185005187988281,-0.2100067138671875,25.08000183105469,5.810005187988281,-3.4900054931640625,12.900001525878904,-30.81999969482422,9.0,3.0,04-24,2.909166971842448
02-10,3.345001220703125,5.25,3.560001373291016,5.0900001525878915,2.8149948120117188,6.185005187988281,-0.9200057983398438,18.920005798339844,7.470001220703125,-8.210006713867188,11.919998168945312,-30.81999969482422,9.0,3.0,04-25,2.050416310628256
02-11,3.0450000762939453,5.519998550415039,2.5250015258789062,5.459999084472656,2.8149948120117188,5.569999694824219,-1.1699981689453125,23.920005798339844,10.010002136230467,-6.100006103515625,11.919998168945312,-31.87999725341797,9.0,3.0,04-26,2.636249860127767
02-12,4.270000457763672,5.180000305175781,2.740001678466797,6.5449981689453125,4.2649993896484375,4.375,-4.8600006103515625,20.81999969482422,9.670005798339844,-6.100006103515625,9.029998779296877,-31.84000396728516,9.0,3.0,04-27,2.0079161326090493
02-13,3.909999847412109,3.770000457763672,2.555000305175781,6.5449981689453125,3.900001525878906,2.875,-7.959999084472656,19.93000030517578,9.670005798339844,-6.680000305175781,7.639999389648437,-27.720001220703125,9.0,3.0,04-28,1.5362504323323567
02-14,4.430000305175781,4.25,2.555000305175781,6.825000762939452,2.964996337890625,1.285003662109375,-7.545005798339844,19.3699951171875,8.910003662109375,-8.620002746582031,10.54999542236328,-24.150001525878906,9.0,3.0,04-29,1.7354154586791992
02-15,4.8699989318847665,4.25,2.625,7.639999389648437,3.81500244140625,3.2050018310546875,-6.840003967285156,19.3699951171875,9.790000915527344,-8.220001220703125,8.0,-27.84000396728516,9.0,3.0,04-30,1.7220824559529622
02-16,4.8699989318847665,4.25,2.720001220703125,7.1300010681152335,5.714996337890625,3.514999389648437,-6.840003967285156,19.3699951171875,8.069999694824219,-10.280006408691406,8.769996643066406,-23.45000457763672,9.0,3.0,05-01,1.986664454142253
02-17,4.8699989318847665,4.714998245239258,2.6100006103515625,6.55999755859375,4.7449951171875,3.514999389648437,-6.840003967285156,17.769996643066406,7.089996337890625,-8.480003356933594,6.739997863769531,-23.45000457763672,9.0,3.0,05-02,1.6537473996480303
02-18,4.979999542236328,4.1300010681152335,1.9949989318847656,7.5349998474121085,4.7449951171875,3.514999389648437,-7.340003967285156,15.699996948242188,6.470001220703125,-9.69000244140625,6.739997863769531,-23.45000457763672,9.0,3.0,05-03,1.2774982452392578
02-19,5.295000076293945,4.399999618530273,2.520000457763672,7.610000610351562,4.7449951171875,2.790000915527344,-5.474998474121094,15.610000610351562,6.199996948242188,-9.69000244140625,6.739997863769531,-28.68999481201172,9.0,3.0,05-04,1.0045830408732097
02-20,6.915000915527344,3.200000762939453,1.6650009155273438,7.610000610351562,8.485000610351562,3.214996337890625,-5.805000305175781,12.779998779296875,6.199996948242188,-9.69000244140625,7.0200042724609375,-31.36000061035156,9.0,3.0,05-05,0.8529163996378579
02-21,7.345000267028809,2.700000762939453,1.6650009155273438,7.610000610351562,11.099998474121094,3.0100021362304688,-7.455001831054687,11.8699951171875,6.199996948242188,-10.660003662109377,7.5,-32.080001831054695,9.0,3.0,05-06,0.7337489922841391
02-22,7.425000190734862,2.700000762939453,1.6650009155273438,7.6999969482421875,9.719993591308594,3.4749984741210938,-7.220001220703125,11.8699951171875,7.080001831054688,-9.459999084472656,4.849998474121094,-27.0,9.0,3.0,05-07,1.067082166671753
02-23,7.425000190734862,3.0100002288818364,1.8449974060058596,6.7350006103515625,11.459999084472654,5.1100006103515625,-7.220001220703125,13.719993591308596,7.959999084472656,-11.25,2.139999389648437,-26.469993591308594,9.0,3.0,05-08,1.2054162820180256
02-24,6.7250003814697275,1.3250007629394531,2.220001220703125,7.615001678466798,12.419998168945312,5.1100006103515625,-7.360000610351562,12.900001525878904,5.120002746582031,-10.849998474121094,1.6999969482421875,-26.469993591308594,9.0,3.0,05-09,0.8712509473164877
02-25,5.875,1.364999771118164,1.9249992370605469,6.7849998474121085,12.419998168945312,3.9850006103515625,-5.379997253417969,11.29999542236328,5.400001525878906,-10.479995727539062,1.6999969482421875,-20.82999420166016,9.0,3.0,05-10,1.1720836957295735
02-26,6.640000343322754,2.7749977111816406,1.7000007629394531,6.5,11.230003356933594,1.5749969482421875,-3.3949966430664062,9.279998779296877,5.400001525878906,-10.479995727539062,2.549995422363281,-18.729995727539066,9.0,3.0,05-11,1.253750562667847
02-27,6.2400007247924805,2.024999618530273,0.8050003051757812,6.5,9.629997253417967,1.464996337890625,-4.025001525878906,12.20000457763672,5.400001525878906,-8.259994506835938,0.7099990844726562,-11.609992980957033,9.0,3.0,05-12,1.756667534510295
02-28,6.82499885559082,2.6299991607666016,0.8050003051757812,6.5050010681152335,9.735000610351562,0.7949981689453125,-6.604995727539063,10.889999389648438,5.4199981689453125,-6.330001831054688,0.26999664306640625,-14.029998779296875,9.0,3.0,05-13,1.4091663360595703
02-29,0.0,0.0,0.0,7.240001678466798,0.0,0.0,0.0,10.889999389648438,0.0,0.0,0.0,-17.68000030517578,2.0,1.0,05-14,0.037500063578287765
03-01,5.924999237060548,2.6299991607666016,1.125,6.2649993896484375,9.20000457763672,0.33499908447265625,-6.150001525878906,7.839996337890625,4.1699981689453125,-10.68000030517578,-1.5100021362304688,-21.06999969482422,8.0,4.0,05-15,-0.1600006421407064
03-02,5.924999237060548,2.520000457763672,0.8499984741210938,5.3100013732910165,10.610000610351562,-0.25,-6.150001525878906,8.159996032714844,4.740005493164063,-7.279998779296875,0.1999969482421875,-21.06999969482422,8.0,4.0,05-16,0.2970832188924153
03-03,6.045000076293945,1.920000076293945,-0.6349983215332031,5.279998779296875,10.44000244140625,-0.25,-4.569999694824219,6.399993896484375,5.920005798339844,-9.730003356933594,0.5800018310546875,-20.150001525878906,7.0,5.0,05-17,0.10416666666666667
03-04,5.744999885559082,1.0899982452392578,0.02500152587890625,5.0649986267089835,10.44000244140625,-1.81500244140625,-3.2699966430664062,5.670005798339844,6.210006713867188,-9.260002136230467,0.5800018310546875,-21.98999786376953,8.0,4.0,05-18,-0.12583200136820474
03-05,6.8600006103515625,1.4150009155273438,-0.04999923706054688,5.0649986267089835,10.125,-2.454994201660156,-1.875,3.6399993896484375,4.280006408691406,-9.260002136230467,1.19000244140625,-15.730003356933596,7.0,5.0,05-19,0.2670841217041016
03-06,7.330000877380371,1.039999008178711,0.7800025939941406,5.6699981689453125,10.050003051757812,-2.389999389648437,-0.5200042724609375,3.0199966430664062,4.280006408691406,-11.56999969482422,2.3699951171875,-9.599998474121094,8.0,4.0,05-20,0.8716666698455809
03-07,7.579999923706055,0.4050006866455078,0.7800025939941406,4.1499977111816415,11.68499755859375,-2.0150070190429688,-1.149993896484375,3.0199966430664062,4.700004577636719,-10.609992980957033,1.9300003051757808,-4.19000244140625,8.0,4.0,05-21,1.3570836385091145
03-08,8.0,0.4050006866455078,0.125,2.30999755859375,9.860000610351562,-2.305000305175781,-1.6800003051757812,4.879997253417969,-1.44000244140625,-10.45000457763672,-1.8899993896484373,-1.4200057983398438,6.0,6.0,05-22,0.5329152743021647
03-09,8.0,0.7150001525878906,0.4399986267089844,3.3850021362304688,10.580001831054688,-1.56500244140625,-1.6800003051757812,3.3600006103515625,3.800003051757813,-12.620002746582033,-2.3000030517578125,-1.4200057983398438,7.0,5.0,05-23,0.8912493387858073
03-10,6.405000686645508,-1.0699996948242188,0.8000030517578125,3.085002899169922,9.885002136230467,-1.56500244140625,0.6299972534179688,3.299995422363281,4.330001831054688,-13.620002746582033,-2.8199996948242188,-5.990005493164063,7.0,5.0,05-24,0.2808327674865723
03-11,6.295000076293945,-0.3000011444091797,-0.4199981689453125,3.8550033569335938,9.885002136230467,-0.1699981689453125,1.875,1.4199981689453125,4.019996643066406,-13.75,-2.8199996948242188,-0.9800033569335938,6.0,6.0,05-25,0.7424999872843424
03-12,4.844999313354492,-1.31500244140625,-0.954998016357422,3.8550033569335938,9.205001831054688,-0.0200042724609375,-0.2350006103515625,3.020004272460937,4.260002136230469,-13.75,-2.6699981689453125,5.189994812011719,6.0,6.0,05-26,0.9525001843770344
03-13,5.815000534057617,-1.1349983215332031,-0.25499725341796875,3.2450027465820312,8.014999389648438,0.720001220703125,0.6399993896484375,3.5800018310546875,4.260002136230469,-13.360000610351562,-2.8499984741210938,1.9899978637695312,8.0,4.0,05-27,0.8887508710225424
03-14,6.040000915527344,-1.3149986267089844,-0.25499725341796875,3.560001373291016,7.31500244140625,2.139999389648437,-1.6800003051757812,3.5800018310546875,5.209999084472656,-12.330001831054688,-2.8600006103515625,17.580001831054688,7.0,5.0,05-28,2.2487506866455083
03-15,5.4350013732910165,-1.3149986267089844,0.2649993896484375,5.279998779296875,7.764999389648437,1.0799942016601562,-0.470001220703125,3.55999755859375,2.9000015258789062,-11.779998779296875,-2.279998779296875,19.93000030517578,8.0,4.0,05-29,2.5308329264322915
03-16,5.4350013732910165,-1.3899993896484375,0.9050025939941406,4.795001983642578,8.114997863769531,2.1449966430664062,-0.470001220703125,1.7099990844726562,3.290000915527344,-11.529998779296875,-3.4399948120117188,19.93000030517578,8.0,4.0,05-30,2.4579172134399414
03-17,4.920000076293945,-2.020000457763672,-0.030002593994140625,5.319999694824219,8.0,2.1449966430664062,0.94000244140625,-1.7000045776367188,2.75,-12.18000030517578,-3.7699966430664062,19.729995727539066,7.0,5.0,05-31,2.0087491671244297
03-18,4.549999237060547,0.17499923706054688,0.17000198364257812,3.900001525878906,8.0,1.1449966430664062,0.09000396728515625,-0.3000030517578125,0.910003662109375,-11.790000915527346,-3.7699966430664062,29.720001220703125,9.0,3.0,06-01,2.7333339055379238
03-19,4.6850013732910165,-0.4300003051757813,0.06999969482421875,3.900001525878906,8.115005493164062,2.9199981689453125,1.3600006103515625,-1.2099990844726562,0.7900009155273438,-11.790000915527346,-3.720001220703125,25.11000061035156,8.0,4.0,06-02,2.4833339055379238
03-20,5.665000915527344,-1.470001220703125,-0.8999977111816406,4.165000915527344,7.650001525878906,3.43499755859375,-0.0149993896484375,-0.9099960327148438,0.7900009155273438,-12.419998168945312,-3.5800018310546875,23.650001525878906,6.0,6.0,06-03,2.1716674168904624
03-21,4.315000534057616,-0.375,-0.8999977111816406,4.650001525878906,8.160003662109375,3.6050033569335938,0.910003662109375,-0.9099960327148438,1.8799972534179688,-13.029998779296875,-7.989997863769531,35.01999664306641,7.0,5.0,06-04,2.9445846875508632
03-22,3.799999237060547,-0.375,-0.6649971008300781,3.0,9.584999084472656,4.254997253417969,1.7800064086914062,-1.8599929809570312,4.910003662109375,-9.29999542236328,1.089996337890625,39.18000030517578,8.0,4.0,06-05,4.616668065388997
03-23,3.799999237060547,-0.6599998474121094,-1.0550003051757812,2.05999755859375,9.834999084472656,5.324996948242188,1.7800064086914062,-0.94000244140625,5.799995422363281,-7.0500030517578125,4.650001525878906,39.18000030517578,8.0,4.0,06-06,5.22708257039388
03-24,4.0049991607666025,-0.7350006103515625,-1.875,1.789997100830078,8.050003051757812,5.324996948242188,2.25,-1.279998779296875,4.569999694824219,-9.43000030517578,5.290000915527344,29.62999725341797,8.0,4.0,06-07,3.965832869211833
03-25,4.059999465942384,-1.4500007629394531,-2.670001983642578,3.1999969482421875,8.050003051757812,5.495002746582031,3.154998779296875,-1.279998779296875,4.55999755859375,-8.0,5.290000915527344,25.41000366210937,8.0,4.0,06-08,3.8183334668477382
03-26,3.165000915527344,-2.774999618530273,-1.8499984741210935,3.1999969482421875,7.975006103515625,6.3699951171875,3.665000915527344,-1.6300048828125,4.029998779296875,-8.0,3.9899978637695312,24.18999481201172,8.0,4.0,06-09,3.5274990399678554
03-27,3.7450008392333984,-1.8150005340576167,-2.46500015258789,3.0349998474121094,8.925003051757812,7.6999969482421875,2.5699996948242188,1.5499954223632812,4.029998779296875,-7.980003356933594,2.909996032714844,28.400001525878906,9.0,3.0,06-10,4.217082341512044
03-28,4.325000762939453,-1.92500114440918,-2.46500015258789,3.900001525878906,10.489997863769533,7.150001525878906,2.3799972534179688,1.5499954223632812,2.8799972534179688,-6.8800048828125,2.2699966430664062,25.5,9.0,3.0,06-11,4.097915172576903
03-29,4.190000534057616,-1.92500114440918,-3.0699996948242188,3.9949989318847656,10.05500030517578,6.1699981689453125,3.6949996948242183,0.3799972534179688,2.1500015258789062,-7.4499969482421875,1.5199966430664062,23.12000274658203,9.0,3.0,06-12,3.569166501363118
03-30,4.190000534057616,-2.070001602172852,-5.334999084472656,3.079998016357422,8.8699951171875,6.069999694824219,3.6949996948242183,-1.470001220703125,4.699996948242188,-4.330001831054688,2.6299972534179688,23.12000274658203,8.0,4.0,06-13,3.5958321889241542
03-31,4.174999237060547,-1.0400009155273438,-5.549999237060547,3.2350006103515625,8.394996643066406,6.069999694824219,3.170005798339844,-2.25,5.05999755859375,-4.730003356933594,2.7699966430664062,25.44000244140625,8.0,4.0,06-14,3.7287495930989594
04-01,2.9899997711181636,-0.8600006103515625,-5.6300010681152335,2.115001678466797,8.394996643066406,4.480003356933594,4.7649993896484375,-5.4199981689453125,6.489997863769531,-4.959999084472656,2.7699966430664062,19.669998168945312,8.0,4.0,06-15,2.900416215260824
04-02,1.5400009155273438,-1.4249992370605469,-5.4949989318847665,2.115001678466797,8.629997253417969,3.160003662109375,4.834999084472656,-5.1100006103515625,6.4199981689453125,-4.959999084472656,2.75,20.89999389648437,8.0,4.0,06-16,2.7799997329711914
04-03,-0.2900009155273437,-0.6699981689453125,-6.259998321533202,3.115001678466797,11.275001525878904,3.4500045776367188,3.3199996948242188,-5.569999694824219,6.4199981689453125,-6.879997253417969,2.3300018310546875,22.76999664306641,7.0,5.0,06-17,2.7508341471354165
04-04,-0.6000003814697266,-0.1899986267089844,-6.259998321533202,3.920001983642578,9.965003967285156,2.6300048828125,3.8899993896484375,-5.569999694824219,6.730003356933594,-6.830001831054688,1.5500030517578125,18.1300048828125,7.0,5.0,06-18,2.280418554941813
04-05,-0.5149993896484375,-0.1899986267089844,-6.1899986267089835,3.924999237060547,12.19000244140625,4.719993591308594,4.55999755859375,-4.80999755859375,6.319999694824219,-6.290000915527344,-0.029998779296875,18.240005493164066,6.0,6.0,06-19,2.6608336766560874
04-06,-0.5149993896484375,-0.529998779296875,-6.150001525878906,5.2649993896484375,12.56000518798828,5.2599945068359375,4.55999755859375,-5.120002746582031,5.890007019042969,-4.3899993896484375,0.279998779296875,18.240005493164066,7.0,5.0,06-20,2.9458338419596357
04-07,0.220001220703125,-0.6449966430664062,-5.6599998474121085,5.9650001525878915,11.360000610351562,5.2599945068359375,4.220001220703125,-2.430000305175781,5.05999755859375,-5.480003356933594,1.2600021362304688,13.780006408691404,8.0,4.0,06-21,2.742500305175781
04-08,0.034999847412109375,-0.6349983215332031,-4.954998016357422,5.895000457763673,11.360000610351562,5.5449981689453125,4.7449951171875,-3.410003662109375,4.989997863769531,-4.470001220703125,1.2600021362304688,11.06999969482422,8.0,4.0,06-22,2.619166056315104
04-09,-1.0750007629394531,-0.9350013732910156,-3.604999542236328,5.895000457763673,10.760002136230467,3.7649993896484375,3.1300048828125,-3.6200027465820312,4.8899993896484375,-4.470001220703125,1.3800048828125,6.5500030517578125,7.0,5.0,06-23,1.8887507120768232
04-10,-1.7350006103515625,-1.6749992370605469,-3.60000228881836,6.9750022888183585,7.709999084472656,7.305000305175781,3.4199981689453125,-3.8700027465820312,4.8899993896484375,-5.220001220703125,0.2900009155273437,9.989997863769533,7.0,5.0,06-24,2.03999932607015
04-11,-1.810001373291016,-1.895000457763672,-3.60000228881836,3.939998626708984,5.644996643066406,8.274993896484375,3.4950027465820312,-3.8700027465820312,4.620002746582031,-4.979995727539063,1.5500030517578125,10.010002136230467,7.0,5.0,06-25,1.7816664377848308
04-12,-1.079999923706055,-1.895000457763672,-3.0100021362304688,3.680000305175781,5.214996337890625,7.235000610351562,3.1750030517578125,-5.1300048828125,5.510002136230469,-4.620002746582031,1.3000030517578125,8.199996948242188,7.0,5.0,06-26,1.548332691192627
04-13,-1.079999923706055,-2.115001678466797,-2.6299972534179688,2.805000305175781,8.194999694824219,7.955001831054687,3.1750030517578125,-3.0100021362304688,6.260002136230469,-4.8899993896484375,-0.20000457763671875,8.199996948242188,6.0,6.0,06-27,1.8887499173482256
04-14,-0.5799999237060547,-3.200000762939453,-2.664997100830078,2.96999740600586,8.779998779296875,7.955001831054687,3.9899978637695312,-11.779998779296875,5.430000305175781,-5.939994812011719,-0.94000244140625,9.089996337890623,6.0,6.0,06-28,1.0924998919169109
04-15,-0.2999992370605469,-3.3900012969970703,-2.845001220703125,3.290000915527344,8.779998779296875,7.970001220703125,4.104995727539063,-16.659996032714847,5.099998474121094,-6.659996032714844,-0.94000244140625,14.289993286132812,6.0,6.0,06-29,1.0616660118103027
04-16,-1.270000457763672,-3.1350021362304688,-1.4650001525878906,3.290000915527344,7.224998474121094,5.474998474121094,4.635002136230469,-15.19000244140625,5.680000305175781,-6.659996032714844,-2.8700027465820312,13.239997863769533,6.0,6.0,06-30,0.7462495168050131
04-17,-0.7150001525878906,-4.599998474121094,-1.125,2.5700035095214844,8.31500244140625,2.2949981689453125,1.6750030517578125,-13.260002136230467,5.680000305175781,-7.970001220703125,-1.5,10.6300048828125,6.0,6.0,07-01,0.16625086466471353
04-18,0.3550014495849609,-4.894998550415039,-1.125,2.514999389648437,2.8800048828125,6.805000305175781,0.8800048828125,-13.260002136230467,6.330001831054688,-7.470001220703125,-3.1500015258789062,14.959999084472654,7.0,5.0,07-02,0.4020840326944987
04-19,0.3550014495849609,-4.894998550415039,-2.0,2.560001373291016,3.4250030517578125,6.160003662109375,0.8800048828125,-14.06000518798828,4.650001525878906,-5.909996032714844,1.3899993896484375,14.959999084472654,8.0,4.0,07-03,0.626251220703125
04-20,0.3550014495849609,-5.000001907348633,-2.700000762939453,2.415000915527344,2.4449996948242188,6.160003662109375,0.8800048828125,-13.580001831054688,3.279998779296875,-5.1399993896484375,1.3899993896484375,14.959999084472654,8.0,4.0,07-04,0.45541699727376295
04-21,0.13000106811523438,-5.039999008178711,-1.9249992370605469,1.8449974060058596,2.764999389648437,6.160003662109375,1.1949996948242188,-6.1100006103515625,4.019996643066406,-6.199996948242188,0.8499984741210938,18.04999542236328,8.0,4.0,07-05,1.3116663297017417
04-22,-0.15000152587890625,-4.600000381469727,-0.7900009155273438,1.93499755859375,2.764999389648437,6.25,3.3000030517578125,-8.670005798339844,2.5999984741210938,-6.879997253417969,0.8499984741210938,16.279998779296875,7.0,5.0,07-06,1.0741658210754397
04-23,-0.6499996185302734,-5.349998474121094,-0.970001220703125,1.93499755859375,2.139999389648437,6.004997253417969,2.970001220703125,-9.949996948242188,2.6699981689453125,-6.879997253417969,0.4699935913085938,18.55000305175781,7.0,5.0,07-07,0.9116663932800292
04-24,-1.2199993133544922,-5.079999923706055,-0.4599990844726562,1.4399986267089844,2.305000305175781,7.825004577636719,3.4449996948242188,-9.629997253417967,2.6699981689453125,-3.7699966430664062,2.44000244140625,17.139999389648438,7.0,5.0,07-08,1.4254175821940105
04-25,-1.204999923706055,-3.825000762939453,-0.4599990844726562,0.6599998474121094,2.7549972534179688,7.700004577636719,4.6349945068359375,-9.629997253417967,-0.1399993896484375,-5.069999694824219,2.430000305175781,12.419998168945312,6.0,6.0,07-09,0.8558332125345866
04-26,-1.104999542236328,-3.825000762939453,-0.7299995422363281,0.17499923706054688,4.150001525878906,7.665000915527344,2.674995422363281,-10.580001831054688,-0.4300003051757813,-4.699996948242188,-1.4300003051757812,10.470001220703123,5.0,7.0,07-10,0.19458325703938806
04-27,-1.104999542236328,-2.9449996948242188,-0.11499786376953125,-1.145000457763672,4.754997253417969,8.175003051757812,2.674995422363281,-9.959999084472656,-0.2900009155273437,-4.0500030517578125,-1.1699981689453125,10.470001220703123,4.0,8.0,07-11,0.4412498474121094
04-28,-0.7100009918212891,-2.834999084472656,-1.0099983215332031,-1.5499992370605469,4.5099945068359375,8.175003051757812,2.720001220703125,-6.449996948242188,1.1400070190429688,-1.0799942016601562,-1.6999969482421875,14.980003356933596,5.0,7.0,07-12,1.3491686185201008
04-29,-1.0049991607666016,-3.30999755859375,-2.200000762939453,-2.180000305175781,4.5099945068359375,7.410003662109375,1.5550003051757812,-3.779998779296875,1.5100021362304688,-2.1299972534179688,-1.6999969482421875,9.20000457763672,5.0,7.0,07-13,0.6566678682963053
04-30,-1.0550003051757812,-3.295001983642578,-2.139999389648437,-2.180000305175781,4.449996948242188,6.885002136230469,4.120002746582031,-2.540000915527344,2.3799972534179688,-2.1299972534179688,-2.089996337890625,16.209999084472653,5.0,7.0,07-14,1.5512501398722331
05-01,-0.22500038146972656,-2.9749984741210938,-2.0999984741210938,-3.0800018310546875,6.415000915527344,7.694999694824219,4.254997253417969,-1.7699966430664062,2.3799972534179688,-3.1699981689453125,0.529998779296875,21.37999725341797,6.0,6.0,07-15,2.4445830980936685
05-02,-1.1849994659423828,-3.3800010681152344,-2.0999984741210938,-3.264999389648437,4.625,6.405006408691406,5.095001220703125,-1.7699966430664062,2.3699951171875,-1.8700027465820312,0.279998779296875,24.88999938964844,6.0,6.0,07-16,2.5079169273376465
05-03,-0.20000076293945312,-3.3800010681152344,-1.0849990844726562,-1.9300003051757808,2.3550033569335938,4.834999084472656,4.465003967285156,-0.029998779296875,3.2000045776367188,-0.970001220703125,0.0800018310546875,28.790000915527344,6.0,6.0,07-17,3.0108343760172525
05-04,-0.20000076293945312,-1.9750022888183596,-0.970001220703125,-1.770000457763672,1.5400009155273438,4.949996948242188,4.465003967285156,0.04000091552734375,2.910003662109375,-4.029998779296875,1.55999755859375,28.790000915527344,7.0,5.0,07-18,2.942500114440918
05-05,0.16499900817871094,-1.4350013732910156,-0.2849998474121094,-1.3850021362304688,2.5500030517578125,4.949996948242188,6.19000244140625,0.6899948120117188,2.4000015258789062,-0.7999954223632812,0.31999969482421875,27.350006103515625,8.0,4.0,07-19,3.392500400543213
05-06,1.670000076293945,-1.145000457763672,-0.8400001525878906,-1.354999542236328,2.5500030517578125,5.159996032714844,0.7949981689453125,0.9900054931640624,4.519996643066406,0.5400009155273438,0.31999969482421875,26.459999084472656,9.0,3.0,07-20,3.3054165840148926
05-07,2.915000915527344,-0.8199996948242188,-1.020000457763672,-1.354999542236328,1.8199996948242188,4.479995727539063,-0.654998779296875,0.9399948120117188,5.1699981689453125,0.5400009155273438,2.1500015258789062,21.519996643066406,8.0,4.0,07-21,2.9737491607666016
05-08,2.8649997711181636,-1.2249984741210938,-0.9650001525878906,-1.1599998474121094,2.430000305175781,6.635002136230469,-3.675003051757813,2.589996337890625,5.1699981689453125,0.06999969482421875,2.9800033569335938,17.409996032714847,8.0,4.0,07-22,2.7604161898295083
05-09,3.4449996948242188,-1.1449966430664062,-0.9650001525878906,3.009998321533203,2.6200027465820312,6.06500244140625,-5.455001831054688,2.589996337890625,5.75,-0.660003662109375,4.6300048828125,19.740005493164066,8.0,4.0,07-23,3.3020839691162114
05-10,3.604999542236328,-1.1449966430664062,-1.2150001525878906,4.05999755859375,2.799995422363281,5.349998474121094,-5.575004577636719,1.2999954223632812,-1.1299972534179688,-1.1100006103515625,4.709999084472656,21.26000213623047,7.0,5.0,07-24,2.7424990336100254
05-11,3.604999542236328,-0.8149986267089844,-0.00499725341796875,2.779998779296875,2.959999084472656,5.449996948242188,-5.575004577636719,1.1699981689453125,-1.089996337890625,3.9800033569335938,7.709999084472656,21.26000213623047,8.0,4.0,07-25,3.4525000254313145
05-12,3.5300006866455083,-0.8199996948242188,-0.3849983215332031,2.71999740600586,1.93499755859375,5.449996948242188,-4.155006408691406,0.160003662109375,-1.7300033569335938,3.0800018310546875,6.849998474121094,24.05000305175781,8.0,4.0,07-26,3.3904159863789882
05-13,5.290000915527344,0.4350013732910156,0.04000091552734375,2.18499755859375,1.93499755859375,6.290000915527344,-7.069999694824219,-0.1100006103515625,-0.8700027465820312,6.30999755859375,6.849998474121094,26.59000396728516,9.0,3.0,07-27,3.9895830154418954
05-14,5.075000762939453,1.5550003051757812,-1.0150032043457031,2.18499755859375,0.13500213623046875,6.730003356933594,-11.150001525878906,-1.4000015258789062,-1.2300033569335938,6.30999755859375,6.540000915527344,24.589996337890625,8.0,4.0,07-28,3.1937491099039708
05-15,5.305000305175781,1.3400001525878906,-1.810001373291016,2.654998779296875,1.1299972534179688,7.1199951171875,-13.459999084472654,-2.07000732421875,-1.2300033569335938,6.25,6.199996948242188,23.31000518798828,8.0,4.0,07-29,2.8949985504150386
05-16,4.234998703002931,1.3599967956542969,-1.810001373291016,3.240001678466797,0.779998779296875,6.654998779296875,-8.544998168945312,-2.07000732421875,-0.660003662109375,7.160003662109375,5.0200042724609375,16.730003356933597,8.0,4.0,07-30,2.6745829582214355
05-17,3.8999996185302734,1.3599967956542969,-1.2099990844726562,5.7849998474121085,1.1650009155273438,4.475006103515625,-6.894996643066406,-0.9200057983398438,0.6699981689453125,5.029998779296875,6.660003662109375,18.56000518798828,9.0,3.0,07-31,3.215000629425049
05-18,3.8999996185302734,1.604999542236328,-2.264999389648437,6.7150001525878915,1.9950027465820312,4.194999694824219,-6.894996643066406,-0.9099960327148438,0.6399993896484375,4.790000915527344,11.220001220703123,18.56000518798828,9.0,3.0,08-01,3.6291680335998535
05-19,3.6100006103515625,2.229999542236328,-2.365001678466797,4.959999084472656,1.69000244140625,4.194999694824219,-6.4250030517578125,-0.9300003051757812,-1.4800033569335938,5.6300048828125,9.650001525878906,17.19000244140625,8.0,4.0,08-02,3.1629168192545567
05-20,4.454999923706055,3.954999923706055,-2.075000762939453,4.259998321533203,1.69000244140625,4.3699951171875,-5.944999694824219,-1.5400009155273438,-1.30999755859375,4.700004577636719,9.650001525878906,12.209999084472654,8.0,4.0,08-03,2.8683334986368814
05-21,5.4850006103515625,4.2150020599365225,-2.470001220703125,4.259998321533203,0.75,0.595001220703125,-6.2350006103515625,-2.7399978637695312,-0.20999908447265625,4.700004577636719,8.389999389648438,12.56000518798828,8.0,4.0,08-04,2.4416677157084146
05-22,6.094999313354492,4.2449989318847665,-2.0100021362304688,4.3999977111816415,2.6049957275390625,1.0199966430664062,-6.724998474121094,-2.0999984741210938,-0.20999908447265625,6.890007019042969,7.189994812011719,11.199996948242188,8.0,4.0,08-05,2.716665744781494
05-23,6.010000228881836,4.674999237060547,-2.0100021362304688,3.4199981689453125,2.75,0.8799972534179688,-6.819999694824219,-2.0999984741210938,-0.4899978637695313,6.6100006103515625,7.349998474121094,7.790000915527344,8.0,4.0,08-06,2.3387497266133632
05-24,6.045000076293945,4.674999237060547,-1.645000457763672,2.5,2.529998779296875,0.04500579833984375,-6.7700042724609375,-3.430000305175781,-2.270004272460937,8.449996948242188,3.209999084472656,11.660003662109375,8.0,4.0,08-07,2.0833328564961757
05-25,6.045000076293945,4.329998016357422,-4.825000762939453,3.3600006103515625,2.0449981689453125,0.3850021362304688,-6.7700042724609375,-4.220001220703125,-1.9000015258789065,6.9199981689453125,3.470001220703125,11.660003662109375,8.0,4.0,08-08,1.7083328564961748
05-26,6.045000076293945,4.194999694824219,-4.6100006103515625,3.209999084472656,1.8799972534179688,0.3850021362304688,-6.7700042724609375,-3.2699966430664062,-2.0999984741210938,8.919998168945312,5.349998474121094,11.660003662109375,8.0,4.0,08-09,2.0745832125345864
05-27,6.174999237060548,2.2300033569335938,-7.425003051757812,3.0050010681152344,1.8799972534179688,0.3850021362304688,-9.360000610351562,-4.1199951171875,-3.0800018310546875,8.209999084472656,5.349998474121094,9.090003967285156,8.0,4.0,08-10,1.0283336639404297
05-28,6.055000305175781,2.8499984741210938,-5.694999694824219,3.0050010681152344,1.8799972534179688,-1.464996337890625,-10.990005493164062,-3.30999755859375,-3.1100006103515625,8.209999084472656,5.349998474121094,11.06999969482422,7.0,5.0,08-11,1.1541662216186523
05-29,5.309999465942383,3.3999977111816406,-7.819999694824219,3.0050010681152344,2.3649978637695312,-0.3899993896484375,-7.834999084472656,-2.9899978637695312,-3.1100006103515625,8.209999084472656,9.470001220703123,14.06999969482422,7.0,5.0,08-12,1.9737499554951985
05-30,4.555000305175781,2.2550010681152344,-7.819999694824219,4.555000305175781,2.69000244140625,-1.2150039672851562,-10.104995727539062,-2.9899978637695312,-3.1100006103515625,7.779998779296875,8.090003967285156,17.519996643066403,7.0,5.0,08-13,1.8504171371459959
05-31,4.7449989318847665,2.2550010681152344,-7.819999694824219,3.689998626708984,3.8649978637695312,-1.4000015258789062,-10.485000610351562,-2.9899978637695312,-5.029998779296875,6.540000915527344,7.900001525878906,17.6199951171875,7.0,5.0,08-14,1.5741662979125977
06-01,4.7449989318847665,2.2550010681152344,-5.924999237060548,5.5900001525878915,3.80999755859375,-0.160003662109375,-10.485000610351562,-3.2400054931640625,-8.430000305175781,4.069999694824219,5.30999755859375,17.6199951171875,7.0,5.0,08-15,1.2633317311604817
06-02,4.94999885559082,1.05999755859375,-5.555000305175781,5.355003356933594,3.6149978637695312,-0.160003662109375,-10.095001220703123,-4.209999084472656,-7.860000610351562,4.4199981689453125,2.44000244140625,13.470001220703125,7.0,5.0,08-16,0.6191662152608236
06-03,5.650001525878906,1.1749992370605469,-4.154998779296875,5.830001831054688,3.6149978637695312,0.14499664306640625,-11.475006103515625,-3.209999084472656,-5.4199981689453125,4.599998474121094,2.44000244140625,7.129997253417969,8.0,4.0,08-17,0.5270827611287435
06-04,4.790000915527344,2.3600006103515625,-4.450000762939453,5.830001831054688,4.404998779296875,-1.1449966430664062,-9.68500518798828,-4.470001220703125,-4.620002746582031,4.599998474121094,-1.4899978637695312,7.860000610351562,6.0,6.0,08-18,0.3320830663045247
06-05,3.96500015258789,3.6099987030029297,-4.3999977111816415,5.220001220703125,4.3899993896484375,-0.4399948120117188,-10.05500030517578,-4.530006408691406,-4.620002746582031,4.529998779296875,-2.7299957275390625,4.970001220703125,6.0,6.0,08-19,-0.007499853769938151
06-06,4.329999923706056,3.3649997711181636,-4.3999977111816415,4.115001678466797,3.659996032714844,-0.5799942016601562,-9.480003356933594,-4.530006408691406,-4.6399993896484375,3.970001220703125,-2.2699966430664062,5.290000915527344,6.0,6.0,08-20,-0.09749984741210938
06-07,4.569999694824219,3.3649997711181636,-5.1899986267089835,3.834999084472656,0.9449996948242188,-0.23999786376953125,-11.550003051757812,-4.180000305175781,-5.1699981689453125,5.330001831054688,-2.3699951171875,5.239997863769531,6.0,6.0,08-21,-0.4512495994567871
06-08,4.569999694824219,2.5599994659423833,-7.019996643066406,2.740001678466797,2.3499984741210938,-0.5149993896484375,-11.550003051757812,-7.180000305175781,-5.839996337890625,5.580001831054688,-4.089996337890625,5.239997863769531,6.0,6.0,08-22,-1.0962494214375813
06-09,3.954999923706055,1.8399982452392576,-8.19000244140625,2.7550010681152344,2.4199981689453125,-0.5149993896484375,-12.125,-5.699996948242188,-7.540000915527344,7.150001525878906,-3.69000244140625,7.220001220703125,6.0,6.0,08-23,-1.0350001653035479
06-10,3.950000762939453,1.0400009155273438,-7.584999084472656,4.545001983642578,2.4199981689453125,-0.8600006103515625,-16.069999694824222,-4.029998779296875,-5.599998474121094,6.6699981689453125,-3.69000244140625,9.199996948242188,6.0,6.0,08-24,-0.8341668446858724
06-11,4.549999237060547,0.11500167846679688,-6.349998474121094,4.545001983642578,3.6050033569335938,-0.26000213623046875,-19.78500366210937,-1.25,-6.510002136230469,6.6699981689453125,-6.150001525878906,18.670005798339844,6.0,6.0,08-25,-0.17916647593180338
06-12,4.510000228881836,0.06999969482421875,-5.974998474121094,3.450000762939453,4.599998474121094,0.4850006103515625,-24.36499786376953,-1.3000030517578125,-6.510002136230469,7.069999694824219,-6.8899993896484375,19.45000457763672,7.0,5.0,08-26,-0.4504164059956868
06-13,5.155000686645508,0.5349998474121094,-5.974998474121094,3.539997100830078,3.4850006103515625,0.9799957275390624,-24.37999725341797,-1.3000030517578125,-7.94000244140625,6.469993591308594,-10.370002746582033,16.620002746582028,7.0,5.0,08-27,-1.0983344713846843
06-14,4.8800010681152335,0.5349998474121094,-6.805000305175781,3.6949996948242183,3.220001220703125,1.720001220703125,-22.330001831054688,-0.69000244140625,-7.790000915527344,6.660003662109375,-9.3800048828125,16.75,7.0,5.0,08-28,-0.7945836385091146
06-15,4.8800010681152335,-0.220001220703125,-6.444999694824219,2.6199989318847656,0.8249969482421875,1.1100006103515625,-22.330001831054688,0.12999725341796875,-7.599998474121094,5.75,-7.519996643066406,16.75,7.0,5.0,08-29,-1.0041669209798176
06-16,5.335000991821289,-0.6100006103515625,-5.885002136230469,2.055000305175781,-0.1750030517578125,1.1100006103515625,-22.900001525878906,-1.2099990844726562,-7.010002136230469,4.870002746582031,-5.900001525878906,15.18999481201172,5.0,7.0,08-30,-1.2608342170715332
06-17,5.974998474121094,0.4699974060058594,-4.6300010681152335,2.46500015258789,-0.1750030517578125,1.3650054931640625,-21.479995727539066,-0.5800018310546875,-7.25,6.660003662109375,-5.900001525878906,15.919998168945312,6.0,6.0,08-31,-0.5966666539510092
06-18,6.5,-0.5900001525878906,-4.474998474121094,2.46500015258789,-0.4050064086914063,0.8250045776367188,-21.699996948242188,-1.1399993896484375,-7.300003051757812,6.660003662109375,-5.650001525878906,17.70000457763672,5.0,7.0,09-01,-0.5924994150797526
06-19,6.290000915527344,-0.4899978637695313,-4.420001983642578,1.7649993896484375,0.7949981689453125,1.1100006103515625,-22.01000213623047,-2.540000915527344,-7.300003051757812,7.530006408691406,-6.6300048828125,16.680000305175778,6.0,6.0,09-02,-0.7683337529500326
06-20,6.210000991821289,0.6750030517578125,-4.420001983642578,1.834999084472656,3.055000305175781,0.6449966430664062,-26.81999969482422,-2.540000915527344,-6.970001220703125,6.5200042724609375,-5.0500030517578125,20.330001831054688,7.0,5.0,09-03,-0.5441667238871256
06-21,6.135000228881836,0.6750030517578125,-5.5700035095214835,3.0349998474121094,3.6550064086914062,0.410003662109375,-24.63999938964844,-2.180000305175781,-6.870002746582031,6.3600006103515625,-5.279998779296875,22.31000518798828,7.0,5.0,09-04,-0.1633321444193522
06-22,6.135000228881836,1.3100013732910156,-5.575000762939453,2.914997100830078,5.265007019042969,-0.4199981689453125,-24.63999938964844,-1.9300003051757808,-6.25,5.120002746582031,-6.470001220703125,22.31000518798828,6.0,6.0,09-05,-0.1858321825663249
06-23,6.210000991821289,1.5300025939941406,-5.990001678466798,3.4199981689453125,6.1300048828125,-0.4199981689453125,-24.76000213623047,-5.239997863769531,-6.090003967285156,4.769996643066406,-5.3800048828125,22.290000915527344,6.0,6.0,09-06,-0.29416704177856445
06-24,5.479999542236328,2.904998779296875,-6.795001983642577,3.7199974060058594,6.1300048828125,0.25,-24.44000244140625,4.30999755859375,-7.379997253417969,5.489997863769531,-5.3800048828125,24.100006103515625,8.0,4.0,09-07,0.6991662979125977
06-25,5.135000228881836,3.5150012969970703,-6.8800010681152335,3.7199974060058594,5.555000305175781,-0.4250030517578125,-23.759994506835934,8.930000305175781,-6.620002746582031,5.489997863769531,-4.75,20.020004272460934,7.0,5.0,09-08,0.8275000254313151
06-26,5.6599998474121085,2.6949996948242188,-5.974998474121094,2.96500015258789,5.785003662109375,0.69000244140625,-24.70000457763672,8.040000915527344,-6.620002746582031,4.769996643066406,-2.19000244140625,20.470001220703125,8.0,4.0,09-09,0.965833028157552
06-27,5.7649993896484375,3.104999542236328,-5.974998474121094,4.759998321533203,5.1100006103515625,-0.06500244140625,-18.580001831054688,8.040000915527344,-6.290000915527344,6.8899993896484375,-0.1100006103515625,17.049995422363278,7.0,5.0,09-10,1.6416657765706382
06-28,6.299999237060548,3.104999542236328,-6.724998474121094,4.819999694824219,7.614997863769531,-4.344993591308594,-18.8800048828125,6.170005798339844,-7.05999755859375,5.790000915527344,-0.1999969482421875,21.39999389648437,7.0,5.0,09-11,1.4991671244303386
06-29,6.299999237060548,4.049999237060547,-7.150001525878906,4.834999084472656,7.635002136230469,-3.8449935913085938,-18.8800048828125,2.810005187988281,-6.060005187988281,8.359992980957031,-1.3600006103515625,21.39999389648437,7.0,5.0,09-12,1.507915496826172
06-30,6.279998779296875,4.44999885559082,-8.845001220703125,5.585002899169922,7.989997863769531,-3.8449935913085938,-18.62000274658203,-3.290000915527344,-4.05999755859375,9.909996032714844,-0.9499969482421876,19.279998779296875,6.0,6.0,09-13,1.1570833524068196
07-01,6.605001449584961,4.85999870300293,-9.364997863769533,5.5349998474121085,7.989997863769531,-3.1999969482421875,-19.86000061035156,-1.7599945068359375,-3.919998168945313,9.349998474121094,-0.9499969482421876,19.38999938964844,6.0,6.0,09-14,1.222917556762695
07-02,7.57499885559082,5.5349998474121085,-8.399997711181639,5.5349998474121085,7.669998168945312,-3.4449996948242188,-19.19000244140625,-1.4899978637695312,-5.5500030517578125,9.349998474121094,-0.40999603271484375,18.029998779296875,6.0,6.0,09-15,1.2674997647603352
07-03,7.444999694824219,5.389997482299805,-7.7449989318847665,5.444999694824219,6.6399993896484375,-5.240005493164063,-20.93999481201172,-1.970001220703125,-5.5500030517578125,10.029998779296877,-0.8700027465820312,20.33000946044922,6.0,6.0,09-16,1.0804165204366047
07-05,8.434999465942383,5.534997940063477,-7.7449989318847665,6.674999237060548,6.3899993896484375,-3.930000305175781,-20.029998779296875,-1.970001220703125,-4.199996948242188,9.360000610351562,-2.5999984741210938,19.159996032714844,6.0,6.0,09-18,1.2566665013631184
07-06,8.434999465942383,5.534997940063477,-7.545001983642577,6.4650001525878915,6.06500244140625,-3.2750015258789062,-20.029998779296875,-1.7300033569335938,-3.75,9.989997863769533,0.8300018310546875,19.159996032714844,7.0,5.0,09-19,1.6791658401489258
07-07,9.135000228881836,4.580001831054688,-7.365001678466798,7.039997100830077,7.290000915527344,-3.2750015258789062,-19.98999786376953,-2.8199996948242188,-4.199996948242188,9.349998474121094,3.0500030517578125,20.6199951171875,7.0,5.0,09-20,1.9512499173482256
07-08,8.729999542236326,3.900001525878906,-7.200000762939452,6.93499755859375,7.290000915527344,-2.4850006103515625,-18.63999938964844,-5.239997863769531,-2.6400070190429688,11.1300048828125,3.0500030517578125,22.779998779296875,7.0,5.0,09-21,2.3008333841959634
07-09,8.770000457763674,4.020000457763672,-6.375,6.93499755859375,5.6399993896484375,-2.3300018310546875,-19.449996948242188,-5.349998474121094,-2.170005798339844,11.1300048828125,3.4899978637695312,20.68999481201172,7.0,5.0,09-22,2.083332697550456
07-10,8.875,4.205001831054688,-8.364997863769531,7.549999237060548,5.975006103515625,-2.290000915527344,-21.45000457763672,-4.150001525878906,-2.170005798339844,10.25,5.279998779296875,13.040000915527346,7.0,5.0,09-23,1.3958330154418943
07-11,8.274999618530272,4.150001525878906,-8.364997863769531,8.745002746582031,4.125,-4.1750030517578125,-24.909996032714844,-4.150001525878906,-2.160003662109375,12.169998168945312,3.2600021362304688,11.44000244140625,7.0,5.0,09-24,0.7004170417785645
07-12,7.739999771118164,4.150001525878906,-8.154998779296875,8.464996337890625,2.845001220703125,-4.855003356933594,-26.589996337890625,-6.239997863769531,-2.8499984741210938,12.140007019042967,1.30999755859375,8.94000244140625,7.0,5.0,09-25,-0.2583324114481608
07-13,7.739999771118164,3.375,-9.915000915527344,6.7350006103515625,3.2399978637695312,-3.725006103515625,-26.589996337890625,-6.330001831054688,-3.6399993896484375,8.700004577636719,-1.4799957275390625,8.94000244140625,6.0,6.0,09-26,-1.079166253407796
07-14,7.459999084472656,3.46500015258789,-9.814998626708984,6.450000762939452,3.824996948242188,-3.725006103515625,-27.66999816894531,-5.3600006103515625,-3.6399993896484375,9.169998168945312,-1.0499954223632812,6.599998474121094,6.0,6.0,09-27,-1.1908337275187175
07-15,6.210000991821289,4.1599998474121085,-8.614997863769531,6.2350006103515625,3.824996948242188,-2.5100021362304688,-28.87000274658203,-7.129997253417969,-4.449996948242188,8.019996643066406,-1.0499954223632812,3.329994201660156,6.0,6.0,09-28,-1.7370835940043132
07-16,4.190000534057616,5.1599998474121085,-7.095001220703125,6.2350006103515625,4.900001525878906,-4.189994812011719,-23.480003356933594,-6.850006103515625,-4.970001220703125,8.019996643066406,-1.1899948120117188,4.989997863769531,6.0,6.0,09-29,-1.1900003751118975
07-17,4.599998474121094,5.4949989318847665,-8.604999542236326,5.2350006103515625,4.894996643066406,-4.625,-27.290000915527344,-5.730003356933594,-4.970001220703125,4.979995727539063,0.0500030517578125,9.860000610351562,7.0,5.0,09-30,-1.342084248860677
07-18,4.145000457763672,5.375,-8.604999542236326,5.520000457763672,2.6350021362304688,-5.0449981689453125,-24.900001525878906,-5.730003356933594,-4.959999084472656,2.2399978637695312,1.220001220703125,10.94000244140625,7.0,5.0,10-01,-1.4304164250691729
07-19,3.8799991607666016,5.375,-8.869998931884766,1.4399986267089844,3.949996948242188,-6.004997253417969,-23.159996032714844,-4.80999755859375,-4.75,2.7399978637695312,1.0,12.69000244140625,7.0,5.0,10-02,-1.3766662279764812
07-20,3.8799991607666016,4.1300010681152335,-8.5,0.8500022888183594,3.540000915527344,-8.790000915527344,-23.159996032714844,-7.970001220703125,1.94000244140625,4.75,-0.07999420166015625,12.69000244140625,7.0,5.0,10-03,-1.3933320045471191
07-21,3.8899993896484375,4.0,-9.65999984741211,1.9399986267089844,3.4550018310546875,-8.790000915527344,-20.519996643066406,-5.229995727539063,4.629997253417969,5.799995422363281,-2.5399932861328125,11.919998168945312,7.0,5.0,10-04,-0.9254163106282552
07-22,2.9050006866455083,3.5449981689453125,-10.130001068115234,2.930000305175781,3.4550018310546875,-9.470001220703123,-17.959999084472656,-4.209999084472656,6.599998474121094,4.319999694824219,-2.5399932861328125,10.099998474121094,7.0,5.0,10-05,-0.8712496757507324
07-23,1.894998550415039,2.2949981689453125,-8.94000244140625,2.930000305175781,3.7549972534179688,-9.56999969482422,-12.969993591308596,-4.5399932861328125,6.870002746582031,4.319999694824219,-4.549995422363281,12.43999481201172,7.0,5.0,10-06,-0.5054160753885905
07-24,2.489999771118164,2.9000015258789062,-7.895000457763673,4.025001525878906,4.705001831054688,-9.084999084472656,-8.660003662109375,-5.0099945068359375,6.870002746582031,2.680000305175781,-3.5,15.360000610351562,7.0,5.0,10-07,0.4066675504048665
07-25,2.6099987030029297,3.2800025939941406,-7.895000457763673,4.7649993896484375,6.084999084472656,-8.799995422363281,-8.989997863769531,-5.0099945068359375,5.150001525878906,-0.8199996948242188,-1.5199966430664062,14.31999969482422,6.0,6.0,10-08,0.2645847002665202
07-26,2.529998779296875,3.2800025939941406,-6.914997100830077,4.854999542236328,5.400001525878906,-11.125,-8.080001831054688,-5.180000305175781,6.279998779296875,-2.6400070190429688,-2.2300033569335938,18.709999084472656,6.0,6.0,10-09,0.40708255767822266
07-27,2.529998779296875,2.979999542236328,-5.645000457763673,3.650001525878906,0.8199996948242188,-9.56999969482422,-8.080001831054688,-3.899993896484375,7.129997253417969,0.1399993896484375,-6.080001831054688,18.709999084472656,7.0,5.0,10-10,0.2237497965494792
07-28,2.6599998474121094,2.8550033569335938,-5.5349998474121085,2.3600006103515625,0.654998779296875,-9.56999969482422,-12.610000610351562,-11.75,6.6100006103515625,-11.18000030517578,-3.8499984741210938,20.36000061035156,6.0,6.0,10-11,-1.582916259765625
07-29,3.670000076293945,3.1949996948242188,-3.8799972534179688,2.185001373291016,0.654998779296875,-7.730003356933594,-12.800003051757812,-10.860000610351562,7.129997253417969,-10.139999389648438,-3.8499984741210938,24.58000183105469,6.0,6.0,10-12,-0.6537502606709799
07-30,2.6700000762939453,2.764999389648437,-3.845001220703125,2.185001373291016,0.714996337890625,-9.199996948242188,-12.54999542236328,-12.3699951171875,7.160003662109375,-10.139999389648438,-4.379997253417969,27.68000793457031,6.0,6.0,10-13,-0.7758313814798989
07-31,2.555000305175781,2.1899986267089844,-3.0699996948242188,2.950000762939453,2.1449966430664062,-7.404998779296875,-11.040000915527344,-12.729995727539062,7.160003662109375,-11.06000518798828,-1.7299957275390625,28.400001525878906,6.0,6.0,10-14,-0.13624954223632812
08-01,1.9099998474121092,2.55999755859375,-3.0699996948242188,3.700000762939453,1.9950027465820312,-10.900001525878906,-10.69000244140625,-12.729995727539062,7.300003051757812,-13.350006103515625,3.5,26.19001007080078,7.0,5.0,10-15,-0.29874928792317706
08-02,2.354999542236328,2.55999755859375,-1.979999542236328,3.295001983642578,1.8850021362304688,-11.519996643066404,-10.550003051757812,-11.75,7.19000244140625,-14.230003356933596,3.040000915527344,27.209999084472656,7.0,5.0,10-16,-0.2079165776570638
08-03,2.354999542236328,3.1100006103515625,-2.4850006103515625,3.470001220703125,1.7949981689453125,-10.05999755859375,-10.550003051757812,-12.209999084472654,8.830001831054688,-14.79999542236328,7.25,27.209999084472656,7.0,5.0,10-17,0.3262503941853841
08-04,2.2449989318847656,2.72500228881836,1.0149993896484375,3.959999084472656,2.165000915527344,-10.05999755859375,-9.220001220703123,-11.5,8.159996032714844,-12.139999389648438,8.0,26.79999542236328,8.0,4.0,10-18,1.012499491373698
08-05,2.4850006103515625,3.259998321533203,-0.020000457763671875,4.5349998474121085,2.165000915527344,-8.855003356933594,-7.329994201660156,-11.769996643066404,7.819999694824219,-12.199996948242188,8.0,25.08000183105469,7.0,5.0,10-19,1.0975008010864258
08-06,2.5699996948242188,3.664997100830078,3.890003204345703,4.5349998474121085,2.4000015258789062,-8.529998779296875,-4.470001220703125,-11.670005798339846,7.739997863769531,-12.199996948242188,7.9799957275390625,25.720001220703125,8.0,4.0,10-20,1.8024994532267251
08-07,2.8850002288818364,3.0,2.9449996948242188,3.72500228881836,6.69000244140625,-5.035003662109375,-2.7399978637695312,-11.920005798339846,7.739997863769531,-11.839996337890625,8.379997253417969,20.610008239746094,8.0,4.0,10-21,2.0366670290629068
08-08,3.0599994659423833,3.845001220703125,2.9449996948242188,3.9899978637695312,6.970001220703125,-4.5200042724609375,-5.230003356933594,-11.920005798339846,9.479995727539062,-10.260002136230467,7.580001831054687,18.89000701904297,8.0,4.0,10-22,2.069165706634521
08-09,2.289999008178711,3.845001220703125,0.7649993896484375,3.180000305175781,7.459999084472656,-1.5699996948242188,-5.970001220703125,-11.81000518798828,10.93999481201172,-7.819999694824219,9.349998474121094,18.290000915527344,8.0,4.0,10-23,2.412498950958252
08-10,2.289999008178711,4.0600013732910165,3.810001373291016,3.4399986267089844,9.389999389648438,-2.7349929809570312,-5.970001220703125,-12.029998779296875,16.430000305175778,-5.799995422363281,12.719993591308596,18.290000915527344,8.0,4.0,10-24,3.657917181650797
08-11,2.259998321533203,4.80999755859375,4.384998321533203,2.700000762939453,8.555000305175781,-2.7349929809570312,-3.7700042724609375,-12.360000610351562,16.159996032714847,-5.450004577636719,11.919998168945312,13.139999389648438,8.0,4.0,10-25,3.3012488683064785
08-12,2.575000762939453,4.790000915527344,4.670001983642578,3.514999389648437,8.555000305175781,-2.909996032714844,-0.40999603271484375,-10.75,14.8800048828125,-8.300003051757812,11.919998168945312,12.709999084472654,8.0,4.0,10-26,3.437084197998047
08-13,1.7199993133544922,5.510002136230469,2.954998016357422,3.514999389648437,7.845001220703125,-3.555000305175781,0.470001220703125,-13.239997863769533,15.160003662109375,-8.300003051757812,11.3800048828125,15.460006713867188,9.0,3.0,10-27,3.243334611256917
08-14,1.8149986267089844,5.395000457763672,4.1199989318847665,4.3449974060058585,8.545005798339844,-2.8600006103515625,-0.7699966430664062,-11.94000244140625,15.160003662109375,-9.06999969482422,13.360000610351562,12.349998474121096,8.0,4.0,10-28,3.3708337148030605
08-15,3.014999389648437,5.129997253417969,4.1199989318847665,3.8699989318847656,11.574996948242188,-4.834999084472656,-1.3300018310546875,-11.94000244140625,14.779998779296875,-3.3199996948242188,14.419998168945312,8.470001220703125,8.0,4.0,10-29,3.662915547688802
08-16,2.139999389648437,5.129997253417969,4.830001831054688,3.5649986267089844,11.150001525878906,-4.19000244140625,0.06999969482421875,-11.1300048828125,14.93000030517578,-5.069999694824219,12.989997863769533,6.290000915527344,9.0,3.0,10-30,3.392082532246908
08-17,2.139999389648437,4.5149993896484375,6.8149986267089835,2.884998321533203,14.349998474121096,-5.8600006103515625,0.06999969482421875,-10.239997863769533,15.25,-5.529998779296875,13.43000030517578,6.290000915527344,9.0,3.0,10-31,3.6762498219807935
08-18,2.149999618530273,4.674999237060547,9.479999542236328,3.479999542236328,12.425003051757812,-5.8600006103515625,-0.23999786376953125,-10.899993896484377,14.080001831054688,-5.510002136230469,14.360000610351562,6.519996643066406,8.0,4.0,11-01,3.721667130788168
08-19,2.489999771118164,5.555000305175781,8.765003204345701,3.959999084472656,12.425003051757812,-6.290000915527344,1.779998779296875,-11.600006103515625,13.849998474121096,-4.640007019042969,14.360000610351562,9.460006713867188,9.0,3.0,11-02,4.176249663035075
08-20,1.6399993896484375,5.634998321533202,7.829998016357423,3.959999084472656,11.345001220703125,-5.864997863769531,4.3899993896484375,-12.470001220703125,13.529998779296875,-4.640007019042969,15.68000030517578,11.480003356933596,9.0,3.0,11-03,4.376249313354491
08-21,1.470001220703125,6.3149986267089835,8.879997253417969,4.805000305175781,11.735000610351562,-0.6949996948242188,6.790000915527344,-12.830001831054688,13.529998779296875,-5.990005493164063,14.420005798339846,16.949989318847653,9.0,3.0,11-04,5.448332150777182
08-22,1.914999008178711,6.4399986267089835,8.879997253417969,5.375,11.300003051757812,-2.090003967285156,11.93000030517578,-12.830001831054688,11.379997253417967,-3.8600006103515625,15.340003967285154,15.779998779296875,9.0,3.0,11-05,5.7966659863789864
08-23,1.7549991607666016,6.4399986267089835,7.779998779296875,5.4650001525878915,10.610000610351562,-3.8799972534179688,11.599998474121096,-14.06000518798828,12.530006408691404,-2.8599929809570312,21.54999542236328,11.729995727539062,9.0,3.0,11-06,5.721666495005291
08-24,1.7549991607666016,6.8400001525878915,8.385002136230469,6.3149986267089835,11.525001525878904,-0.4899978637695313,11.599998474121096,-14.639999389648438,12.81999969482422,-4.170005798339844,21.720001220703125,11.729995727539062,9.0,3.0,11-07,6.115832805633545
08-25,1.6849994659423828,6.9949989318847665,8.715000152587889,6.9050025939941415,11.264999389648438,-0.4899978637695313,12.80999755859375,-13.94000244140625,12.6199951171875,-3.7699966430664062,22.600006103515625,12.989997863769533,9.0,3.0,11-08,6.5320833524068185
08-26,2.7249984741210938,7.174999237060548,8.280002593994139,5.6300010681152335,11.264999389648438,-0.6050033569335938,10.110000610351562,-11.400001525878904,12.18999481201172,-1.5999984741210938,22.600006103515625,18.30999755859375,9.0,3.0,11-09,7.056666374206543
08-27,1.8050003051757808,5.9949989318847665,6.944999694824219,5.6300010681152335,12.520004272460938,0.4249954223632813,7.80999755859375,-12.860000610351562,11.970001220703125,-1.5999984741210938,22.36000061035156,17.969993591308594,10.0,2.0,11-10,6.580832799275715
08-28,2.46500015258789,6.3899993896484375,4.9650001525878915,5.875,11.94000244140625,0.7299957275390625,5.620002746582031,-12.30999755859375,11.970001220703125,-0.34000396728515625,20.80000305175781,19.74999237060547,10.0,2.0,11-11,6.487916310628254
08-29,2.7849998474121094,6.269996643066406,4.9650001525878915,3.950000762939453,12.69000244140625,0.2050018310546875,5.830001831054688,-12.30999755859375,12.260002136230467,-2.9900054931640625,18.779998779296875,22.420005798339844,10.0,2.0,11-12,6.23791726430257
08-30,2.889999389648437,6.269996643066406,4.4699974060058585,4.444999694824219,12.974998474121096,0.03499603271484375,6.319999694824219,-11.989997863769533,11.31999969482422,-2.9500045776367188,18.409996032714844,22.24999237060547,10.0,2.0,11-13,6.203747749328612
08-31,2.889999389648437,6.0949974060058585,4.81500244140625,3.72500228881836,12.649993896484375,-0.6450042724609375,6.319999694824219,-9.009994506835938,10.349998474121094,-5.1399993896484375,19.81999969482422,22.24999237060547,9.0,3.0,11-14,6.176665623982746
09-01,3.549999237060547,4.974998474121094,6.540000915527344,4.6399993896484375,13.704994201660154,-0.6450042724609375,10.260002136230467,-10.210006713867188,9.960006713867188,-5.569999694824219,19.89000701904297,18.64999389648437,9.0,3.0,11-15,6.312082608540852
09-02,3.149999618530273,3.930000305175781,6.8600006103515625,4.069999694824219,13.704994201660154,-0.6450042724609375,5.680000305175781,-10.989997863769533,10.909996032714844,-4.529998779296875,19.89000701904297,13.889991760253904,9.0,3.0,11-16,5.493332386016847
09-03,3.125,3.4399986267089844,7.075000762939452,4.069999694824219,13.704994201660154,0.8499984741210938,6.849998474121094,-11.389999389648438,9.949996948242188,-4.529998779296875,19.89000701904297,20.030006408691406,10.0,2.0,11-17,6.0887502034505205
09-04,3.270000457763672,3.650001525878906,5.865001678466798,4.069999694824219,13.31999969482422,0.1399993896484375,8.639999389648438,-11.260002136230467,9.949996948242188,-4.529998779296875,18.230003356933594,21.66000366210937,10.0,2.0,11-18,6.083750406901043
09-05,2.9349994659423833,3.900001525878906,5.865001678466798,3.240001678466797,12.164993286132812,0.68499755859375,5.30999755859375,-11.260002136230467,9.949996948242188,-3.5199966430664062,16.160003662109375,22.280006408691406,10.0,2.0,11-19,5.6425000826517735
09-06,2.5599994659423833,3.900001525878906,5.865001678466798,1.3100013732910156,12.699996948242188,2.290000915527344,7.830001831054687,-11.260002136230467,9.81000518798828,-4.830001831054688,13.139999389648438,22.280006408691406,10.0,2.0,11-20,5.4662508964538565
09-07,2.5599994659423833,3.900001525878906,3.8499984741210938,3.4550018310546875,11.55999755859375,3.3700027465820312,7.830001831054687,-10.120002746582033,9.81999969482422,-3.810005187988281,12.279991149902346,22.280006408691406,10.0,2.0,11-21,5.5812493960062675
09-08,2.5599994659423833,4.2250022888183585,4.3800010681152335,2.1300010681152344,10.279998779296877,3.3700027465820312,7.830001831054687,-10.110000610351562,11.290000915527346,-4.3899993896484375,9.989997863769533,22.280006408691406,10.0,2.0,11-22,5.319584369659424
09-09,1.510000228881836,4.0349998474121085,4.365001678466797,2.8800010681152344,10.279998779296877,4.599998474121094,7.2700042724609375,-4.6699981689453125,8.979995727539062,-6.209999084472656,9.989997863769533,17.930007934570312,10.0,2.0,11-23,5.080000718434651
09-10,1.1299991607666016,3.290000915527344,4.354999542236328,2.8800010681152344,9.2449951171875,5.099998474121094,7.980003356933594,-6.569999694824219,9.43999481201172,-6.209999084472656,9.230003356933594,17.530006408691403,10.0,2.0,11-24,4.783333619435628
09-11,1.614999771118164,2.854999542236328,4.074996948242188,2.84000015258789,9.45000457763672,6.965003967285156,8.75,-6.1399993896484375,9.43999481201172,-6.709999084472656,8.0,16.170005798339847,10.0,2.0,11-25,4.775833924611409
09-12,1.3099994659423828,2.139999389648437,4.074996948242188,2.990001678466797,10.455001831054688,7.94500732421875,11.30999755859375,-6.1399993896484375,8.649993896484375,-5.220001220703125,7.200004577636719,13.05999755859375,10.0,2.0,11-26,4.8145833015441895
09-13,0.9699993133544922,2.139999389648437,3.289997100830078,2.395000457763672,10.875,7.930000305175781,11.329994201660154,-4.540000915527344,10.209999084472656,-5.659996032714844,8.410003662109375,13.05999755859375,10.0,2.0,11-27,5.0341661771138515
09-14,0.9699993133544922,2.290000915527344,1.7849998474121094,2.085002899169922,9.495002746582033,7.844993591308594,11.329994201660154,-3.090003967285156,9.6199951171875,-4.830001831054688,12.43000030517578,13.05999755859375,10.0,2.0,11-28,5.249165058135986
09-15,0.2199993133544922,3.0800018310546875,1.0149993896484375,1.9449996948242188,9.965003967285156,7.844993591308594,11.209999084472656,-3.1100006103515625,9.54999542236328,-7.189994812011719,14.350006103515625,13.350006103515625,10.0,2.0,11-29,5.185834089914958
09-16,0.3899993896484375,2.6999969482421875,1.9550018310546875,1.7000007629394531,9.965003967285156,7.439994812011719,11.389999389648438,-2.8600006103515625,10.539993286132812,-5.349998474121094,14.350006103515625,14.230010986328125,10.0,2.0,11-30,5.537500699361164
09-17,0.02500152587890625,2.875,2.709999084472656,1.7000007629394531,9.885002136230467,7.55999755859375,11.75,-3.0800018310546875,10.209999084472656,-5.349998474121094,12.500007629394533,14.020004272460938,10.0,2.0,12-01,5.400417645772297
09-18,-0.1100006103515625,2.6499977111816406,5.0149993896484375,2.22500228881836,8.364997863769531,7.830001831054687,12.54999542236328,-5.150001525878906,10.209999084472656,-5.629997253417969,9.760002136230467,17.500007629394528,9.0,3.0,12-02,5.43458366394043
09-19,0.1100006103515625,3.5999984741210938,5.0149993896484375,2.700000762939453,8.034996032714844,8.529998779296875,13.31000518798828,-5.150001525878906,8.670005798339844,-6.580001831054688,8.149993896484375,23.19000244140625,10.0,2.0,12-03,5.798333168029785
09-20,0.4300003051757813,3.5999984741210938,5.115001678466797,2.9499969482421875,8.69000244140625,9.725006103515623,11.889999389648438,-5.330001831054688,8.040000915527344,-6.589996337890625,9.239997863769533,23.19000244140625,10.0,2.0,12-04,5.912500699361164
09-21,0.4300003051757813,3.834999084472656,6.5050010681152335,1.6750030517578125,9.120002746582033,11.790000915527346,11.889999389648438,-7.220001220703125,6.94000244140625,-6.650001525878906,9.610000610351562,23.19000244140625,10.0,2.0,12-05,5.9262507756551095
09-22,0.21500015258789065,4.055000305175781,7.385002136230469,1.75,9.764999389648438,11.790000915527346,13.719993591308596,-8.55999755859375,8.799995422363281,-2.1300048828125,10.750007629394533,22.45000457763672,10.0,2.0,12-06,6.665833473205566
09-23,0.2700004577636719,4.6750030517578125,8.174999237060549,1.3250007629394531,9.764999389648438,12.489997863769533,14.360000610351562,-7.279998779296875,7.589996337890625,-5.959999084472656,10.750007629394533,24.95000457763672,10.0,2.0,12-07,6.759167671203612
09-24,0.9300003051757812,3.514999389648437,6.5,1.3250007629394531,9.739997863769533,11.585006713867188,17.849998474121094,-5.9199981689453125,7.029998779296875,-5.959999084472656,12.870002746582033,24.32000732421875,10.0,2.0,12-08,6.982084592183432
09-25,1.3400001525878906,3.834999084472656,6.114997863769531,2.21500015258789,8.569999694824219,12.720001220703125,16.650001525878903,-3.959999084472656,7.029998779296875,-4.80999755859375,14.470001220703125,23.020004272460934,10.0,2.0,12-09,7.266250610351562
09-26,0.04000091552734375,3.529998779296875,6.114997863769531,4.305000305175781,10.595001220703123,12.19499969482422,18.23999786376953,-3.959999084472656,7.680000305175781,-4.599998474121094,15.879989624023438,21.530006408691406,10.0,2.0,12-10,7.629166285196941
09-27,0.3400001525878906,3.529998779296875,5.075000762939453,3.0699996948242188,10.720001220703123,13.114997863769533,17.040000915527347,-4.269996643066406,8.120002746582031,-5.7599945068359375,14.759994506835938,21.530006408691406,10.0,2.0,12-11,7.272500991821289
09-28,0.3400001525878906,3.3499984741210938,5.5649986267089835,4.5,10.145004272460938,10.69499969482422,17.040000915527347,-4.159996032714844,7.069999694824219,-5.6699981689453125,13.959999084472654,21.530006408691406,10.0,2.0,12-12,7.030417760213215
09-29,0.3499984741210937,3.575000762939453,5.795001983642577,4.7449989318847665,7.6450042724609375,10.69499969482422,15.600006103515625,-2.759994506835937,7.019996643066406,-6.709999084472656,13.79999542236328,22.94000244140625,10.0,2.0,12-13,6.891250928243
09-30,0.41500091552734375,4.049999237060547,5.9299964904785165,4.5,7.6450042724609375,12.05500030517578,13.18999481201172,-4.709999084472656,4.8899993896484375,-6.290000915527344,13.79999542236328,21.19000244140625,10.0,2.0,12-14,6.3887494405110665
10-01,0.9749984741210938,3.685001373291016,6.3400001525878915,4.5,7.7700042724609375,15.715003967285154,8.600006103515625,-6.3899993896484375,5.25,-6.290000915527344,15.43999481201172,21.490005493164066,10.0,2.0,12-15,6.423751195271809
10-02,1.7150001525878906,4.545001983642578,5.759998321533202,4.960002899169922,8.639999389648438,14.32500457763672,5.069999694824219,-7.2700042724609375,5.25,-6.75,19.34999084472656,20.00000762939453,10.0,2.0,12-16,6.299583435058594
10-03,0.6350002288818359,4.930000305175781,5.759998321533202,4.299999237060547,8.209999084472656,13.129997253417967,3.960006713867188,-7.2700042724609375,4.260002136230469,-7.830001831054687,18.409996032714844,17.350006103515625,10.0,2.0,12-17,5.487083276112873
10-04,0.8699989318847656,4.930000305175781,4.7649993896484375,6.454998016357423,5.75,12.69499969482422,5.6300048828125,-5.8800048828125,1.55999755859375,-8.319999694824219,16.629997253417972,17.350006103515625,10.0,2.0,12-18,5.2029164632161455
10-05,0.8699989318847656,4.049999237060547,3.680000305175781,6.129997253417969,7.849998474121094,15.4949951171875,5.6300048828125,-5.480003356933594,2.05999755859375,-10.889999389648438,17.390007019042972,17.350006103515625,10.0,2.0,12-19,5.344583511352539
10-06,0.625,3.3499984741210938,3.5800018310546875,7.375,8.659996032714844,15.4949951171875,6.819999694824219,-6.2700042724609375,2.8499984741210938,-12.8800048828125,15.93999481201172,18.720001220703125,10.0,2.0,12-20,5.355414708455403
10-07,0.220001220703125,3.729999542236328,2.8249969482421875,6.745002746582031,8.659996032714844,17.919998168945312,3.930000305175781,2.4899978637695312,3.669998168945313,-13.150001525878904,15.93999481201172,14.330001831054688,11.0,1.0,12-21,5.609165509541828
10-08,-0.720001220703125,3.575000762939453,2.1699981689453125,6.745002746582031,11.209999084472656,18.73999786376953,0.5200042724609375,1.7900009155273438,3.520004272460937,-13.150001525878904,19.29999542236328,8.279998779296875,10.0,2.0,12-22,5.164999961853027
10-09,-0.7600002288818359,3.740001678466797,2.8600006103515625,7.7500038146972665,11.410003662109375,20.93499755859375,1.2600021362304688,2.020004272460937,3.520004272460937,-2.1299972534179688,17.839996337890625,7.389999389648437,10.0,2.0,12-23,6.3195846875508614
10-10,-0.6200008392333984,3.740001678466797,2.8600006103515625,9.514999389648438,10.94499969482422,23.025001525878906,1.4200057983398438,2.020004272460937,3.7800064086914062,-2.529998779296875,16.80999755859375,7.220001220703125,10.0,2.0,12-24,6.51541821161906
10-11,-0.6200008392333984,3.740001678466797,2.97500228881836,9.46500015258789,9.93499755859375,26.5050048828125,1.4200057983398438,3.5699996948242188,3.75,0.69000244140625,13.300003051757812,7.220001220703125,11.0,1.0,12-25,6.829168160756428
10-12,-0.6200008392333984,3.490001678466797,2.200000762939453,9.514995574951172,9.68499755859375,27.240005493164066,1.4200057983398438,3.930000305175781,2.779998779296875,1.2300033569335938,15.79999542236328,7.220001220703125,11.0,1.0,12-26,6.990833759307861
10-13,-0.8850002288818359,3.200000762939453,2.345001220703125,9.550003051757812,10.724998474121094,27.240005493164066,1.5800018310546875,2.8799972534179688,2.69000244140625,-0.5500030517578125,16.329994201660153,9.699996948242188,10.0,2.0,12-27,7.067083199818928
10-14,-1.114999771118164,3.2350006103515625,1.9000015258789065,9.300003051757812,10.724998474121094,26.74500274658203,2.9199981689453125,2.090003967285156,3.1100006103515625,3.1199951171875,16.329994201660153,8.680007934570312,11.0,1.0,12-28,7.253333886464435
10-15,-1.2550010681152344,3.125,3.060001373291016,9.300003051757812,11.050003051757812,25.30999755859375,1.1299972534179688,3.1899948120117188,3.3199996948242188,3.1199951171875,15.329994201660154,6.529998779296875,11.0,1.0,12-29,6.934165318806965
10-16,-0.7549991607666016,3.4850006103515625,2.47500228881836,8.460002899169924,10.93000030517578,24.87999725341797,-0.839996337890625,2.009994506835937,3.3199996948242188,1.089996337890625,14.400001525878904,6.1100006103515625,10.0,2.0,12-30,6.297083377838135
10-17,-1.3050003051757812,3.665000915527344,2.47500228881836,7.074996948242188,6.654998779296875,22.605003356933594,-0.5999984741210938,2.009994506835937,3.529998779296875,3.299995422363281,12.06999969482422,8.949996948242188,10.0,2.0,12-31,5.869165738423664
10-18,-1.3050003051757812,3.665000915527344,1.029998779296875,7.0149993896484375,6.004997253417969,20.64000701904297,-0.5999984741210938,1.8600006103515625,3.6100006103515625,2.430000305175781,9.079994201660156,8.949996948242188,10.0,2.0,01-01,5.198333104451497
10-19,-1.3050003051757812,4.220001220703125,1.9750022888183596,7.484996795654298,5.930000305175781,20.240005493164066,-0.5999984741210938,2.1100006103515625,2.8600006103515625,-0.15999603271484375,8.239997863769531,8.949996948242188,9.0,3.0,01-02,4.9954172770182295
10-20,-0.9249992370605468,3.1949996948242188,1.654998779296875,8.825004577636719,6.525001525878906,20.240005493164066,-0.7999954223632812,2.649993896484375,-0.94000244140625,0.5699996948242188,8.810005187988281,8.639999389648438,9.0,3.0,01-03,4.870417594909668
10-21,-0.2049999237060547,3.700000762939453,-0.095001220703125,10.425003051757812,6.525001525878906,17.81000518798828,-0.8700027465820312,2.3800048828125,1.1100006103515625,0.029998779296875,8.810005187988281,9.240005493164062,9.0,3.0,01-04,4.905001799265544
10-22,-1.0699996948242188,4.1300010681152335,0.3600006103515625,10.425003051757812,4.7700042724609375,18.719993591308594,-4.8000030517578125,2.0100021362304688,1.3000030517578125,0.029998779296875,8.220008850097656,9.57000732421875,10.0,2.0,01-05,4.472084999084473
10-23,0.6299991607666016,3.049999237060547,0.4500007629394531,11.505001068115234,5.245002746582031,17.25,-6.029998779296875,4.029998779296875,1.3000030517578125,1.0600051879882812,7.1300048828125,9.0,11.0,1.0,01-06,4.551668008168538
10-24,1.2150001525878906,3.2849998474121094,0.4500007629394531,10.290000915527344,4.974998474121094,13.81499481201172,-5.620002746582031,4.029998779296875,0.75,0.19000244140625,6.1100006103515625,11.94000244140625,11.0,1.0,01-07,4.28583304087321
10-25,1.6900005340576172,3.2849998474121094,1.3850021362304688,11.72500228881836,2.8000030517578125,15.164993286132812,-7.459999084472656,6.049995422363281,-0.25,-3.799995422363281,5.049995422363281,11.94000244140625,9.0,3.0,01-08,3.9649999936421714
10-26,1.6900005340576172,3.299999237060547,-0.15999984741210938,11.069995880126953,3.6949996948242183,15.659996032714846,-7.459999084472656,3.100006103515625,0.25,-2.590003967285156,4.370002746582031,11.94000244140625,9.0,3.0,01-09,3.7387499809265137
10-27,1.295000076293945,3.415000915527344,-2.084999084472656,11.574996948242188,4.290000915527344,15.659996032714846,-6.459999084472656,2.2399978637695312,0.7900009155273438,-1.8199996948242188,4.700004577636719,15.8800048828125,9.0,3.0,01-10,4.123333772023519
10-28,2.3099994659423833,2.8600006103515625,-2.520000457763672,12.159996032714846,4.290000915527344,14.264999389648438,-9.080001831054688,3.4799957275390625,2.05999755859375,-1.3899993896484375,4.700004577636719,18.06000518798828,9.0,3.0,01-11,4.266249815622967
10-29,1.670000076293945,2.94000244140625,-0.13500213623046875,12.159996032714846,1.9800033569335935,18.915000915527344,-9.790000915527344,3.2600021362304688,0.4499969482421875,-1.3899993896484375,3.3600006103515625,15.169998168945312,9.0,3.0,01-12,4.0491665204366045
10-30,2.625,2.680000305175781,0.09499740600585938,12.159996032714846,4.2350006103515625,17.30999755859375,-9.81000518798828,3.5,0.4499969482421875,-2.720001220703125,2.680000305175781,13.550003051757812,10.0,2.0,01-13,3.896248817443848
10-31,1.670000076293945,3.170001983642578,0.09499740600585938,12.345001220703125,4.0,11.279998779296875,-8.879997253417969,3.5,0.3700027465820313,-2.4399948120117188,2.9699935913085938,8.090011596679688,10.0,2.0,01-14,3.0141679445902505
11-01,1.989999771118164,3.170001983642578,1.0,10.150001525878906,2.5049972534179688,13.31000518798828,-10.949996948242188,3.8899993896484375,0.69000244140625,-4.879997253417969,3.779998779296875,8.090011596679688,10.0,2.0,01-15,2.728751977284749
11-02,1.989999771118164,2.685001373291016,-0.04999923706054688,10.55500030517578,3.714996337890625,13.300003051757812,-10.949996948242188,4.25,1.4099960327148438,-4.950004577636719,1.839996337890625,8.090011596679688,9.0,3.0,01-16,2.6570836702982583
11-03,1.7450008392333984,2.560001373291016,-0.3300018310546875,9.18000030517578,3.6199951171875,13.300003051757812,-11.139999389648438,5.120002746582031,1.6399993896484375,-5.449996948242188,2.650009155273437,6.410003662109375,9.0,3.0,01-17,2.442084789276123
11-04,1.905000686645508,1.7050018310546875,-0.4950027465820313,8.675003051757812,3.6199951171875,14.25,-10.80999755859375,3.5100021362304688,0.3000030517578125,-3.909996032714844,2.650009155273437,10.460006713867188,9.0,3.0,01-18,2.6550021171569824
11-05,1.8000011444091797,1.7350006103515625,-0.4300003051757813,8.675003051757812,3.689994812011719,10.860000610351562,-9.639999389648438,1.6200027465820312,-1.839996337890625,-3.909996032714844,1.850006103515625,5.010009765625,8.0,4.0,01-19,1.6183355649312336
11-06,1.625,2.0500030517578125,0.5,7.970001220703125,3.949996948242188,10.05500030517578,-11.099998474121094,2.340003967285156,-1.839996337890625,-4.819999694824219,0.970001220703125,4.510009765625,9.0,3.0,01-20,1.3508351643880208
11-07,1.680002212524414,1.8500022888183596,0.5,9.245002746582033,4.0149993896484375,11.740005493164062,-10.1300048828125,2.340003967285156,-1.839996337890625,-6.989997863769531,-2.4199981689453125,1.4000091552734375,8.0,4.0,01-21,0.9491689999898276
11-08,1.1300010681152344,1.8500022888183596,0.26000213623046875,12.18499755859375,3.954994201660156,10.94499969482422,-8.210006713867188,1.9500045776367188,2.290000915527344,-1.30999755859375,-0.42999267578125,1.4000091552734375,9.0,3.0,01-22,2.1679178873697915
11-09,1.1300010681152344,2.264999389648437,1.170001983642578,12.674999237060547,3.919998168945313,10.879997253417967,-8.210006713867188,2.209999084472656,3.310005187988281,-2.279998779296875,-3.30999755859375,1.4000091552734375,9.0,3.0,01-23,2.0966672897338867
11-10,1.079999923706055,1.670001983642578,1.3499984741210938,12.650001525878904,2.5,10.879997253417967,-7.600006103515625,2.1299972534179688,2.1100006103515625,-1.0500030517578125,-3.0399932861328125,0.4499969482421875,9.0,3.0,01-24,1.9274992942810056
11-11,-1.0400009155273438,2.020000457763672,0.1100006103515625,12.970001220703125,2.5,11.385002136230467,-9.69000244140625,4.470001220703125,2.6999969482421875,-3.3499984741210938,-3.0399932861328125,0.6200103759765625,8.0,4.0,01-25,1.6379181543986003
11-12,-0.1550006866455078,3.264999389648437,0.6049995422363281,12.970001220703125,2.3250045776367188,13.725006103515625,-6.049995422363281,5.75,4.3899993896484375,-3.3499984741210938,-4.089996337890625,3.400009155273437,8.0,4.0,01-26,2.732085704803467
11-13,0.3600006103515625,3.3600006103515625,1.0649986267089844,12.980003356933596,1.1350021362304688,11.290000915527346,-9.720001220703123,5.029998779296875,4.3899993896484375,-2.259994506835937,-4.060005187988281,0.4499969482421875,9.0,3.0,01-27,2.001666704813639
11-14,-0.7299995422363281,3.96500015258789,1.0649986267089844,13.834999084472654,-1.9899978637695312,11.960006713867188,-9.3699951171875,5.029998779296875,4.590003967285156,-3.1299972534179688,-3.94000244140625,-1.0,6.0,6.0,01-28,1.6904179255167644
11-15,-0.9600009918212892,3.96500015258789,1.0349998474121094,14.480003356933596,-0.8549957275390625,10.31500244140625,-9.149993896484377,4.849998474121094,6.819999694824219,-3.5800018310546875,-6.540000915527344,-1.0,6.0,6.0,01-29,1.6150008837382002
11-16,-0.9600009918212892,4.604999542236328,1.950000762939453,12.189998626708984,-1.1100006103515625,8.205001831054688,-9.149993896484377,5.489997863769531,7.459999084472656,-3.470001220703125,-4.8899993896484375,-1.0,6.0,6.0,01-30,1.6100001335144043
11-17,-0.875,3.919998168945313,3.174999237060547,10.504997253417967,-0.7249984741210938,8.205001831054688,-8.909996032714844,5.409996032714844,5.739997863769531,-3.2199935913085938,-5.5,0.0,6.0,6.0,01-31,1.4770835240681963
11-18,-0.75,2.84000015258789,2.935001373291016,10.089996337890623,-0.7249984741210938,6.620002746582031,-12.140007019042967,6.839996337890625,3.470001220703125,-2.649993896484375,-5.5,0.0,6.0,6.0,02-01,0.9191665649414062
11-19,-0.39999961853027344,3.450000762939453,3.875,10.089996337890623,-0.779998779296875,7.525001525878906,-8.25,3.8199996948242183,3.850006103515625,-2.649993896484375,-5.3699951171875,0.0,6.0,6.0,02-02,1.2633347511291504
11-20,0.13500022888183594,4.330001831054688,4.5149993896484375,9.339996337890623,1.2350006103515625,5.1100006103515625,-9.030006408691406,4.3699951171875,3.850006103515625,-0.8299942016601562,-3.389999389648437,0.0,8.0,3.0,02-03,1.6362500190734863
11-21,-0.2950000762939453,3.900001525878906,4.5149993896484375,8.05999755859375,-0.4800033569335938,4.189994812011719,-12.43000030517578,4.3699951171875,3.3900070190429688,-1.3699951171875,-5.840003967285156,0.0,6.0,5.0,02-04,0.6674993832906088
11-22,-0.6599998474121094,3.900001525878906,4.795001983642578,8.594997406005861,-3.4550018310546875,5.6649932861328125,-10.360000610351562,3.939994812011719,2.350006103515625,-1.5200042724609375,-4.07000732421875,0.0,6.0,5.0,02-05,0.7649984359741211
11-23,-0.6599998474121094,4.615001678466797,5.115001678466797,7.7849998474121085,-3.4749984741210938,5.939994812011719,-10.360000610351562,2.9900054931640625,-0.4899978637695313,-1.029998779296875,-5.260002136230469,0.0,5.0,6.0,02-06,0.4308338165283203
11-24,-0.31999969482421875,3.904998779296875,5.885002136230469,7.6799964904785165,-3.4850006103515625,5.939994812011719,-10.379997253417967,2.810005187988281,-4.1199951171875,-0.32999420166015625,-2.930000305175781,0.0,5.0,6.0,02-07,0.38791751861572266
11-25,-1.4699993133544922,4.1100006103515625,5.7150001525878915,7.6599998474121085,-3.4850006103515625,6.025001525878906,-10.760002136230467,1.7900009155273438,-1.8899993896484373,-1.2399978637695312,-2.930000305175781,0.0,5.0,6.0,02-08,0.2937502861022949
11-26,-0.4950008392333984,4.229999542236328,4.359996795654297,7.6599998474121085,-3.955001831054688,6.709999084472656,-13.339996337890625,2.660003662109375,-1.720001220703125,-1.2399978637695312,-4.850006103515625,0.0,5.0,6.0,02-09,0.0016662279764811199
11-27,-0.8250007629394531,4.4650001525878915,4.529998779296875,7.970001220703125,-2.80999755859375,6.019996643066406,-16.55999755859375,2.75,-1.720001220703125,0.29999542236328125,-4.830001831054688,0.0,6.0,5.0,02-10,-0.05916722615559896
11-28,-0.13500022888183594,4.3449974060058585,4.529998779296875,8.034999847412111,-0.7600021362304688,4.0,-14.75,2.75,-3.209999084472656,-2.790000915527344,-6.229995727539063,0.0,5.0,6.0,02-11,-0.3512501716613769
11-29,0.15999984741210938,4.3449974060058585,4.2350006103515625,8.120002746582031,-0.06500244140625,4.185005187988281,-14.400001525878904,2.0999984741210938,-6.709999084472656,-3.6100006103515625,-7.9499969482421875,0.0,6.0,5.0,02-12,-0.7991663614908854
11-30,0.15999984741210938,4.2649993896484375,2.139999389648437,7.5400047302246085,0.75,4.1750030517578125,-14.400001525878904,4.199996948242188,-4.479995727539063,-4.6100006103515625,-6.5500030517578125,0.0,7.0,4.0,02-13,-0.5674997965494791
12-01,-0.07999992370605469,3.829998016357422,2.139999389648437,7.754997253417969,1.0499954223632812,4.1750030517578125,-15.420005798339846,5.3000030517578125,-1.9499969482421875,-2.9499969482421875,-6.1399993896484375,0.0,6.0,5.0,02-14,-0.19083356857299805
12-02,-0.39999961853027344,4.0949974060058585,3.104999542236328,9.084999084472656,1.0499954223632812,4.5449981689453125,-14.0,6.229995727539063,-3.0,-2.6699981689453125,-6.1399993896484375,0.0,6.0,5.0,02-15,0.15833234786987305
12-03,0.31999969482421875,3.8449974060058594,2.674999237060547,9.084999084472656,2.049995422363281,2.4800033569335938,-15.030006408691404,5.580001831054688,-1.2399978637695312,-2.6699981689453125,-5.599998474121094,0.0,7.0,4.0,02-16,0.12458292643229167
12-04,-0.010000228881835938,4.200000762939453,2.3850021362304688,9.400001525878906,1.404998779296875,4.659996032714844,-14.18000030517578,5.510002136230469,-1.2399978637695312,1.1599960327148438,-6.740005493164063,0.0,7.0,4.0,02-17,0.5458327929178873
12-05,0.5449981689453125,4.375,2.3850021362304688,9.825000762939453,2.7249984741210938,6.959999084472656,-11.3699951171875,5.510002136230469,-0.4300003051757813,2.0999984741210938,-10.670005798339844,0.0,8.0,3.0,02-18,0.9962498346964518
12-06,0.7399997711181641,4.375,2.25,7.895000457763673,0.529998779296875,6.5050048828125,-9.989997863769533,5.279998779296875,0.12999725341796875,1.470001220703125,-12.389991760253904,0.0,9.0,2.0,02-19,0.5662509600321451
12-07,0.7399997711181641,4.125,2.6350021362304688,9.009998321533203,-0.06000518798828125,6.700004577636719,-9.989997863769533,3.3199996948242188,0.0800018310546875,5.879997253417969,-13.649993896484375,0.0,8.0,3.0,02-20,0.7325005531311035
12-08,1.4850006103515625,4.430000305175781,4.385002136230469,5.935005187988281,0.17499542236328125,6.700004577636719,-7.75,2.3599929809570312,0.2400054931640625,5.2700042724609375,-13.459999084472654,0.0,9.0,2.0,02-21,0.8141676584879557
12-09,1.335000991821289,4.699996948242188,4.0900001525878915,3.834999084472656,0.17499542236328125,5.275001525878906,-6.8600006103515625,3.0699996948242188,-0.279998779296875,6.279998779296875,-13.459999084472654,0.0,8.0,3.0,02-22,0.6799995104471842
12-10,1.7199993133544922,4.6199989318847665,4.7250022888183585,3.834999084472656,-0.1450042724609375,7.3249969482421875,-5.25,4.349998474121094,-0.05999755859375,6.279998779296875,-12.95000457763672,0.0,7.0,4.0,02-23,1.2041656176249187
12-11,1.7800006866455078,3.299999237060547,4.640003204345703,3.234996795654297,3.1999969482421875,7.019996643066406,-2.0100021362304688,4.159996032714844,-0.05999755859375,6.699996948242188,-12.949996948242188,0.0,8.0,3.0,02-24,1.5845824877421062
12-12,0.8800010681152344,3.045001983642578,4.640003204345703,2.764999389648437,2.9749984741210938,8.334999084472656,-2.8600006103515625,4.159996032714844,-0.26999664306640625,6.6699981689453125,-14.849990844726562,0.0,8.0,3.0,02-25,1.290834108988444
12-13,1.204999923706055,3.045001983642578,5.220001220703125,3.555004119873047,2.805000305175781,9.330001831054688,-2.0500030517578125,5.7599945068359375,-0.3899993896484375,10.540000915527344,-17.73999786376953,0.0,8.0,3.0,02-26,1.7733337084452312
12-14,1.204999923706055,2.6100006103515625,6.0,0.18500518798828125,4.185005187988281,8.779998779296875,-2.0500030517578125,6.430000305175781,3.6399993896484375,12.18000030517578,-23.62000274658203,0.0,9.0,2.0,02-27,1.6287503242492676
12-15,1.644998550415039,1.9249992370605469,5.7749977111816415,1.2399978637695312,5.365005493164063,8.779998779296875,-2.8700027465820312,7.209999084472656,2.44000244140625,14.340003967285154,-24.16000366210937,0.0,9.0,2.0,02-28,1.8074997266133623
12-16,0.8900012969970703,2.9850006103515625,6.0349998474121085,2.2300033569335938,5.365005493164063,9.504997253417967,-3.209999084472656,6.529998779296875,-0.8199996948242188,15.040000915527346,-24.16000366210937,0.0,8.0,3.0,03-01,1.6991670926411946
12-17,1.614999771118164,3.18499755859375,6.900001525878906,2.2300033569335938,4.760002136230469,6.790000915527344,-0.07999420166015625,6.209999084472656,-3.689994812011719,15.040000915527346,-24.010009765625,0.0,8.0,3.0,03-02,1.5791672070821126
12-18,2.30000114440918,2.6899986267089844,6.0600013732910165,1.095001220703125,4.230003356933594,4.185005187988281,0.23999786376953125,7.069999694824219,-3.689994812011719,15.470001220703125,-28.05999755859375,0.0,9.0,2.0,03-03,0.9658347765604656
12-19,2.1849994659423833,2.825000762939453,6.0600013732910165,1.7249984741210938,6.260002136230469,4.900001525878906,2.3499984741210938,7.069999694824219,-3.8699951171875,15.540000915527346,-27.970001220703125,0.0,9.0,2.0,03-04,1.4229172070821126
12-20,2.354999542236328,2.825000762939453,5.2350006103515625,0.20999908447265625,5.220001220703125,2.4699935913085938,2.0999984741210938,7.650001525878906,-5.0500030517578125,15.69000244140625,-27.16000366210937,0.0,9.0,2.0,03-05,0.9620825449625652
12-21,2.354999542236328,2.764999389648437,5.25,1.1650009155273438,7.345001220703125,2.8699951171875,2.0999984741210938,6.5099945068359375,-5.930000305175781,15.040000915527346,-28.6199951171875,0.0,9.0,2.0,03-06,0.9041662216186525
12-22,2.0349998474121094,3.549999237060547,5.069999694824219,0.4899978637695313,7.019996643066406,2.8699951171875,0.5699996948242188,7.05999755859375,-3.430000305175781,15.150001525878904,-25.04999542236328,0.0,9.0,2.0,03-07,1.2779159545898438
12-23,1.8050003051757808,2.884998321533203,4.055000305175781,0.1049957275390625,7.019996643066406,2.134994506835937,0.06000518798828125,6.5099945068359375,-1.2099990844726562,14.95000457763672,-25.04999542236328,0.0,9.0,2.0,03-08,1.1054162979125977
12-24,1.8600006103515625,2.25,3.22500228881836,0.1049957275390625,5.979995727539063,2.165000915527344,2.0999984741210938,4.930000305175781,-1.2600021362304688,14.95000457763672,-25.57999420166016,0.0,9.0,2.0,03-09,0.8937501907348633
12-26,1.5699996948242188,2.515003204345703,3.295001983642578,0.3649978637695313,5.995002746582031,0.3499984741210937,1.6100006103515625,10.980003356933594,-1.2600021362304688,10.56999969482422,-31.91000366210937,0.0,9.0,2.0,03-11,0.3400001525878906
12-27,1.954999923706055,2.515003204345703,3.295001983642578,2.1100006103515625,6.260002136230469,-2.395004272460937,2.3799972534179688,10.980003356933594,-1.089996337890625,8.209999084472656,-35.89999389648437,0.0,8.0,3.0,03-12,-0.1399989128112793
12-28,1.954999923706055,2.10000228881836,5.075000762939453,2.540000915527344,4.519996643066406,-3.6400070190429688,2.3799972534179688,8.260002136230469,0.4800033569335938,10.06999969482422,-30.93999481201172,0.0,9.0,2.0,03-13,0.23333342870076496
12-29,2.1700000762939453,1.1199989318847656,4.3899993896484375,1.8949966430664065,4.370002746582031,-3.6400070190429688,1.6999969482421875,6.779998779296875,-0.3600006103515625,8.919998168945312,-35.94999694824219,0.0,8.0,3.0,03-14,-0.7170844078063965
12-30,2.0150012969970703,1.825000762939453,4.799999237060547,3.084999084472656,4.370002746582031,-3.2400054931640625,3.1400070190429688,7.919998168945312,-1.9300003051757808,9.099998474121094,-35.94999694824219,0.0,8.0,3.0,03-15,-0.4054163297017415
12-31,2.810001373291016,1.8849983215332031,4.5949974060058585,3.084999084472656,3.775001525878906,-0.7249984741210938,6.19000244140625,6.480003356933594,-2.959999084472656,9.099998474121094,-36.52000427246094,0.0,8.0,3.0,03-16,-0.19041665395100912
