,2009,2010,2011,2012,2013,2014,2015,2016,2017,2018,2019,2020,ups,downs,end_day_sum,avg
01-02,-3.9259033203125,1.878021240234375,0.5738258361816406,3.9488449096679688,1.8966522216796875,2.811683654785156,0.6061019897460938,6.6247100830078125,8.594284057617188,-2.3846435546875,8.175453186035156,-36.32103729248047,9.0,3.0,03-17,-0.6268339157104492
01-03,-3.414026260375977,2.3954944610595703,0.5738258361816406,3.9488449096679688,1.8375282287597656,3.2212753295898438,2.0093917846679688,8.332435607910156,8.594284057617188,-3.288848876953125,12.10454559326172,-46.04794311523438,9.0,3.0,03-18,-0.8110993703206381
01-04,-3.0111055374145512,2.3954944610595703,1.103252410888672,3.853847503662109,0.9904823303222656,4.966346740722656,3.09259033203125,8.332435607910156,6.3137054443359375,-1.9865493774414065,11.124107360839844,-45.26189422607422,9.0,3.0,03-19,-0.6739405790964762
01-05,-3.0111055374145512,2.379205703735352,1.5991973876953125,4.1599884033203125,1.4221839904785156,3.7082443237304688,3.09259033203125,8.010612487792969,8.670661926269531,-4.9911956787109375,10.757194519042967,-54.82306671142578,9.0,3.0,03-20,-1.5854574044545489
01-06,-3.6917200088500977,1.5160903930664062,1.852081298828125,4.442779541015625,1.4841995239257812,3.7082443237304688,3.342193603515625,12.2779541015625,9.711418151855467,-4.201339721679688,10.679664611816406,-54.82306671142578,9.0,3.0,03-21,-1.1417917410532634
01-07,-2.9132156372070312,1.4801254272460938,2.854969024658203,4.398181915283203,1.4841995239257812,3.36785888671875,1.3135910034179688,12.938255310058596,7.9794464111328125,-4.1060791015625,10.679664611816406,-53.83177947998047,9.0,3.0,03-22,-1.1962318420410156
01-08,-3.475635528564453,1.7548561096191406,2.54703140258789,4.489356994628906,0.615447998046875,2.646224975585937,-0.0760040283203125,13.62786102294922,7.7637786865234375,-4.1060791015625,9.878707885742188,-50.567771911621094,8.0,4.0,03-23,-1.2418521245320635
01-09,-2.2288036346435547,2.017444610595703,2.62734603881836,4.489356994628906,-1.5480613708496094,2.521392822265625,0.04769134521484375,14.541587829589846,7.7637786865234375,-3.63165283203125,11.227783203125,-47.6983642578125,8.0,4.0,03-24,-0.8225417137145996
01-10,-2.106840133666992,1.7628116607666016,2.62734603881836,3.7085189819335938,-2.295841217041016,1.461669921875,-0.0533905029296875,14.541587829589846,7.7264251708984375,-4.618698120117188,4.350975036621094,-54.25556945800781,7.0,5.0,03-25,-2.2625837326049805
01-11,-1.9922857284545896,1.7628116607666016,2.858440399169922,2.9978179931640625,-3.36257553100586,2.57183837890625,-1.4324569702148438,14.541587829589846,7.849189758300781,-7.272712707519531,5.471961975097656,-45.95133972167969,7.0,5.0,03-26,-1.8298102219899488
01-12,-1.9922857284545896,2.10883903503418,2.6157989501953125,2.6934127807617188,-2.824298858642578,1.4665145874023438,-1.4324569702148438,13.92547607421875,6.846733093261719,-5.508331298828125,6.635467529296875,-42.343727111816406,7.0,5.0,03-27,-1.4840714931488037
01-13,-1.6500368118286133,1.5443954467773438,3.134613037109375,3.6645469665527344,-2.824298858642578,1.4665145874023438,-1.7683029174804688,15.182769775390625,7.388557434082031,-4.07562255859375,8.302589416503906,-42.343727111816406,7.0,5.0,03-28,-0.998166799545288
01-14,-0.3710012435913086,1.5737953186035156,2.8571434020996094,3.583477020263672,-2.824298858642578,0.06476593017578125,-2.2871551513671875,14.52922821044922,8.793869018554688,-4.07562255859375,8.302589416503906,-43.04057312011719,7.0,5.0,03-29,-1.0744818846384685
01-15,-1.5688447952270508,1.7477130889892578,3.347736358642578,3.1667098999023438,-2.431835174560547,-0.24558258056640625,-1.1821670532226562,16.480247497558597,9.544021606445312,-4.07562255859375,9.229019165039062,-39.84355163574219,6.0,6.0,03-30,-0.4860130151112874
01-16,-1.5489702224731443,0.9793834686279296,5.605510711669922,3.1667098999023438,-2.261054992675781,1.6865310668945312,-2.382896423339844,17.836097717285156,9.544021606445312,-4.07562255859375,9.33245849609375,-41.26708984375,7.0,5.0,03-31,-0.2820767561594645
01-17,-0.8253917694091797,0.9793834686279296,5.605510711669922,3.1667098999023438,-3.2875442504882812,2.066635131835937,-0.8974761962890625,19.063804626464844,9.544021606445312,-3.8930282592773438,5.795738220214844,-41.420265197753906,7.0,5.0,04-01,-0.3418251673380534
01-18,0.18980026245117188,0.9793834686279296,5.605510711669922,2.759384155273437,-3.52081298828125,3.2625808715820312,-0.8974761962890625,19.063804626464844,8.365180969238281,-6.050384521484375,8.966720581054688,-41.15519714355469,8.0,4.0,04-02,-0.20262543360392246
01-19,0.18980026245117188,0.9793834686279296,5.469169616699219,3.7303314208984375,-3.7466201782226562,3.5411300659179688,-0.8974761962890625,19.063804626464844,7.4679718017578125,-9.260284423828123,10.028297424316406,-44.812095642089844,8.0,4.0,04-03,-0.6872156461079916
01-20,0.18980026245117188,1.160226821899414,6.0235137939453125,4.046070098876953,-4.176231384277344,3.5411300659179688,-0.8974761962890625,16.919853210449222,6.066932678222656,-5.856361389160156,10.35784912109375,-44.812095642089844,8.0,4.0,04-04,-0.6197323799133301
01-21,0.8744535446166992,3.252527236938477,6.279285430908202,3.432323455810547,-4.176231384277344,3.5411300659179688,-1.329986572265625,19.886497497558594,4.618034362792969,-5.275321960449219,10.35784912109375,-44.812095642089844,8.0,4.0,04-05,-0.2792945702870687
01-22,2.3209819793701167,3.0912113189697266,5.7326622009277335,3.432323455810547,-4.176231384277344,4.8624420166015625,-3.2373199462890625,17.897048950195312,4.8337249755859375,-5.275321960449219,10.35784912109375,-44.249122619628906,8.0,4.0,04-06,-0.3674793243408203
01-23,2.237544059753418,2.8982639312744136,5.7580528259277335,3.432323455810547,-3.9358444213867188,5.158607482910156,-1.3394012451171875,19.080528259277344,4.8337249755859375,-5.721282958984375,12.984466552734375,-44.642974853515625,8.0,4.0,04-07,0.062000672022501625
01-24,1.7968864440917969,2.8366718292236333,5.7580528259277335,3.358993530273437,-5.148277282714844,5.420463562011719,-1.034423828125,19.680564880371094,3.3766326904296875,-6.486610412597656,12.781639099121096,-38.09005737304688,8.0,4.0,04-08,0.3542113304138184
01-25,1.7968864440917969,2.8366718292236333,5.644603729248048,2.198047637939453,-5.373748779296875,4.4522705078125,-0.4746017456054688,19.680564880371094,4.3023223876953125,-9.863380432128906,11.003646850585938,-30.89665985107422,8.0,4.0,04-09,0.4422186215718587
01-26,1.7968864440917969,3.2885341644287114,4.992431640625,3.4814605712890625,-2.9857406616210938,5.8856048583984375,-0.4746017456054688,18.328842163085934,4.3145294189453125,-10.849372863769533,10.694351196289062,-30.89665985107422,8.0,4.0,04-10,0.6313554445902506
01-27,1.6879854202270508,3.6729145050048833,5.049327850341797,2.49660873413086,-2.0955162048339844,5.8856048583984375,0.369537353515625,16.769599914550778,3.9119491577148438,-8.332183837890625,11.2952880859375,-30.89665985107422,9.0,3.0,04-11,0.8178713321685791
01-28,1.0233449935913086,4.184476852416991,5.170143127441406,1.3820114135742188,-2.0955162048339844,6.2259674072265625,3.2905960083007812,18.548622131347656,4.15576171875,-9.36090850830078,11.2952880859375,-31.94684600830078,9.0,3.0,04-12,0.98941175142924
01-29,2.447927474975586,4.405057907104492,4.230033874511719,2.445621490478516,-2.5629425048828125,3.3065185546875,2.016792297363281,15.62395477294922,4.15576171875,-9.36090850830078,10.542564392089844,-29.12049102783203,9.0,3.0,04-13,0.6774908701578776
01-30,3.2111949920654297,4.243814468383788,3.600048065185547,2.445621490478516,-0.8904304504394531,1.686614990234375,3.3421630859375,16.354873657226562,4.15576171875,-8.20330810546875,9.624183654785156,-25.05091857910156,9.0,3.0,04-14,1.2099682490030923
01-31,2.8511857986450195,4.3177337646484375,3.600048065185547,2.3981704711914062,-0.4520492553710938,3.0536651611328125,2.2145004272460938,17.545669555664062,6.04248046875,-7.839958190917969,10.29461669921875,-25.281517028808594,9.0,3.0,04-15,1.5620454947153728
02-01,2.973639488220215,4.3177337646484375,2.8731460571289062,2.840137481689453,-3.768589019775391,5.498870849609375,1.9004592895507808,17.545669555664062,4.591087341308594,-6.8248291015625,10.819442749023438,-27.63099670410156,9.0,3.0,04-16,1.2613143126169841
02-02,2.973639488220215,4.146759033203125,3.327526092529297,2.815540313720703,-1.6767845153808594,5.498870849609375,1.9004592895507808,19.89049530029297,3.9722671508789062,-3.2316818237304688,12.217208862304688,-31.879302978515625,9.0,3.0,04-17,1.6629164218902588
02-03,3.164215087890625,4.53428840637207,3.206104278564453,2.7152328491210938,-2.6290283203125,5.498870849609375,0.4617919921875,18.24549865722656,4.54559326171875,1.4604263305664062,12.217208862304688,-31.879302978515625,10.0,2.0,04-18,1.7950749397277832
02-04,4.030015945434569,4.9026832580566415,2.568302154541016,3.487071990966797,-2.6290283203125,5.333160400390625,-0.02452850341796875,18.478370666503906,4.888801574707031,1.5652084350585938,12.217208862304688,-33.047256469726555,9.0,3.0,04-19,1.8141674995422363
02-05,3.2432918548583984,5.081464767456055,3.207382202148437,3.5434951782226562,-2.3776893615722656,6.7350006103515625,-1.4134597778320312,21.44990539550781,5.132606506347656,1.5652084350585938,11.49346160888672,-34.920127868652344,9.0,3.0,04-20,1.895044962565104
02-06,1.8459138870239256,5.436405181884767,3.207382202148437,3.5434951782226562,1.2938804626464844,9.4918212890625,-1.1488571166992188,25.1492919921875,5.132606506347656,-0.3134765625,11.392684936523438,-30.08251190185547,9.0,3.0,04-21,2.912386337916056
02-07,1.9692411422729488,5.469247817993164,3.207382202148437,3.3752479553222656,1.8689613342285158,6.558601379394531,0.3979339599609375,24.70621490478516,5.04852294921875,-3.856277465820313,14.993003845214846,-30.54328918457031,10.0,2.0,04-22,2.76623257001241
02-08,2.1430425643920903,5.469247817993164,2.9384689331054688,4.326911926269531,2.33572769165039,5.8552093505859375,0.10210418701171876,24.70621490478516,6.2491455078125,-0.955657958984375,12.44390106201172,-31.900909423828125,10.0,2.0,04-23,2.8094505469004307
02-09,2.1430425643920903,4.866762161254883,3.631244659423828,4.2716217041015625,2.68212890625,5.8282623291015625,0.10210418701171876,23.47404479980469,5.817901611328125,-2.9102554321289062,12.947341918945312,-29.870391845703125,10.0,2.0,04-24,2.748650630315145
02-10,2.87032413482666,4.528032302856445,3.2407379150390625,4.667747497558594,2.7618560791015625,5.8282623291015625,-0.5423507690429688,17.789047241210938,7.376045227050781,-7.400238037109375,11.997467041015625,-29.870391845703125,9.0,3.0,04-25,1.9372115929921467
02-11,2.6331377029418945,4.7515411376953125,2.3677940368652344,4.989704132080078,2.7618560791015625,5.2774200439453125,-0.76995849609375,22.397140502929688,9.758811950683594,-5.390411376953125,11.997467041015625,-30.9107666015625,9.0,3.0,04-26,2.48864467938741
02-12,3.598238945007324,4.472740173339844,2.549888610839844,5.931755065917969,4.040672302246094,4.20440673828125,-4.1226348876953125,19.54448699951172,9.439979553222656,-5.390411376953125,9.20856475830078,-30.869613647460927,9.0,3.0,04-27,1.8840061028798416
02-13,3.30950927734375,3.3183994293212886,2.393444061279297,5.931755065917969,3.72247314453125,2.8586196899414062,-6.939643859863281,18.72944641113281,9.439979553222656,-5.940742492675781,7.862495422363281,-26.81658172607422,9.0,3.0,04-28,1.4890961647033691
02-14,3.7091875076293945,3.7126598358154297,2.393444061279297,6.173332214355469,2.8940391540527344,1.4322509765625,-6.563056945800781,18.21251678466797,8.730148315429688,-7.78216552734375,10.68036651611328,-23.298980712890625,9.0,3.0,04-29,1.6911451816558838
02-15,4.0568037033081055,3.7126598358154297,2.4522666931152344,6.633522033691406,3.647735595703125,3.1542282104492188,-5.921333312988281,18.21251678466797,9.180252075195312,-7.8297882080078125,8.216598510742188,-26.93962860107422,9.0,3.0,04-30,1.5479861100514731
02-16,4.0568037033081055,3.7126598358154297,2.300079345703125,6.1907005310058585,5.323646545410156,3.4328079223632812,-5.921333312988281,18.21251678466797,7.5673675537109375,-9.7919921875,8.9613037109375,-22.61246490478516,9.0,3.0,05-01,1.7860079606374104
02-17,4.0568037033081055,3.872837066650391,2.207042694091797,5.69580078125,4.464408874511719,3.4328079223632812,-5.921333312988281,16.403266906738278,6.648406982421875,-8.077445983886719,6.9937286376953125,-22.61246490478516,9.0,3.0,05-02,1.4303216139475503
02-18,3.934336662292482,3.392333984375,1.6869850158691406,6.5423431396484375,4.464408874511719,3.4328079223632812,-6.681419372558594,14.492469787597654,6.067024230957031,-9.230018615722656,6.9937286376953125,-22.61246490478516,9.0,3.0,05-03,1.040211280186971
02-19,4.1832027435302725,3.6141033172607417,2.130939483642578,6.607456207275392,4.464408874511719,2.507186889648437,-4.983741760253906,14.409416198730467,5.8138275146484375,-9.230018615722656,6.9937286376953125,-27.776649475097656,9.0,3.0,05-04,0.7278216679890951
02-20,5.46304988861084,2.6284255981445312,1.4079437255859375,6.607456207275392,7.515998840332031,2.8891220092773438,-5.284149169921875,11.797073364257812,5.8138275146484375,-9.230018615722656,7.269401550292969,-30.91114044189453,9.0,3.0,05-05,0.4972492059071858
02-21,5.802756309509277,2.217748641967773,1.4079437255859375,6.607456207275392,9.832374572753906,2.7049102783203125,-6.7860870361328125,10.957061767578123,5.8138275146484375,-10.153961181640623,7.2693939208984375,-31.620834350585927,9.0,3.0,05-06,0.3377158641815185
02-22,5.865958213806152,2.217748641967773,1.4079437255859375,6.685615539550781,8.609966278076174,3.122787475585937,-6.572166442871094,10.957061767578123,6.639030456542969,-9.01091766357422,4.700889587402344,-26.61353302001953,9.0,3.0,05-07,0.6675320466359457
02-23,5.865958213806152,2.4723796844482417,1.5601768493652344,5.847736358642577,10.151237487792967,4.592063903808594,-6.572166442871094,12.664756774902346,7.464225769042969,-10.715934753417967,2.074188232421875,-26.09111785888672,9.0,3.0,05-08,0.7761253515879313
02-24,5.312935829162598,1.3028850555419922,2.120201110839844,6.611808776855469,11.2762451171875,4.592063903808594,-6.6996307373046875,11.907829284667967,5.170326232910156,-10.334922790527344,1.6477279663085938,-26.09111785888672,9.0,3.0,05-09,0.5680293242136637
02-25,4.843067169189453,1.3325557708740234,1.8731498718261719,6.1477813720703125,11.2762451171875,3.5811004638671875,-4.56427001953125,10.80059814453125,5.430885314941406,-9.550559997558594,1.6477279663085938,-20.53184509277344,9.0,3.0,05-10,1.0238696734110515
02-26,5.452004432678223,2.5016441345214844,1.6841964721679688,5.8989410400390625,10.222137451171877,1.7136764526367188,-2.7512435913085938,8.932945251464844,5.430885314941406,-9.550559997558594,2.471595764160156,-18.46190643310547,9.0,3.0,05-11,1.1286930243174236
02-27,5.130548477172852,1.8834285736083984,0.9225807189941406,5.8989410400390625,8.802757263183594,1.6153411865234375,-3.3272476196289062,11.632789611816404,5.430885314941406,-7.4359588623046875,1.1507034301757812,-10.929206848144533,9.0,3.0,05-12,1.7312968571980794
02-28,5.593400955200195,2.3843727111816406,0.9225807189941406,5.903278350830077,8.896095275878906,1.017486572265625,-5.67999267578125,10.419059753417967,5.449653625488281,-5.601356506347656,0.7216110229492188,-13.32330322265625,9.0,3.0,05-13,1.3919072151184082
02-29,0.0,0.0,0.0,6.54095458984375,0.0,0.0,0.0,10.419059753417967,0.0,0.0,0.0,-16.936668395996097,2.0,1.0,05-14,0.00194549560546875
03-01,4.874082565307617,2.3843727111816406,1.1931877136230469,5.693107604980469,8.420570373535156,0.6015777587890625,-5.264472961425781,7.603630065917969,4.276161193847656,-9.767776489257812,-1.007720947265625,-20.29711151123047,8.0,4.0,05-15,-0.10753266016642253
03-02,4.874082565307617,2.294015884399414,0.9598617553710938,4.858928680419922,9.675926208496094,0.0740814208984375,-5.264472961425781,7.899261474609375,4.809516906738281,-6.518943786621094,0.6509780883789062,-20.29711151123047,9.0,3.0,05-16,0.3346770604451497
03-03,4.968888282775879,1.7983379364013672,-0.2991905212402344,4.830596923828125,9.524742126464844,0.0740814208984375,-3.8262405395507812,6.271949768066406,5.918937683105469,-8.852371215820312,1.0208587646484375,-19.390281677246094,8.0,4.0,05-17,0.17002574602762854
03-04,4.734277725219727,1.1109848022460938,0.25931549072265625,4.642890930175781,9.524742126464844,-1.3322982788085938,-2.6378173828125,5.603080749511719,6.188957214355469,-8.402778625488281,1.0208587646484375,-21.194259643554688,8.0,4.0,05-18,-0.040170510609944664
03-05,5.614190101623535,1.3813457489013672,0.19266891479492188,4.642890930175781,9.245716094970703,-1.910316467285156,-1.3637161254882812,3.72528076171875,4.372596740722656,-8.402778625488281,1.6120986938476562,-15.0185546875,8.0,4.0,05-19,0.3409518400828044
03-06,5.994171142578125,1.071706771850586,0.89898681640625,5.1681861877441415,9.177654266357422,-1.8508148193359373,-0.13144683837890625,3.150848388671875,4.372596740722656,-10.603126525878906,2.75982666015625,-8.948707580566406,8.0,4.0,05-20,0.9216567675272624
03-07,6.1943559646606445,0.5459156036376953,0.89898681640625,3.8414382934570312,10.631744384765623,-1.5128173828125,-0.7063064575195312,3.150848388671875,4.766426086425781,-9.685035705566406,2.3286361694335938,-3.608474731445313,8.0,4.0,05-21,1.4038097858428955
03-08,6.530041694641112,0.5459156036376953,0.3451194763183594,2.240741729736328,9.012020111083984,-1.7739410400390625,-1.1903228759765625,4.8677978515625,-0.9914703369140624,-9.53045654296875,-1.3904037475585938,-0.8626251220703125,6.0,6.0,05-22,0.6502014001210531
03-09,6.530041694641112,0.8005504608154297,0.6110801696777344,3.178897857666016,9.653125762939453,-1.1066970825195312,-1.1903228759765625,3.462142944335937,3.9267349243164062,-11.59711456298828,-1.7826461791992188,-0.8626251220703125,7.0,5.0,05-23,0.9685973326365152
03-10,5.2699480056762695,-0.6749076843261719,0.9131240844726562,2.91775131225586,9.035037994384766,-1.1066970825195312,0.91241455078125,3.4087066650390625,4.42266845703125,-12.558494567871096,-2.288780212402344,-5.367210388183594,7.0,5.0,05-24,0.4069634278615316
03-11,5.183042526245117,-0.03869056701660156,-0.12225341796875,3.5900192260742188,9.035037994384766,0.14691162109375,2.04571533203125,1.6740341186523438,4.132896423339844,-12.682830810546875,-2.288780212402344,-0.42891693115234375,7.0,5.0,05-25,0.8538487752278646
03-12,4.030716896057129,-0.8762435913085938,-0.5766067504882812,3.5900192260742188,8.432685852050781,0.28171539306640625,0.12548828125,3.1555252075195312,4.3587799072265625,-12.682830810546875,-2.143402099609375,5.647727966308594,8.0,4.0,05-26,1.1119646231333415
03-13,4.799821853637695,-0.726104736328125,0.019092559814453125,3.06036376953125,7.378589630126952,0.9454574584960938,0.92193603515625,3.674362182617188,4.3587799072265625,-12.31134796142578,-2.317855834960937,2.4996261596679688,9.0,3.0,05-27,1.0252267519632976
03-14,4.9793663024902335,-0.8751449584960938,0.019092559814453125,3.333873748779297,6.757305145263673,2.225341796875,-1.1935958862304688,3.674362182617188,5.2496337890625,-11.330238342285154,-2.3343582153320312,17.887863159179688,8.0,4.0,05-28,2.3661251068115234
03-15,4.495828628540039,-0.8751449584960938,0.4587974548339844,4.835456848144531,7.155876159667969,1.271636962890625,-0.08855438232421875,3.6559066772460938,3.08349609375,-10.807212829589844,-1.7683868408203125,20.217369079589844,8.0,4.0,05-29,2.6362557411193848
03-16,4.495828628540039,-0.9367504119873048,1.0,4.411914825439453,7.466793060302733,2.231918334960937,-0.08855438232421875,1.94818115234375,3.4491043090820312,-10.565437316894533,-2.8936843872070312,20.217369079589844,8.0,4.0,05-30,2.561390240987142
03-17,4.0889644622802725,-1.4542236328125,0.20871734619140625,4.872367858886719,7.364521026611327,2.231918334960937,1.1949234008789062,-1.20166015625,2.9438629150390625,-11.194099426269533,-3.2148818969726562,20.020225524902344,8.0,4.0,05-31,2.155052979787191
03-18,3.797938346862793,0.35941314697265625,0.379730224609375,3.632587432861328,7.364521026611327,1.333282470703125,0.42220306396484375,0.0937347412109375,1.2158737182617188,-10.821044921875,-3.2148818969726562,29.86887359619141,10.0,2.0,06-01,2.8693525791168213
03-19,3.906352996826172,-0.1409015655517578,0.29759979248046875,3.632587432861328,7.466400146484375,2.9295120239257812,1.5768814086914062,-0.7493972778320312,1.1029434204101562,-10.821044921875,-3.1664276123046875,25.31942749023437,8.0,4.0,06-02,2.612827777862549
03-20,4.687814712524414,-1.0002155303955078,-0.5278587341308594,3.8626861572265625,7.0530662536621085,3.39324951171875,0.32544708251953125,-0.471466064453125,1.1029434204101562,-11.421127319335938,-3.0304946899414062,23.88983154296875,7.0,5.0,06-03,2.32198969523112
03-21,3.6193923950195312,-0.0935344696044922,-0.5278587341308594,4.286636352539063,7.50006103515625,3.547088623046875,1.166290283203125,-0.471466064453125,2.12506103515625,-12.004241943359375,-7.315513610839844,35.12030792236328,7.0,5.0,06-04,3.0793519020080566
03-22,3.207780838012696,-0.0935344696044922,-0.32916259765625,2.8432159423828125,8.765007019042969,4.130279541015625,1.9608001708984373,-1.3483810424804688,4.975868225097656,-8.4468994140625,1.4981307983398438,39.244041442871094,8.0,4.0,06-05,4.700595537821452
03-23,3.207780838012696,-0.3276348114013672,-0.6605186462402344,2.024169921875,8.983684539794922,5.0950775146484375,1.9608001708984373,-0.4984054565429688,5.814735412597656,-6.302040100097656,4.964775085449219,39.244041442871094,8.0,4.0,06-06,5.2922054926554365
03-24,3.369735717773437,-0.3917942047119141,-1.357257843017578,1.7926826477050781,7.396213531494141,5.0950775146484375,2.388633728027344,-0.8140640258789062,4.654319763183594,-8.568756103515625,5.587715148925781,29.83073425292969,8.0,4.0,06-07,4.081936677296956
03-25,3.415022850036621,-0.9862689971923828,-2.031749725341797,3.023731231689453,7.396213531494141,5.247848510742188,3.2106475830078125,-0.8125228881835938,4.64501953125,-7.200859069824219,5.587715148925781,25.668006896972656,8.0,4.0,06-08,3.9302337169647217
03-26,2.708144187927246,-2.0788116455078125,-1.3340911865234375,3.023731231689453,7.329780578613281,6.0330657958984375,3.6746673583984375,-1.1368179321289062,4.146217346191406,-7.200859069824219,4.327682495117188,24.481300354003906,8.0,4.0,06-09,3.664500792821249
03-27,3.1628904342651367,-1.2849464416503906,-1.8574752807617188,2.880481719970703,8.173549652099611,7.2310028076171875,2.677108764648437,1.8094558715820312,4.146217346191406,-7.18182373046875,3.2835006713867188,28.627960205078125,9.0,3.0,06-10,4.305660168329875
03-28,3.6267824172973633,-1.376020431518555,-1.8574752807617188,3.633373260498047,9.566299438476562,6.7370147705078125,2.505889892578125,1.8094558715820312,3.067840576171875,-6.137420654296875,2.66729736328125,25.758399963378906,9.0,3.0,06-11,4.1667864322662345
03-29,3.518876075744629,-1.376020431518555,-2.3690719604492188,3.7185096740722656,9.1798095703125,5.857398986816406,3.7067947387695312,0.7294540405273438,2.3835678100585938,-6.67608642578125,1.941986083984375,23.399154663085927,9.0,3.0,06-12,3.667864402135213
03-30,3.518876075744629,-1.4951305389404297,-4.282184600830078,2.919902801513672,8.125953674316406,5.7672271728515625,3.7067947387695312,-0.9800186157226562,4.7815704345703125,-3.705093383789064,3.027938842773437,23.399154663085927,8.0,4.0,06-13,3.7320826053619385
03-31,3.5070266723632812,-0.644439697265625,-4.467090606689453,3.0597457885742188,7.7034912109375,5.7672271728515625,3.2289047241210938,-1.7040939331054688,5.1198577880859375,-4.087715148925781,3.164215087890625,25.685943603515625,8.0,4.0,06-14,3.86108938852946
04-01,2.571758270263672,-0.4917354583740234,-4.535480499267578,2.0819091796875,7.7034912109375,4.338386535644531,4.683891296386719,-4.63555908203125,6.465644836425781,-4.3077239990234375,3.164215087890625,19.94548797607422,8.0,4.0,06-15,3.082023779551188
04-02,1.4247550964355469,-0.9581756591796876,-4.416858673095703,2.0819091796875,7.911659240722656,3.1491317749023438,4.7465362548828125,-4.351509094238281,6.399772644042969,-4.3077239990234375,3.1448287963867188,21.169448852539066,8.0,4.0,06-16,2.999481201171875
04-03,-0.026304244995117188,-0.3330268859863281,-5.067863464355469,2.950180053710937,10.26226806640625,3.4107894897460938,3.3639373779296875,-4.7776947021484375,6.399772644042969,-6.136573791503906,2.7374038696289062,23.02147674560547,7.0,5.0,06-17,2.9836970965067544
04-04,-0.2754039764404297,0.06442070007324219,-5.067863464355469,3.648746490478516,9.09931182861328,2.6719894409179688,3.884475708007813,-4.7776947021484375,6.69049072265625,-6.086296081542969,1.9799346923828125,18.456626892089844,8.0,4.0,06-18,2.5240615208943686
04-05,-0.20746803283691406,0.06442070007324219,-5.008644104003906,3.6588134765625,11.07424545288086,4.549354553222656,4.496353149414063,-4.076118469238281,6.305389404296875,-5.566192626953125,0.441864013671875,18.565673828125,8.0,4.0,06-19,2.8581409454345703
04-06,-0.20746803283691406,-0.21485328674316406,-4.974464416503906,4.823844909667969,11.402839660644533,5.036262512207031,4.496353149414063,-4.3611602783203125,5.901634216308594,-3.7579345703125,0.7412948608398438,18.565673828125,7.0,5.0,06-20,3.1210018793741856
04-07,0.3732013702392578,-0.31058692932128906,-4.558403015136719,5.435016632080078,10.335617065429688,5.036262512207031,4.186836242675781,-1.873870849609375,5.123176574707031,-4.7996978759765625,1.6951904296875,14.16950225830078,8.0,4.0,06-21,2.9010203679402675
04-08,0.2256584167480469,-0.30069541931152344,-3.960403442382813,5.3738861083984375,10.335617065429688,5.292366027832031,4.668098449707031,-2.777671813964844,5.056419372558594,-3.8335494995117188,1.6951904296875,11.495765686035154,8.0,4.0,06-22,2.772556781768799
04-09,-0.6518135070800781,-0.5466136932373047,-2.812652587890625,5.3738861083984375,9.804119110107422,3.6922531127929688,3.1965255737304688,-2.972747802734375,4.9622955322265625,-3.8335494995117188,1.8115005493164065,7.036552429199219,7.0,5.0,06-23,2.0883129437764487
04-10,-1.1785888671875,-1.1586456298828125,-2.808414459228516,6.311603546142577,7.0951995849609375,6.875465393066406,3.4630889892578125,-3.2043685913085938,4.9622955322265625,-4.547943115234375,0.7530975341796875,10.427024841308594,7.0,5.0,06-24,2.2491512298583984
04-11,-1.2385330200195312,-1.3408164978027344,-2.808414459228516,3.6677093505859375,5.263969421386719,7.746826171875,3.53167724609375,-3.2043685913085938,4.7091217041015625,-4.322746276855469,1.9779510498046875,10.446853637695312,7.0,5.0,06-25,2.0357691446940103
04-12,-0.6550769805908203,-1.3408164978027344,-2.309497833251953,3.446239471435547,4.879108428955078,6.810211181640625,3.2394561767578125,-4.367469787597656,5.543304443359375,-3.9753189086914062,1.7390518188476562,8.652633666992188,7.0,5.0,06-26,1.805152098337809
04-13,-0.6550769805908203,-1.5215301513671875,-1.9901084899902344,2.679615020751953,7.520824432373048,7.459419250488281,3.2394561767578125,-2.398895263671875,6.2469635009765625,-4.2337493896484375,0.282562255859375,8.652633666992188,7.0,5.0,06-27,2.1068428357442217
04-14,-0.2600593566894531,-2.4193153381347656,-2.019306182861328,2.8264999389648438,8.041088104248049,7.459419250488281,3.9813308715820312,-10.523330688476562,5.469139099121094,-5.230987548828125,-0.4377212524414063,9.529899597167967,6.0,6.0,06-28,1.3680547078450518
04-15,-0.03484153747558594,-2.575918197631836,-2.172080993652344,3.1059036254882812,8.041088104248049,7.4729156494140625,4.0853118896484375,-15.04180145263672,5.1585693359375,-5.919708251953125,-0.4377212524414063,14.660438537597654,6.0,6.0,06-29,1.361846288045247
04-16,-0.8024158477783203,-2.3666648864746094,-1.0010719299316406,3.1059036254882812,6.6636619567871085,5.227935791015625,4.5685882568359375,-13.678474426269533,5.70440673828125,-5.919708251953125,-2.3083648681640625,13.6219482421875,6.0,6.0,06-30,1.0679787000020344
04-17,-0.3626174926757813,-3.576244354248047,-0.71173095703125,2.48074722290039,7.6292572021484375,2.372528076171875,1.86517333984375,-11.890335083007812,5.70440673828125,-7.167533874511719,-0.9789962768554688,11.05937957763672,6.0,6.0,07-01,0.5353361765543619
04-18,0.4829082489013672,-3.820507049560547,-0.71173095703125,2.43304443359375,2.8102951049804688,6.4346466064453125,1.1407470703125,-11.890335083007812,6.313911437988281,-6.688812255859375,-2.5749053955078125,15.339263916015625,7.0,5.0,07-02,0.7723771731058756
04-19,0.4829082489013672,-3.820507049560547,-1.4516410827636719,2.4784393310546875,3.296661376953125,5.8530426025390625,1.1407470703125,-12.628807067871096,4.733726501464844,-5.2108917236328125,1.8333511352539065,15.339263916015625,8.0,4.0,07-03,1.0038577715555828
04-20,0.4829082489013672,-3.906768798828125,-2.0435791015625,2.3525466918945312,2.4285926818847656,5.8530426025390625,1.1407470703125,-12.18572998046875,3.4490509033203125,-4.477455139160156,1.8333511352539065,15.339263916015625,8.0,4.0,07-04,0.8554975191752116
04-21,0.305145263671875,-3.939611434936523,-1.3838005065917969,1.8542022705078125,2.713176727294922,5.8530426025390625,1.427490234375,-5.284591674804688,4.1440277099609375,-5.491363525390625,1.3077545166015625,18.385032653808594,8.0,4.0,07-05,1.6575420697530108
04-22,0.08338546752929688,-3.5760936737060547,-0.4211921691894531,1.932777404785156,2.713176727294922,5.933929443359375,3.3488845825195312,-7.6464385986328125,2.814682006835937,-6.1418304443359375,1.3077545166015625,16.641990661621097,8.0,4.0,07-06,1.4159188270568848
04-23,-0.3191509246826172,-4.193723678588866,-0.5743560791015625,1.932777404785156,2.1595382690429688,5.712921142578125,3.0467300415039062,-8.834365844726562,2.8805465698242188,-6.1418304443359375,0.9394302368164062,18.89472198486328,7.0,5.0,07-07,1.2919365564982097
04-24,-0.7654495239257812,-3.97198486328125,-0.14036178588867188,1.5029830932617188,2.3065643310546875,7.351280212402344,3.4767303466796875,-8.537895202636719,2.8805465698242188,-3.179473876953125,2.8529281616210938,17.509429931640625,7.0,5.0,07-08,1.7737747828165693
04-25,-0.7600536346435547,-2.9328212738037114,-0.14036178588867188,0.8272323608398438,2.7101821899414062,7.236244201660156,4.559814453125,-8.537895202636719,0.2455673217773437,-4.414482116699219,2.8386383056640625,12.84882354736328,7.0,5.0,07-09,1.2067406972249348
04-26,-0.6801338195800781,-2.9328212738037114,-0.3686676025390625,0.4062957763671875,3.9473342895507812,7.202369689941406,2.7698745727539062,-9.414825439453123,-0.02849578857421875,-4.061271667480469,-0.9091567993164062,10.91582489013672,5.0,7.0,07-10,0.5705272356669108
04-27,-0.6801338195800781,-2.209991455078125,0.15372085571289062,-0.7450981140136719,4.489067077636719,7.6622161865234375,2.7698745727539062,-8.842292785644531,0.10602569580078124,-3.4384307861328125,-0.6589431762695312,10.91582489013672,6.0,6.0,07-11,0.7934865951538086
04-28,-0.3680763244628906,-2.115732192993164,-0.6064872741699219,-1.0997238159179688,4.27117919921875,7.6622161865234375,2.8108367919921875,-5.5910186767578125,1.4468765258789062,-0.6058578491210938,-1.1748275756835938,15.36127471923828,5.0,7.0,07-12,1.6658883094787598
04-29,-0.5998020172119141,-2.5046710968017583,-1.6177215576171875,-1.6497611999511719,4.27117919921875,6.9747772216796875,1.7490234375,-3.1253814697265625,1.7938079833984375,-1.6102523803710938,-1.1748275756835938,9.656234741210938,5.0,7.0,07-13,1.0135504404703777
04-30,-0.6400814056396484,-2.495136260986328,-1.5681114196777344,-1.6497611999511719,4.218048095703125,6.502326965332031,4.0905609130859375,-1.9736328125,2.6125640869140625,-1.6102523803710938,-1.552825927734375,16.576858520507812,5.0,7.0,07-14,1.8758797645568848
05-01,0.023159027099609368,-2.227157592773437,-1.5340614318847656,-2.43118667602539,5.962188720703125,7.231208801269531,4.218269348144531,-1.2602157592773438,2.6125640869140625,-2.6008834838867188,0.9890289306640624,21.685943603515625,7.0,5.0,07-15,2.722404797871908
05-02,-0.732696533203125,-2.5625038146972656,-1.5340614318847656,-2.592334747314453,4.376068115234375,6.0718994140625,4.986114501953125,-1.2602157592773438,2.603179931640625,-1.362213134765625,0.7509765625,25.15879821777344,6.0,6.0,07-16,2.8252509435017905
05-03,0.05456733703613281,-2.5625038146972656,-0.6757736206054688,-1.4267616271972656,2.363975524902344,4.657318115234375,4.410789489746094,0.345947265625,3.3834381103515625,-0.5043487548828125,0.5598831176757812,29.02480316162109,8.0,4.0,07-17,3.3026111920674643
05-04,0.05456733703613281,-1.4084434509277344,-0.5825233459472656,-1.2907600402832031,1.6382293701171875,4.761024475097656,4.410789489746094,0.407684326171875,3.1128158569335938,-3.4256210327148438,1.9949264526367188,29.02480316162109,8.0,4.0,07-18,3.2247910499572754
05-05,0.34293556213378906,-0.9646434783935548,-1.1444091796875e-05,-0.95166015625,2.536483764648437,4.761024475097656,5.980995178222656,1.0098953247070312,2.6351318359375,-0.336700439453125,0.7879714965820312,27.60541534423828,8.0,4.0,07-19,3.617236455281576
05-06,1.546539306640625,-0.9480743408203124,-0.7148246765136719,-0.9254646301269532,2.536483764648437,4.949722290039063,1.054779052734375,0.917236328125,4.253852844238281,0.9450912475585938,0.7879714965820312,26.72613525390625,9.0,3.0,07-20,3.427453994750977
05-07,2.329818725585937,-0.6789608001708984,-0.8680267333984375,-0.9254646301269532,1.889862060546875,4.341552734375,-0.5981674194335938,0.8709182739257812,4.8655853271484375,0.9450912475585938,2.561729431152344,21.837928771972656,8.0,4.0,07-21,3.0476555824279785
05-08,2.2898578643798837,-1.0143070220947266,-0.8212165832519531,-1.012775421142578,2.161117553710937,5.9826202392578125,-3.3561630249023438,2.399627685546875,4.8655853271484375,0.4973983764648438,3.3677978515625,17.258216857910153,8.0,4.0,07-22,2.7181466420491542
05-09,2.7534236907958984,-0.9480724334716796,-0.8212165832519531,2.6279830932617188,2.330047607421875,5.468666076660156,-4.981719970703125,2.399627685546875,5.411445617675781,-0.6313323974609375,4.506629943847656,19.567909240722656,8.0,4.0,07-23,3.14028263092041
05-10,2.8812961578369136,-0.9480724334716796,-1.0339393615722656,3.544708251953125,2.490196228027344,4.823989868164063,-5.09130859375,1.2044296264648438,-1.0634689331054688,-1.0617904663085938,4.58447265625,21.07465362548828,7.0,5.0,07-24,2.6170972188313804
05-11,2.8812961578369136,-0.6748313903808594,-0.004245758056640625,2.42715072631836,2.6324539184570312,4.914146423339844,-5.09130859375,1.0840225219726562,-1.0258255004882812,3.8071212768554688,7.504539489746094,21.07465362548828,8.0,4.0,07-25,3.2940977414449057
05-12,2.8213596343994136,-0.6789588928222656,-0.3276100158691406,2.3747787475585938,1.72088623046875,4.914146423339844,-3.79449462890625,0.1482391357421875,-1.6281509399414062,2.9462203979492188,6.667442321777344,23.84033203125,8.0,4.0,07-26,3.2503492037455235
05-13,4.228034973144531,0.3601913452148437,0.034030914306640625,1.907684326171875,1.72088623046875,5.671546936035156,-6.4565582275390625,-0.1019134521484375,-0.8187942504882812,6.035926818847656,6.667442321777344,26.358184814453125,9.0,3.0,07-27,3.8005552291870117
05-14,4.056196212768556,1.2875614166259766,-0.8637733459472656,1.907684326171875,0.1200714111328125,6.068305969238281,-10.182601928710938,-1.2970962524414062,-1.1575851440429688,6.035926818847656,6.3657073974609375,24.3756103515625,8.0,4.0,07-28,3.0596672693888345
05-15,4.240028381347656,1.1095504760742188,-1.5402908325195312,2.3180465698242188,1.00494384765625,6.4199066162109375,-12.29218292236328,-1.9178619384765625,-1.1575851440429688,5.978523254394531,6.034767150878906,23.10678100585937,8.0,4.0,07-29,2.7753855387369786
05-16,3.3848323822021484,1.1261005401611328,-1.5402908325195312,2.828784942626953,0.693695068359375,6.000648498535156,-7.803596496582031,-1.9178619384765625,-0.6211395263671875,6.848991394042969,4.88623046875,16.584144592285153,8.0,4.0,07-30,2.5392115910847983
05-17,3.117076873779297,1.1261005401611328,-1.0296897888183594,5.050769805908203,1.03607177734375,4.0350189208984375,-6.296745300292969,-0.852386474609375,0.6305618286132812,4.811515808105469,6.482521057128906,18.398193359375,9.0,3.0,07-31,3.0424173672993984
05-18,3.117076873779297,1.328960418701172,-1.927490234375,5.862743377685548,1.7742385864257812,3.782546997070313,-6.296745300292969,-0.8431015014648438,0.6023178100585938,4.581932067871094,10.920997619628906,18.398193359375,9.0,3.0,08-01,3.4418058395385738
05-19,2.8852920532226562,1.846475601196289,-2.0125885009765625,4.330490112304688,1.5030059814453125,3.782546997070313,-5.867515563964844,-0.8616561889648438,-1.3928604125976562,5.385459899902344,9.392845153808594,17.040130615234375,8.0,4.0,08-02,3.0026354789733887
05-20,3.5606613159179688,3.274799346923828,-1.7657814025878906,3.719329833984375,1.5030059814453125,3.9403228759765625,-5.4291839599609375,-1.42681884765625,-1.2328567504882812,4.495857238769531,9.392845153808594,12.103546142578125,8.0,4.0,08-03,2.6779772440592446
05-21,4.3838863372802725,3.490081787109375,-2.1019325256347656,3.719329833984375,0.6670150756835938,0.5364990234375,-5.694007873535156,-2.5385818481445312,-0.1976165771484375,4.495857238769531,8.166435241699219,12.45050048828125,8.0,4.0,08-04,2.281455516815185
05-22,4.8714256286621085,3.514921188354492,-1.7104759216308594,3.841552734375,2.316719055175781,0.9197235107421876,-6.141510009765625,-1.945640563964844,-0.1976165771484375,6.5907440185546875,6.998390197753906,11.10234832763672,8.0,4.0,08-05,2.5133817990620932
05-23,4.803504943847656,3.8709716796875,-1.7104759216308594,2.9859275817871094,2.4457015991210938,0.7934646606445312,-6.228271484375,-1.945640563964844,-0.4611282348632813,6.322883605957031,7.1541290283203125,7.722084045410156,8.0,4.0,08-06,2.146095911661784
05-24,4.831474304199219,3.8709716796875,-1.399871826171875,2.182708740234375,2.2500228881835938,0.04058074951171875,-6.182594299316406,-3.1779022216796875,-2.1363449096679688,8.082954406738281,3.1244659423828125,11.558349609375,8.0,4.0,08-07,1.9204012552897136
05-25,4.831474304199219,3.585302352905273,-4.106029510498047,2.933544158935547,1.8187026977539065,0.3471298217773437,-6.182594299316406,-3.9098587036132812,-1.7881240844726562,6.619415283203125,3.377532958984375,11.558349609375,8.0,4.0,08-08,1.5904037157694502
05-26,4.831474304199219,3.4735164642333984,-3.9230575561523438,2.8025894165039062,1.6719436645507812,0.3471298217773437,-6.182594299316406,-3.0296630859375,-1.9763412475585933,8.532546997070312,5.207420349121094,11.558349609375,8.0,4.0,08-09,1.9427762031555176
05-27,5.145593643188477,2.0736865997314453,-6.089738845825195,2.881580352783203,1.6719436645507812,0.3471298217773437,-8.222282409667969,-3.4449691772460938,-2.4803543090820312,7.8533782958984375,5.207420349121094,9.010757446289062,8.0,4.0,08-10,1.162845452626546
05-28,5.049835205078125,2.5877647399902344,-4.603843688964844,2.881580352783203,1.6719436645507812,-1.020263671875,-9.714859008789062,-2.6949386596679688,-2.5087127685546875,7.8533782958984375,5.207420349121094,11.522346496582033,7.0,5.0,08-11,1.3526376088460286
05-29,4.450239181518555,3.0417861938476562,-6.42552375793457,2.881580352783203,2.376800537109375,-0.04654693603515625,-6.8252716064453125,-2.3972930908203125,-2.5087127685546875,7.8533782958984375,9.217628479003906,14.505989074707033,7.0,5.0,08-12,2.1770044962565103
05-30,3.847026824951172,2.086233139038086,-6.42552375793457,4.2354698181152335,2.6656417846679688,-0.7919921875,-8.905143737792969,-2.3972930908203125,-2.5087127685546875,7.903068542480469,8.367355346679688,17.950767517089844,7.0,5.0,08-13,2.16890811920166
05-31,4.000312805175781,2.086233139038086,-6.42552375793457,3.478973388671875,3.7099990844726562,-0.9582748413085938,-9.253326416015623,-2.3972930908203125,-4.3239288330078125,6.709556579589844,8.170547485351562,18.050376892089844,7.0,5.0,08-14,1.903971036275228
06-01,4.000312805175781,2.086233139038086,-4.8071022033691415,5.1362342834472665,3.6635055541992174,0.1635894775390625,-9.253326416015623,-2.628730773925781,-7.5261688232421875,4.340995788574219,5.651863098144531,18.050376892089844,8.0,4.0,08-15,1.5731485684712727
06-02,4.164155960083009,1.096088409423828,-4.491767883300781,4.927207946777344,3.4894027709960938,0.1635894775390625,-8.89715576171875,-3.53009033203125,-6.982330322265625,4.679046630859375,2.8460769653320312,13.936561584472654,8.0,4.0,08-16,0.9500654538472494
06-03,4.725011825561523,1.1895484924316406,-3.295490264892578,5.344127655029297,3.4894027709960938,0.4385833740234375,-10.159011840820312,-2.6019287109375,-4.6844635009765625,4.8520050048828125,2.8460769653320312,7.6413116455078125,8.0,4.0,08-17,0.8154311180114746
06-04,4.032724380493163,2.1713886260986333,-3.5509796142578125,5.344127655029297,4.19195556640625,-0.7252578735351562,-8.520668029785156,-3.772216796875,-3.928314208984375,4.8520050048828125,-0.97918701171875,8.365768432617188,6.0,6.0,08-18,0.6234455108642578
06-05,3.3673095703125,3.2104320526123047,-3.50811767578125,4.811546325683594,4.172569274902344,-0.0885009765625,-8.859916687011719,-3.828033447265625,-3.928314208984375,4.785041809082031,-2.1886978149414062,5.500679016113281,6.0,6.0,08-19,0.28716643651326496
06-06,3.658971786499024,3.005966186523437,-3.50811767578125,3.848209381103516,3.5230484008789062,-0.2124481201171875,-8.333847045898438,-3.828033447265625,-3.9471435546875,4.253028869628906,-1.7362518310546875,5.816780090332031,6.0,6.0,08-20,0.21168025334676108
06-07,3.85258674621582,3.005966186523437,-4.1804161071777335,3.604248046875,1.10546875,0.09543609619140624,-10.23065948486328,-3.5037384033203125,-4.450218200683594,5.55615234375,-1.829750061035156,5.7669677734375,7.0,5.0,08-21,-0.1006630261739095
06-08,3.85258674621582,2.339420318603516,-5.753040313720702,2.645679473876953,2.3586349487304688,-0.15338897705078125,-10.23065948486328,-6.282600402832031,-5.083198547363281,5.8008270263671875,-3.509552001953125,5.7669677734375,6.0,6.0,08-22,-0.6873602867126465
06-09,3.3610458374023438,1.7378082275390625,-6.753517150878906,2.654857635498047,2.4211502075195312,-0.15338897705078125,-10.755783081054688,-4.907958984375,-6.681861877441406,7.308326721191406,-3.1185073852539062,7.729705810546875,6.0,6.0,08-23,-0.5965102513631185
06-10,3.356006622314453,1.0747909545898438,-6.23846435546875,4.225975036621094,2.4211502075195312,-0.4644699096679688,-14.36663818359375,-3.358978271484375,-4.847381591796875,6.847160339355469,-3.1185073852539062,9.690505981445312,6.0,6.0,08-24,-0.3982375462849935
06-11,3.8407974243164062,0.30759620666503906,-5.180583953857422,4.225975036621094,3.475006103515625,0.07808685302734375,-17.76751708984375,-0.7789459228515625,-5.707496643066406,6.847160339355469,-5.512947082519531,19.077903747558594,7.0,5.0,08-25,0.24208625157674155
06-12,3.8073215484619136,0.267730712890625,-4.859111785888672,3.269969940185547,4.3616790771484375,0.7490386962890625,-21.96549224853516,-0.8254470825195312,-5.707496643066406,7.2297821044921875,-6.235786437988281,19.8648681640625,7.0,5.0,08-26,-0.003578662872314453
06-13,4.323368072509767,0.6557960510253906,-4.859111785888672,3.3437576293945312,3.373565673828125,1.1979217529296875,-21.98291015625,-0.8254470825195312,-7.05328369140625,6.652320861816406,-9.638267517089844,17.053451538085938,7.0,5.0,08-27,-0.6465698877970377
06-14,4.101514816284181,0.6557960510253906,-5.565441131591797,3.4794654846191406,3.1345901489257812,1.8655242919921875,-20.10443878173828,-0.2602767944335937,-6.911796569824219,6.837684631347656,-8.671966552734375,17.182945251464847,7.0,5.0,08-28,-0.35469992955525714
06-15,4.101514816284181,0.03064727783203125,-5.261629104614258,2.5414581298828125,1.0003662109375,1.3136444091796875,-20.10443878173828,0.500732421875,-6.732933044433594,5.9693603515625,-6.860504150390625,17.182945251464847,8.0,4.0,08-29,-0.5265696843465171
06-16,4.465171813964844,-0.2916965484619141,-4.781129837036133,2.047008514404297,0.10764312744140624,1.3136444091796875,-20.624977111816406,-0.7443389892578125,-6.175933837890625,5.12225341796875,-5.276756286621094,15.63654327392578,6.0,6.0,08-30,-0.7668806711832682
06-17,4.9821205139160165,0.6083812713623047,-3.7032432556152335,2.406871795654297,0.10764312744140624,1.5435714721679688,-19.321701049804688,-0.1540679931640625,-6.402992248535156,6.842079162597656,-5.276756286621094,16.364234924316403,7.0,5.0,08-31,-0.16698821385701498
06-18,5.404539108276367,-0.2746105194091797,-3.5682449340820312,2.406871795654297,-0.09693145751953124,1.0566635131835938,-19.51976776123047,-0.674041748046875,-6.45025634765625,6.842079162597656,-5.033409118652344,18.13513946533203,5.0,7.0,09-01,-0.14766407012939453
06-19,5.234668731689453,-0.1906681060791016,-3.521099090576172,1.7957000732421875,0.9702911376953124,1.31390380859375,-19.80541229248047,-1.9761199951171875,-6.45025634765625,7.674293518066406,-5.9873046875,17.115730285644528,6.0,6.0,09-02,-0.31885608037312824
06-20,5.165790557861328,0.7815837860107422,-3.521099090576172,1.8568305969238281,2.980926513671875,0.8952865600585938,-24.21028137207031,-1.9761199951171875,-6.139686584472656,6.7081451416015625,-4.444679260253906,20.75128173828125,7.0,5.0,09-03,-0.09600178400675456
06-21,5.105287551879883,0.7815837860107422,-4.499736785888672,2.9016990661621094,3.5145645141601562,0.6823883056640625,-22.212692260742188,-1.642578125,-6.045562744140625,6.550872802734375,-4.665740966796875,22.72357940673828,7.0,5.0,09-04,0.2661387125651042
06-22,5.105287551879883,1.3073711395263672,-4.503974914550781,2.80047607421875,4.948097229003906,-0.06851959228515625,-22.212692260742188,-1.4109573364257812,-5.460014343261719,5.364234924316406,-5.8255767822265625,22.72357940673828,6.0,6.0,09-05,0.2306092580159505
06-23,5.165231704711914,1.489542007446289,-4.862041473388672,3.237091064453125,5.7202911376953125,-0.06851959228515625,-22.322265625,-4.477310180664063,-5.308326721191406,5.026626586914063,-4.759971618652344,22.70375061035156,6.0,6.0,09-06,0.1286748250325521
06-24,4.581775665283203,2.630531311035156,-5.551658630371094,3.50039291381836,5.7202911376953125,0.53558349609375,-22.030044555664066,4.374542236328125,-6.527015686035156,5.718414306640625,-4.759971618652344,24.49797058105469,8.0,4.0,09-07,1.0575675964355469
06-25,4.30670166015625,3.1390953063964844,-5.625150680541992,3.50039291381836,5.208915710449219,-0.07291412353515625,-21.407623291015625,8.657020568847656,-5.808708190917969,5.718414306640625,-4.146751403808594,20.438156127929688,7.0,5.0,09-08,1.1589624087015789
06-26,4.729230880737305,2.4545555114746094,-4.8493385314941415,2.841228485107422,5.416229248046875,0.9329757690429688,-22.268142700195312,7.829277038574219,-5.808708190917969,5.029693603515625,-1.6471939086914062,20.883346557617188,8.0,4.0,09-09,1.2952628135681152
06-27,4.815032958984375,2.796728134155273,-4.8493385314941415,4.418224334716797,4.8137054443359375,0.25213623046875,-16.669570922851562,7.829277038574219,-5.498138427734375,7.063499450683594,0.3877944946289063,17.4853515625,9.0,3.0,09-10,1.9037251472473145
06-28,5.246627807617188,2.796728134155273,-5.487594604492188,4.470939636230469,7.045524597167969,-3.610809326171875,-16.944496154785153,6.096717834472656,-6.223548889160156,6.00921630859375,0.303314208984375,21.81842041015625,8.0,4.0,09-11,1.7934199968973796
06-29,5.246627807617188,3.5792026519775386,-5.8497962951660165,4.490180969238281,7.066802978515625,-3.1584396362304688,-16.944496154785153,2.9785919189453125,-5.2841339111328125,8.470039367675781,-0.8225021362304688,21.81842041015625,7.0,5.0,09-12,1.799208164215088
06-30,5.230640411376953,3.9110946655273438,-7.297670364379883,5.145175933837892,7.3837127685546875,-3.1584396362304688,-16.707046508789062,-2.6888885498046875,-3.392547607421875,9.954818725585938,-0.4216842651367188,19.71690368652344,6.0,6.0,09-13,1.4730057716369631
07-01,5.492391586303711,4.2553462982177725,-7.740104675292969,5.101295471191406,7.3837127685546875,-2.5768356323242188,-17.83777618408203,-1.2645797729492188,-3.2576065063476562,9.416778564453123,-0.4216842651367188,19.82787322998047,6.0,6.0,09-14,1.5315675735473633
07-02,6.268823623657228,4.817096710205078,-6.913993835449219,5.101295471191406,7.099128723144531,-2.799346923828125,-17.225662231445312,-1.020111083984375,-4.7982330322265625,9.416778564453123,0.103912353515625,18.486297607421875,7.0,5.0,09-15,1.5446654955546062
07-03,6.167198181152344,4.69605827331543,-6.352489471435548,5.022720336914063,6.180534362792969,-4.420524597167969,-18.831764221191406,-1.4665374755859375,-4.7982330322265625,10.067245483398438,-0.34156036376953125,20.78125762939453,6.0,6.0,09-16,1.3919920921325684
07-05,6.9658756256103525,4.817062377929688,-6.352489471435548,6.103717803955077,5.962150573730469,-3.238037109375,-17.997886657714844,-1.4665374755859375,-3.521957397460937,9.42693328857422,-2.037635803222656,19.615806579589844,6.0,6.0,09-18,1.5230835278828938
07-06,6.9658756256103525,4.817062377929688,-6.177825927734375,5.9196014404296875,5.673347473144531,-2.6454391479492188,-17.997886657714844,-1.2421722412109375,-3.0991897583007812,10.03302764892578,1.308868408203125,19.615806579589844,7.0,5.0,09-19,1.9309229850769043
07-07,7.525348663330077,4.028264999389648,-6.0208396911621085,6.4191741943359375,6.76690673828125,-2.6454391479492188,-17.961341857910156,-2.2557373046875,-3.5206680297851562,9.422019958496094,3.47918701171875,21.06307983398437,7.0,5.0,09-20,2.1916629473368325
07-08,7.199369430541992,3.4646358489990234,-5.883293151855469,6.3270111083984375,6.76690673828125,-1.9331130981445312,-16.730369567871097,-4.4947662353515625,-2.0462875366210938,11.132232666015623,3.47918701171875,23.20526123046875,7.0,5.0,09-21,2.54056453704834
07-09,7.232723236083983,3.5659885406494136,-5.181873321533203,6.3270111083984375,5.299507141113281,-1.7913284301757812,-17.474021911621097,-4.596061706542969,-1.6020660400390625,11.132232666015623,3.9074554443359375,21.116676330566406,7.0,5.0,09-22,2.3280202547709146
07-10,7.316797256469727,3.7176342010498047,-6.887815475463867,6.863964080810548,5.5977325439453125,-1.7557754516601562,-19.29969787597656,-3.47998046875,-1.6020660400390625,10.290435791015623,5.6551513671875,13.50592041015625,7.0,5.0,09-23,1.6601916948954265
07-11,6.838850021362305,3.671733856201172,-6.887815475463867,7.909919738769531,3.9495849609375,-3.4602432250976562,-22.46514892578125,-3.47998046875,-1.5926666259765625,12.130714416503904,3.6828689575195312,11.923439025878904,7.0,5.0,09-24,1.0184380213419597
07-12,6.407243728637695,3.671733856201172,-6.709104537963867,7.663631439208983,2.8063888549804688,-4.075485229492188,-24.00457000732422,-5.416358947753906,-2.2412872314453125,12.102256774902346,1.78094482421875,9.43317413330078,7.0,5.0,09-25,0.11821397145589192
07-13,6.407243728637695,3.0300273895263667,-8.217655181884767,6.151409149169923,3.15777587890625,-3.053131103515625,-24.00457000732422,-5.497337341308594,-2.9857406616210938,8.79779052734375,-0.9437713623046876,9.43317413330078,6.0,6.0,09-26,-0.6437320709228516
07-14,6.183462142944336,3.1024990081787114,-8.136547088623049,5.898448944091798,3.6800384521484375,-3.053131103515625,-24.99085235595703,-4.598152160644531,-2.9840774536132812,9.242538452148438,-0.5233840942382812,7.1135711669921875,6.0,6.0,09-27,-0.7554655075073242
07-15,5.182413101196289,3.682764053344727,-7.10401725769043,5.709735870361327,3.6800384521484375,-1.9575729370117188,-26.09243011474609,-6.2420806884765625,-3.7490158081054688,8.137626647949219,-0.5233840942382812,3.8751068115234375,6.0,6.0,09-28,-1.283401330312093
07-16,3.564678192138672,4.510326385498047,-5.803993225097656,5.709735870361327,4.6360931396484375,-3.4771728515625,-21.169395446777344,-5.981575012207031,-4.240509033203125,8.137626647949219,-0.6596450805664062,5.52691650390625,6.0,6.0,09-29,-0.7705761591593424
07-17,3.896512985229492,4.788871765136719,-7.098459243774414,4.8366546630859375,4.634986877441406,-3.86785888671875,-24.66065216064453,-4.93988037109375,-4.240509033203125,5.229682922363281,0.5473098754882812,10.361656188964844,7.0,5.0,09-30,-0.8759737014770508
07-18,3.5327816009521484,4.688730239868164,-7.098459243774414,5.086952209472656,2.622749328613281,-4.245033264160156,-22.473556518554688,-4.93988037109375,-4.231109619140625,2.602783203125,1.6928024291992188,11.425430297851562,7.0,5.0,10-01,-0.9446508089701334
07-19,3.3189907073974614,4.688730239868164,-7.323957443237305,1.5238761901855469,3.795242309570313,-5.114761352539063,-20.87914276123047,-4.087493896484375,-4.0300140380859375,3.0816421508789062,1.479888916015625,13.168624877929688,7.0,5.0,10-02,-0.8648645083109537
07-20,3.3189907073974614,3.657857894897461,-7.0064239501953125,1.010406494140625,3.4301834106445312,-7.634422302246094,-20.87914276123047,-7.020606994628906,2.265327453613281,5.006965637207031,0.4216766357421875,13.168624877929688,8.0,4.0,10-03,-0.8550469080607096
07-21,3.3269824981689453,3.5498924255371094,-7.998880386352539,1.959930419921875,3.3543014526367188,-7.634422302246094,-18.46820831298828,-4.477386474609375,4.806434631347656,6.013282775878906,-1.9832763671875,12.40533447265625,7.0,5.0,10-04,-0.428834597269694
07-22,2.5335521697998047,3.1740856170654297,-8.405071258544924,2.828876495361328,3.3543014526367188,-8.247581481933594,-16.122795104980472,-3.5320663452148438,6.664451599121094,4.591339111328125,-1.9832763671875,10.599754333496094,7.0,5.0,10-05,-0.3787024815877279
07-23,1.7251815795898438,2.1362972259521484,-7.386114120483397,2.828876495361328,3.6211318969726562,-8.337738037109375,-11.55792236328125,-3.842788696289064,6.919639587402344,4.591339111328125,-3.939727783203125,12.926544189453125,7.0,5.0,10-06,-0.026273409525553387
07-24,2.2055339813232417,2.642984390258789,-6.490285873413086,3.7848968505859375,4.465736389160156,-7.899391174316406,-7.615882873535156,-4.2799072265625,6.919639587402344,3.0225753784179688,-2.9168853759765625,15.833877563476562,7.0,5.0,10-07,0.8060743014017739
07-25,2.303277969360352,2.960124969482422,-6.490285873413086,4.431919097900392,5.70050048828125,-7.643272399902344,-7.9208984375,-4.2799072265625,5.3009185791015625,-0.32654571533203125,-0.9810256958007812,14.79633331298828,6.0,6.0,10-08,0.654261589050293
07-26,2.238731384277344,2.960124969482422,-5.656316757202148,4.512641906738281,5.086235046386719,-9.747062683105467,-7.087043762207031,-4.437408447265625,6.367500305175781,-2.0693435668945312,-1.6760177612304688,19.16924285888672,6.0,6.0,10-09,0.8051069577534994
07-27,2.238731384277344,2.7117156982421875,-4.572593688964844,3.460071563720703,1.00445556640625,-8.340225219726562,-7.087043762207031,-3.2493133544921875,7.168434143066406,0.59649658203125,-5.437759399414063,19.16924285888672,7.0,5.0,10-10,0.638517697652181
07-28,2.342630386352539,2.607528686523437,-4.479686737060547,2.3291168212890625,0.8571701049804688,-8.340225219726562,-11.224037170410156,-10.552490234375,6.676483154296875,-10.2783203125,-3.2576522827148438,20.80486297607422,6.0,6.0,10-11,-1.0428849856058755
07-29,3.15494155883789,2.8912124633789062,-3.062023162841797,2.175521850585937,0.8571701049804688,-6.68115234375,-11.393051147460938,-9.727455139160156,7.164794921875,-9.27910614013672,-3.2576522827148438,25.01727294921875,6.0,6.0,10-12,-0.17829386393229166
07-30,2.3576622009277344,2.5344715118408203,-3.032989501953125,2.175521850585937,0.9105224609375,-8.011940002441406,-11.164093017578123,-11.132003784179688,7.193168640136719,-9.27910614013672,-3.7735366821289062,28.09454345703125,6.0,6.0,10-13,-0.260648250579834
07-31,2.2671051025390625,2.059988021850586,-2.36859130859375,2.843425750732422,2.1860580444335938,-6.397209167480469,-9.780868530273438,-11.466812133789062,7.193168640136719,-10.159156799316406,-1.189544677734375,28.80908966064453,6.0,6.0,10-14,0.3330543835957845
08-01,1.7535743713378906,2.3687725067138667,-2.36859130859375,3.4984703063964844,2.0560760498046875,-9.559188842773438,-9.461746215820312,-11.466812133789062,7.324928283691406,-12.363288879394533,3.916091918945313,26.60639190673828,7.0,5.0,10-15,0.19205649693806967
08-02,2.112567901611328,2.3687725067138667,-1.4410057067871094,3.1420211791992188,1.957183837890625,-10.11669921875,-9.33344268798828,-10.558860778808594,7.22540283203125,-13.21051025390625,3.4599761962890625,27.622413635253906,7.0,5.0,10-16,0.26898495356241864
08-03,2.112567901611328,2.8241863250732417,-1.8710479736328125,3.299243927001953,1.8760757446289065,-8.795814514160156,-9.33344268798828,-10.984405517578123,8.769241333007812,-13.751251220703125,7.5620574951171875,27.622413635253906,7.0,5.0,10-17,0.7774853706359863
08-04,2.0246448516845703,2.505695343017578,1.113811492919922,3.7309608459472656,2.206382751464844,-8.795814514160156,-8.118820190429688,-10.324867248535156,8.137359619140625,-11.198234558105467,8.295265197753906,27.21598052978516,8.0,4.0,10-18,1.3993636767069502
08-05,2.21853256225586,2.9501266479492188,0.2271728515625,4.235645294189453,2.206382751464844,-7.709312438964844,-6.386810302734375,-10.574821472167967,7.8165283203125,-11.255889892578123,8.295265197753906,25.5213623046875,8.0,4.0,10-19,1.462015151977539
08-06,2.0733184814453125,3.0586185455322266,3.3347530364990234,4.235645294189453,2.4153594970703125,-7.414207458496094,-4.09600830078125,-10.853858947753906,7.74090576171875,-11.255889892578123,8.275794982910156,26.157814025878906,8.0,4.0,10-20,1.972687085469564
08-07,2.327444076538086,2.503641128540039,2.524633407592773,3.528453826904297,6.24456787109375,-4.555290222167969,-2.510726928710937,-11.08637237548828,7.74090576171875,-10.911537170410156,8.674903869628906,20.529800415039066,8.0,4.0,10-21,2.0842019716898603
08-08,2.4686241149902344,3.2088489532470703,2.524633407592773,3.5021286010742188,6.222251892089844,-4.089363098144531,-4.792404174804688,-11.08637237548828,8.960159301757812,-9.396484375,7.908988952636719,18.816490173339844,8.0,4.0,10-22,2.0206251144409184
08-09,1.8474292755126955,3.2088489532470703,0.6558074951171875,2.79117202758789,6.659698486328125,-1.420440673828125,-5.470512390136719,-10.984046936035156,10.340118408203123,-7.513336181640625,9.140785217285156,18.21881866455078,8.0,4.0,10-23,2.289528528849284
08-10,1.8474292755126955,3.3882617950439453,3.2661609649658203,3.019367218017578,8.382659912109375,-2.474433898925781,-5.470512390136719,-11.188682556152344,15.529075622558596,-5.572555541992188,12.435379028320312,18.21881866455078,8.0,4.0,10-24,3.4484140078226724
08-11,1.8232345581054688,4.0141639709472665,3.759105682373047,2.369861602783203,7.637237548828125,-2.474433898925781,-3.454559326171875,-11.495590209960938,15.273895263671875,-5.236274719238281,11.653297424316404,13.088859558105467,8.0,4.0,10-25,3.079899787902832
08-12,2.0773487091064453,3.997486114501953,4.003429412841797,3.085205078125,7.637237548828125,-2.6327438354492188,-0.37569427490234375,-9.998207092285156,14.064079284667967,-7.974510192871094,11.653297424316404,12.660530090332033,8.0,4.0,10-26,3.18312152226766
08-13,1.387590408325195,4.5983543395996085,2.5331993103027344,3.085205078125,7.0034027099609375,-3.216293334960937,0.43070220947265625,-12.314041137695312,14.328727722167967,-7.974510192871094,11.125389099121094,15.39984130859375,9.0,3.0,10-27,3.0322972933451333
08-14,1.4642295837402344,4.502391815185547,3.5319175720214844,3.813720703125,7.628318786621094,-2.5875167846679688,-0.7055816650390625,-11.104965209960938,14.328727722167967,-8.714302062988281,13.061080932617188,12.30194091796875,8.0,4.0,10-28,3.1266635258992515
08-15,2.432315826416016,4.2812347412109375,3.5319175720214844,3.396800994873047,10.333229064941406,-4.37432861328125,-1.218719482421875,-11.104965209960938,13.969566345214846,-3.1897964477539062,14.09735107421875,8.437034606933594,8.0,4.0,10-29,3.3826367060343423
08-16,1.726419448852539,4.2812347412109375,4.140571594238281,3.12908935546875,9.953842163085938,-3.7908248901367188,0.064117431640625,-10.35161590576172,14.111335754394533,-4.8711700439453125,12.699356079101562,6.2655181884765625,9.0,3.0,10-30,3.1131561597188315
08-17,1.726419448852539,3.767980575561523,5.842243194580077,2.532245635986328,12.810523986816404,-5.301704406738281,0.064117431640625,-9.523834228515623,14.413772583007812,-5.313140869140625,13.129508972167967,6.2655181884765625,9.0,3.0,10-31,3.3678042093912763
08-18,1.7344818115234375,3.9015064239501953,8.126838684082031,3.05447769165039,11.092041015625,-5.301704406738281,-0.2199249267578125,-10.137687683105467,13.307937622070312,-5.2939300537109375,14.0386962890625,6.494621276855469,8.0,4.0,11-01,3.3997794787089037
08-19,2.0087718963623047,4.635923385620117,7.513908386230469,3.475799560546875,11.092041015625,-5.69073486328125,1.6310882568359375,-10.788726806640623,13.090553283691404,-4.458061218261719,14.0386962890625,9.423194885253906,9.0,3.0,11-02,3.831037839253744
08-20,1.323049545288086,4.702680587768555,6.712352752685548,3.475799560546875,10.1279296875,-5.306205749511719,4.022720336914063,-11.597923278808596,12.788116455078125,-4.458061218261719,15.32916259765625,11.435325622558596,9.0,3.0,11-03,4.046245574951172
08-21,1.1859092712402344,5.270160675048828,7.612464904785156,4.21746826171875,10.476066589355467,-0.6287841796875,6.22186279296875,-11.932723999023438,12.788116455078125,-5.755119323730469,14.09735870361328,16.884033203125,9.0,3.0,11-04,5.036401112874349
08-22,1.5449085235595703,5.374492645263672,7.612464904785156,4.717781066894531,10.087730407714844,-1.8908767700195312,10.931854248046877,-11.932723999023438,10.755996704101562,-3.7086410522460938,14.99676513671875,15.718582153320312,9.0,3.0,11-05,5.350694497426352
08-23,1.4158248901367188,5.374492645263672,6.6694793701171875,4.796760559082031,9.471771240234377,-3.5103530883789062,10.62946319580078,-13.076690673828125,11.842941284179688,-2.747840881347656,21.06781768798828,11.684341430664062,9.0,3.0,11-06,5.301500638326009
08-24,1.4158248901367188,5.708311080932617,7.188152313232423,5.542823791503906,10.288581848144533,-0.44332122802734375,10.62946319580078,-13.61614227294922,12.117034912109375,-4.0064849853515625,21.23401641845703,11.684341430664062,9.0,3.0,11-07,5.645216782887776
08-25,1.3593502044677734,5.837667465209961,7.471044540405272,6.0606651306152335,10.328887939453123,-0.44332122802734375,11.738204956054688,-12.965095520019533,11.927993774414062,-3.6221542358398438,22.09432983398437,12.939445495605467,9.0,3.0,11-08,6.0605848630269366
08-26,2.1983585357666016,5.987882614135742,7.098134994506836,5.1963768005371085,10.328887939453123,-0.54736328125,9.26410675048828,-10.602699279785156,11.521568298339846,-1.5372695922851562,22.09432983398437,18.238739013671875,9.0,3.0,11-09,6.603421052296955
08-27,1.6745338439941406,5.232519149780273,6.200908660888673,5.1963768005371085,11.44927215576172,0.6898269653320312,7.486900329589844,-11.585441589355467,11.313644409179688,-1.5372695922851562,21.859703063964844,17.900062561035156,10.0,2.0,11-10,6.323419729868572
08-28,2.214670181274414,5.559759140014648,4.492580413818359,5.411426544189453,10.926788330078123,0.9669647216796876,5.4760589599609375,-11.071739196777344,11.313644409179688,-0.32666778564453125,20.33460235595703,20.22523498535156,10.0,2.0,11-11,6.293610254923504
08-29,2.4731922149658203,5.458913803100586,4.492580413818359,3.7154006958007812,11.599197387695312,0.4910659790039063,5.666526794433594,-11.071739196777344,11.587745666503904,-2.4132003784179688,18.85684967041016,22.8885498046875,10.0,2.0,11-12,6.145423571268719
08-30,2.558685302734375,5.458913803100586,4.0682373046875,4.149375915527344,11.854507446289062,0.33576202392578125,6.117088317871094,-10.77411651611328,11.122650146484377,-2.378814697265625,18.49620056152344,22.718536376953125,10.0,2.0,11-13,6.143918832143147
08-31,2.558685302734375,5.312873840332031,4.3662109375,3.5176162719726562,11.564903259277346,-0.2814559936523437,6.117088317871094,-7.99627685546875,10.204116821289062,-4.492691040039063,19.878692626953125,22.718536376953125,9.0,3.0,11-14,6.122358322143555
09-01,3.0911312103271484,4.3784446716308585,5.850208282470702,4.320682525634767,12.509864807128904,-0.2814559936523437,9.727439880371094,-9.11669921875,9.835075378417967,-4.910430908203125,19.947410583496094,19.132553100585934,9.0,3.0,11-15,6.207018693288168
09-02,2.7649059295654297,3.502490997314453,6.122264862060548,3.8179702758789062,12.509864807128904,-0.2814559936523437,5.522972106933594,-9.841049194335938,10.73223114013672,-3.9068222045898438,19.947410583496094,14.380256652832033,9.0,3.0,11-16,5.439253330230713
09-03,2.7452259063720703,3.0937900543212886,6.306745529174805,3.8179702758789062,12.509864807128904,1.0730438232421875,6.6002655029296875,-10.21234130859375,9.82134246826172,-3.9068222045898438,19.947410583496094,20.507850646972656,10.0,2.0,11-17,6.025362173716228
09-04,2.866174697875977,3.265331268310547,5.262762069702148,3.8179702758789062,12.1676025390625,0.428741455078125,8.244087219238281,-10.090911865234377,9.82134246826172,-3.9068222045898438,18.32235717773437,22.13715362548828,10.0,2.0,11-18,6.027982393900555
09-05,2.59527587890625,3.4754314422607417,5.262762069702148,3.087238311767578,11.135482788085938,0.9239273071289062,5.191917419433594,-10.090911865234377,9.82134246826172,-2.9291305541992188,16.297706604003903,22.75084686279297,10.0,2.0,11-19,5.626824061075848
09-06,2.289966583251953,3.4754314422607417,5.262762069702148,1.394001007080078,11.612709045410154,2.380699157714844,7.5091552734375,-10.090911865234377,9.691322326660156,-4.1873626708984375,13.343032836914062,22.75084686279297,10.0,2.0,11-20,5.452637672424316
09-07,2.289966583251953,3.4754314422607417,3.529239654541016,3.286083221435547,10.595176696777344,3.3610076904296875,7.5091552734375,-9.029685974121094,9.700096130371094,-3.2051239013671875,12.50177764892578,22.75084686279297,10.0,2.0,11-21,5.5636642773946114
09-08,2.289966583251953,3.750909805297852,3.98604965209961,2.1231002807617188,9.448684692382812,3.3610076904296875,7.5091552734375,-9.025993347167967,11.093345642089844,-3.762374877929688,10.254196166992188,22.75084686279297,10.0,2.0,11-22,5.314907868703206
09-09,1.4390811920166016,3.5918540954589844,3.968290328979492,2.7845611572265625,9.448684692382812,4.473838806152344,6.993293762207031,-3.9624862670898438,8.910018920898438,-5.518699645996094,10.254196166992188,18.41777801513672,10.0,2.0,11-23,5.0667009353637695
09-10,1.13165283203125,2.970035552978516,3.959705352783203,2.7845611572265625,8.524726867675781,4.929168701171875,7.6478729248046875,-5.7295989990234375,9.34649658203125,-5.518699645996094,9.511192321777344,18.019332885742188,10.0,2.0,11-24,4.798037211100262
09-11,1.5276737213134766,2.607002258300781,3.7181320190429688,2.749454498291016,8.709403991699219,6.620460510253906,8.356178283691406,-5.327972412109375,9.34649658203125,-5.999092102050781,8.305557250976562,16.664627075195312,10.0,2.0,11-25,4.7731601397196455
09-12,1.281625747680664,2.006153106689453,3.7181320190429688,2.881519317626953,9.607254028320312,7.507438659667969,10.701988220214844,-5.327972412109375,8.599807739257812,-4.5635833740234375,7.522407531738281,13.566726684570312,10.0,2.0,11-26,4.7917914390563965
09-13,1.004812240600586,2.006153106689453,3.045185089111328,2.36270523071289,9.982833862304688,7.4938507080078125,10.720382690429688,-3.8398818969726562,10.074005126953123,-4.984298706054688,8.714508056640625,13.566726684570312,10.0,2.0,11-27,5.012248516082764
09-14,1.004812240600586,2.131336212158203,1.7503089904785156,2.089862823486328,8.7508544921875,7.41668701171875,10.720382690429688,-2.4874496459960938,9.519416809082033,-4.186653137207031,12.644569396972654,13.566726684570312,10.0,2.0,11-28,5.243404547373454
09-15,0.3997535705566406,2.7960567474365234,1.0898704528808594,1.9656448364257808,9.171829223632812,7.41668701171875,10.61041259765625,-2.5039215087890625,9.45232391357422,-6.460609436035156,14.529022216796875,13.855606079101562,10.0,2.0,11-29,5.193556308746338
09-16,0.539947509765625,2.4784564971923837,1.9042816162109373,1.7495803833007812,9.171829223632812,7.050270080566406,10.778472900390623,-2.274497985839844,10.393524169921877,-4.684989929199219,14.529022216796875,14.732177734375,10.0,2.0,11-30,5.530672868092855
09-17,0.2405109405517578,2.624988555908203,2.553138732910156,1.7495803833007812,9.100418090820312,7.161125183105469,11.107551574707033,-2.476531982421875,10.080406188964844,-4.684989929199219,12.72040557861328,14.522994995117188,10.0,2.0,12-01,5.391633192698162
09-18,0.1319713592529297,2.437686920166016,4.541881561279297,2.21038818359375,7.742622375488281,7.408210754394531,11.839096069335938,-4.409950256347656,10.080406188964844,-4.954002380371094,10.039710998535156,17.989456176757812,10.0,2.0,12-02,5.4214564959208165
09-19,0.3112354278564453,3.236034393310547,4.541881561279297,2.628875732421875,7.447319030761719,8.043037414550781,12.538810729980467,-4.409950256347656,8.624855041503906,-5.863243103027344,8.464378356933594,23.65730285644531,10.0,2.0,12-03,5.768378098805744
09-20,0.5717754364013672,3.236034393310547,4.627620697021484,2.851734161376953,8.031417846679688,9.12311553955078,11.233039855957033,-4.5773468017578125,8.028816223144531,-5.8692169189453125,9.528678894042967,23.65730285644531,10.0,2.0,12-04,5.870247681935627
09-21,0.5717754364013672,3.4321517944335938,5.8158817291259775,1.7256240844726562,8.412338256835938,10.99749755859375,11.233039855957033,-6.337921142578125,6.985755920410156,-5.926856994628906,9.888313293457033,23.65730285644531,10.0,2.0,12-05,5.8712418874104815
09-22,0.3983249664306641,3.616689682006837,6.5656394958496085,1.7901039123535156,8.990036010742188,10.99749755859375,12.909912109375,-7.586814880371094,8.749740600585938,-1.5789108276367188,11.007217407226562,22.920188903808594,10.0,2.0,12-06,6.564968744913738
09-23,0.43912696838378906,4.135873794555663,7.243690490722656,1.4152679443359375,8.990036010742188,11.630783081054688,13.493019104003904,-6.390754699707031,7.603118896484375,-5.274909973144531,11.007217407226562,25.41045379638672,10.0,2.0,12-07,6.641910235087078
09-24,0.9745121002197266,3.165338516235352,5.808542251586914,1.4152679443359375,8.967720031738281,10.812660217285156,16.696357727050778,-5.124977111816406,7.0717620849609375,-5.274909973144531,13.079788208007812,24.78291320800781,10.0,2.0,12-08,6.864581267038982
09-25,1.305084228515625,3.4338397979736333,5.476362228393555,2.19644546508789,7.921485900878906,11.838226318359375,15.593666076660154,-3.2942733764648438,7.0717620849609375,-4.1700286865234375,14.65180206298828,23.48796844482422,10.0,2.0,12-09,7.126028378804524
09-26,0.25079917907714844,3.1775302886962886,5.476362228393555,4.038825988769531,9.738319396972656,11.363273620605467,17.043411254882812,-3.2942733764648438,7.686119079589844,-3.97222900390625,16.035667419433597,22.00376892089844,10.0,2.0,12-10,7.4622979164123535
09-27,0.4950466156005859,3.1775302886962886,4.584808349609375,2.95095443725586,9.848220825195312,12.199867248535154,15.939964294433596,-3.58258056640625,8.101707458496094,-5.0975494384765625,14.94243621826172,22.00376892089844,10.0,2.0,12-11,7.130347887674969
09-28,0.4950466156005859,3.0273170471191406,4.999231338500977,4.2112998962402335,9.335861206054688,10.003250122070312,15.939964294433596,-3.475433349609375,7.1085968017578125,-5.010093688964844,14.158363342285154,22.00376892089844,10.0,2.0,12-12,6.899764378865559
09-29,0.5031089782714844,3.2157001495361333,5.2000160217285165,4.428878784179688,7.09661865234375,10.003250122070312,14.620460510253904,-2.1737518310546875,7.0604400634765625,-6.0111083984375,14.001335144042967,23.40827941894531,10.0,2.0,12-13,6.779435634613037
09-30,0.5540657043457031,3.6145858764648438,5.311792373657227,4.212795257568359,7.09661865234375,11.233665466308594,12.409942626953125,-3.9899673461914062,5.047996520996094,-5.605796813964844,14.001335144042967,21.665084838867188,10.0,2.0,12-14,6.296009858449299
10-01,1.003866195678711,3.3086929321289062,5.660091400146484,4.212795257568359,7.20819091796875,14.54755401611328,8.197128295898438,-5.558815002441406,5.389572143554688,-5.605796813964844,15.604644775390625,21.96392059326172,10.0,2.0,12-15,6.3276537259419765
10-02,1.6052379608154297,4.028921127319337,5.1596641540527335,4.6165504455566415,7.987190246582031,13.285881042480467,4.959266662597656,-6.3807373046875,5.389572143554688,-6.0477447509765625,19.43272399902344,20.479721069335934,10.0,2.0,12-16,6.209687232971191
10-03,0.7306880950927734,4.352464675903319,5.1596641540527335,4.038665771484375,7.601814270019531,12.202171325683596,3.9447555541992174,-6.3807373046875,4.453857421875,-7.096229553222656,18.51087951660156,17.84003448486328,10.0,2.0,12-17,5.4465023676554365
10-04,0.922016143798828,4.352464675903319,4.306665420532228,5.940120697021484,5.404930114746094,11.806503295898438,5.48040771484375,-5.087936401367188,1.892982482910156,-7.5702362060546875,16.771629333496097,17.84003448486328,10.0,2.0,12-18,5.171631813049316
10-05,0.922016143798828,3.618072509765625,3.3763332366943364,5.655426025390625,7.281471252441406,14.348007202148438,5.48040771484375,-4.716217041015625,2.3702163696289062,-10.052200317382812,17.514076232910153,17.84003448486328,10.0,2.0,12-19,5.303136984507243
10-06,0.7243633270263672,3.0320186614990234,3.2926788330078125,6.752986907958984,8.006988525390625,14.348007202148438,6.570838928222656,-5.45166015625,3.120758056640625,-11.965972900390625,16.090904235839847,19.20469665527344,10.0,2.0,12-20,5.3105506896972665
10-07,0.394033432006836,3.35074234008789,2.640625,6.197364807128906,8.006988525390625,16.541954040527347,3.916275024414064,2.6968536376953125,3.8964309692382812,-12.226524353027346,16.090904235839847,14.831787109375,11.0,1.0,12-21,5.5281195640563965
10-08,-0.3662700653076172,3.2223949432373047,2.0836944580078125,6.197364807128906,10.283432006835938,17.290870666503903,0.78533935546875,2.04351806640625,3.7541122436523438,-12.226524353027346,19.375717163085934,8.805328369140625,10.0,2.0,12-22,5.1040814717610665
10-09,-0.3968601226806641,3.3604564666748047,2.679027557373047,7.079479217529298,10.462074279785156,19.278045654296875,1.4664535522460938,2.25836181640625,3.7541122436523438,-1.638671875,17.95136260986328,7.918792724609375,10.0,2.0,12-23,6.181052843729656
10-10,-0.2815380096435547,3.3604564666748047,2.679027557373047,8.635379791259767,10.048934936523438,21.17144012451172,1.6179580688476562,2.25836181640625,3.9998626708984375,-2.0202789306640625,16.944595336914062,7.74945068359375,10.0,2.0,12-24,6.3469708760579415
10-11,-0.2815380096435547,3.3604564666748047,2.77762222290039,8.591495513916017,9.147300720214844,24.31989288330078,1.6179580688476562,3.6999588012695312,3.9714889526367188,1.073455810546875,13.513137817382812,7.74945068359375,11.0,1.0,12-25,6.6283899943033875
10-12,-0.2815380096435547,3.151824951171875,2.113224029541016,8.632991790771483,8.92242431640625,24.98703765869141,1.6179580688476562,4.034767150878906,3.0547561645507812,1.5891189575195312,15.959274291992188,7.74945068359375,11.0,1.0,12-26,6.7942741711934405
10-13,-0.4953289031982422,2.910263061523437,2.2380828857421875,8.66790771484375,9.853958129882812,24.98703765869141,1.76458740234375,3.0547637939453125,2.9697418212890625,-0.12413787841796875,16.479461669921875,10.219802856445312,10.0,2.0,12-27,6.8771783510843925
10-14,-0.6792774200439453,2.9399337768554688,1.8597908020019531,8.447422027587889,9.853958129882812,24.53920745849609,2.9971694946289062,2.31878662109375,3.367034912109375,3.417465209960937,16.479461669921875,9.203781127929688,11.0,1.0,12-28,7.0620611508687325
10-15,-0.7912216186523438,2.848773956298828,2.855457305908203,8.447422027587889,10.144081115722656,23.24104309082031,1.357421875,3.3464584350585938,3.5662841796875,3.417465209960937,15.501838684082033,7.0621337890625,11.0,1.0,12-29,6.749763170878094
10-16,-0.3870315551757813,3.151611328125,2.3507232666015625,7.710121154785156,10.037689208984377,22.85267639160156,-0.4493179321289063,2.2443084716796875,3.5662841796875,1.467071533203125,14.591964721679688,6.643768310546875,10.0,2.0,12-30,6.1483224232991525
10-17,-0.8323383331298828,3.302875518798828,2.3507232666015625,6.49102783203125,6.2208709716796875,20.79571533203125,-0.227203369140625,2.2443084716796875,3.7647705078125,3.5994949340820312,12.31389617919922,9.47271728515625,10.0,2.0,12-31,5.791404883066813
10-18,-0.8323383331298828,3.302875518798828,1.1119651794433594,6.438362121582031,5.640602111816406,19.0179443359375,-0.227203369140625,2.104804992675781,3.84039306640625,2.76361083984375,9.39080047607422,9.47271728515625,10.0,2.0,01-01,5.168711185455322
10-19,-0.8323383331298828,3.766063690185547,1.9220848083496087,6.8500213623046875,5.5746917724609375,18.654869079589844,-0.227203369140625,2.337318420410156,3.1340103149414062,0.274383544921875,8.568092346191406,9.47271728515625,10.0,2.0,01-02,4.9578925768534345
10-20,-0.5257835388183594,2.9095916748046875,1.651092529296875,8.031780242919924,6.107627868652344,18.654869079589844,-0.4104766845703125,2.8420791625976562,-0.458892822265625,0.9799880981445312,9.127555847167967,9.163925170898438,9.0,3.0,01-03,4.839446385701497
10-21,0.05469894409179688,3.331684112548828,0.14949417114257812,9.442893981933594,6.107627868652344,16.456375122070312,-0.4771881103515625,2.588783264160156,1.4830093383789062,0.4588699340820313,9.127555847167967,9.7615966796875,11.0,1.0,01-04,4.873783429463704
10-22,-0.6457996368408203,3.692342758178712,0.5440559387207031,9.442893981933594,4.5409088134765625,17.278892517089847,-4.0814208984375,2.2466049194335938,1.663299560546875,0.4588699340820313,8.550758361816406,10.090316772460938,10.0,2.0,01-05,4.481810251871745
10-23,0.7333011627197266,2.78738021850586,0.6216926574707031,10.390830993652344,4.9638671875,15.946365356445312,-5.211280822753906,4.133338928222656,1.663299560546875,1.448486328125,7.47784423828125,9.52252197265625,11.0,1.0,01-06,4.539803981781006
10-24,1.2053966522216797,2.984844207763672,0.6216926574707031,9.322704315185547,4.723548889160156,12.829864501953125,-4.834465026855469,4.133338928222656,1.1434707641601562,0.59686279296875,6.473304748535156,12.451080322265625,11.0,1.0,01-07,4.304303646087647
10-25,1.5921154022216797,2.984844207763672,1.423248291015625,10.585857391357422,2.7790603637695312,14.050422668457033,-6.526397705078125,6.012062072753906,0.1956634521484375,-3.2284622192382812,5.434700012207031,12.451080322265625,10.0,2.0,01-08,3.979516188303629
10-26,1.5921154022216797,2.9973526000976562,0.0966796875,10.008407592773438,3.5791854858398438,14.499710083007812,-6.526397705078125,3.2618331909179688,0.6735687255859375,-2.06451416015625,4.766021728515625,12.451080322265625,10.0,2.0,01-09,3.777920246124268
10-27,1.2734508514404297,3.092472076416016,-1.5529518127441406,10.45583724975586,4.112098693847656,14.499710083007812,-5.610084533691406,2.461860656738281,1.1832351684570312,-1.321197509765625,5.0899200439453125,16.375755310058597,9.0,3.0,01-10,4.171675523122151
10-28,2.0933380126953125,2.625585556030273,-1.927040100097656,10.971752166748047,4.112098693847656,13.237640380859375,-8.0147705078125,3.6181564331054688,2.381744384765625,-0.9062423706054688,5.0899200439453125,18.547271728515625,9.0,3.0,01-11,4.319121201833089
10-29,1.576581954956055,2.693096160888672,0.1225433349609375,10.971752166748047,2.0499267578125,17.453468322753903,-8.667800903320312,3.4136734008789062,0.8541107177734375,-0.9062423706054688,3.7798995971679688,15.66851043701172,10.0,2.0,01-12,4.084126631418863
10-30,2.346761703491211,2.47452163696289,0.3209724426269531,10.971752166748047,4.063995361328125,15.997055053710938,-8.686294555664062,3.637847900390625,0.8541107177734375,-2.18408203125,3.1160812377929688,14.054824829101562,10.0,2.0,01-13,3.9139622052510585
10-31,1.573160171508789,2.8862991333007812,0.3209724426269531,11.13491439819336,3.8548812866210938,10.540496826171877,-7.8319091796875,3.637847900390625,0.77850341796875,-1.910194396972656,3.3973846435546875,8.616073608398438,10.0,2.0,01-14,3.0832025210062657
11-01,1.83369255065918,2.8862991333007812,1.0967941284179688,9.208988189697266,2.5160675048828125,12.378189086914062,-9.7353515625,4.0006103515625,1.0809402465820312,-4.25787353515625,4.193618774414063,8.616073608398438,10.0,2.0,01-15,2.8181707064310717
11-02,1.83369255065918,2.481552124023437,0.19668197631835932,9.562213897705078,3.60089111328125,12.369094848632812,-9.7353515625,4.335411071777344,1.7650070190429688,-4.324676513671875,2.299766540527344,8.616073608398438,10.0,2.0,01-16,2.7500297228495283
11-03,1.6360416412353516,2.3772201538085938,-0.03950119018554688,8.353469848632812,3.5158157348632812,12.369094848632812,-9.90947723388672,5.145530700683594,1.9845962524414065,-4.80914306640625,3.0947723388671875,6.9426116943359375,9.0,3.0,01-17,2.5550859769185386
11-04,1.7651252746582031,1.6623115539550781,-0.1822662353515625,7.908088684082031,3.5158157348632812,13.228599548339846,-9.607086181640623,3.645965576171875,0.7124404907226562,-3.3230133056640625,3.0947723388671875,10.976852416992188,9.0,3.0,01-18,2.7831338246663413
11-05,1.685323715209961,1.6891021728515625,-0.1251068115234375,7.908088684082031,3.5783157348632812,10.16156768798828,-8.533309936523438,1.8867111206054688,-1.3180694580078125,-3.3230133056640625,2.3126678466796875,5.548065185546875,8.0,4.0,01-19,1.7891952196757002
11-06,1.3230266571044922,1.72271728515625,0.6772880554199219,7.289299011230469,3.5380096435546875,9.126800537109377,-10.206878662109377,2.5592041015625,-1.3180694580078125,-4.1973419189453125,1.4523544311523438,5.0500030517578125,9.0,3.0,01-20,1.4180343945821126
11-07,1.3678035736083984,1.5546455383300781,0.6772880554199219,8.153587341308594,3.5962371826171875,10.656272888183594,-9.314903259277344,2.5592041015625,-1.3180694580078125,-6.2822265625,-1.8746185302734373,1.4000091552734375,8.0,4.0,01-21,0.9312691688537598
11-08,0.9200096130371094,1.5546455383300781,0.2243194580078125,10.746559143066406,3.54248046875,9.934646606445312,-7.5494232177734375,1.821327209472656,2.5998306274414062,-1.2641525268554688,-0.422027587890625,1.4000091552734375,9.0,3.0,01-22,1.9590187072753904
11-09,0.9200096130371094,1.9033851623535158,1.00946044921875,11.178703308105467,3.5111312866210938,9.875633239746094,-7.5494232177734375,2.0641860961914062,3.140655517578125,-2.200233459472656,-3.2487030029296875,1.4000091552734375,9.0,3.0,01-23,1.8337345123291016
11-10,0.8793048858642578,1.40338134765625,1.164764404296875,11.156639099121094,2.2392501831054688,9.875633239746094,-6.988502502441406,1.989463806152344,2.0020751953125,-1.0132598876953125,-2.9836883544921875,0.4499969482421875,9.0,3.0,01-24,1.6812548637390137
11-11,-0.8467311859130859,1.6974945068359375,0.09490585327148438,11.438873291015625,2.2392501831054688,10.334030151367188,-8.910308837890625,4.175048828125,2.5618820190429688,-3.2328033447265625,-2.9836883544921875,0.6200103759765625,8.0,4.0,01-25,1.4323302904764812
11-12,-0.12619972229003906,2.7437286376953125,0.52197265625,11.438873291015625,2.0825119018554688,12.458045959472654,-5.563201904296875,5.370635986328125,4.165428161621094,-3.2328033447265625,-4.0142364501953125,3.400009155273437,8.0,4.0,01-26,2.437063694000244
11-13,0.2931041717529297,2.823558807373047,0.9188613891601562,11.447696685791016,1.0166244506835938,10.247810363769533,-8.937911987304688,4.698127746582031,4.165428161621094,-2.1809310913085938,-3.984817504882813,0.4499969482421875,9.0,3.0,01-27,1.746462345123291
11-14,-0.5943393707275391,3.3319778442382812,0.9188613891601562,12.20174789428711,-1.7824554443359375,10.855941772460938,-8.616073608398438,4.698127746582031,4.355201721191406,-3.020477294921875,-3.867034912109375,-1.0,6.0,6.0,01-28,1.4567898114522295
11-15,-0.7815990447998047,3.3319778442382812,0.8929862976074219,12.7706298828125,-0.7658233642578125,9.362815856933594,-8.413772583007812,4.529998779296875,6.471107482910156,-3.454742431640625,-6.41888427734375,-1.0,6.0,6.0,01-29,1.3770578702290852
11-16,-0.7815990447998047,3.869815826416016,1.6824455261230469,10.750957489013672,-0.9942398071289062,7.4475860595703125,-8.413772583007812,5.127777099609375,7.078361511230469,-3.3486099243164062,-4.7994384765625,-1.0,6.0,6.0,01-30,1.3849403063456218
11-17,-0.7123908996582031,3.294164657592773,2.7393760681152344,9.26486587524414,-0.6493911743164062,7.4475860595703125,-8.193069458007812,5.053062438964844,5.4463653564453125,-3.1073455810546875,-5.398139953613281,0.0,6.0,6.0,01-31,1.2654236157735188
11-18,-0.6106281280517578,2.386585235595703,2.532306671142578,8.898880004882812,-0.6493911743164062,6.008903503417969,-11.163177490234377,6.3887176513671875,3.29248046875,-2.557289123535156,-5.398139953613281,0.0,6.0,6.0,02-01,0.7607706387837728
11-19,-0.32567405700683594,2.89920425415039,3.3433380126953125,8.898880004882812,-0.6986465454101562,6.830352783203125,-7.586189270019531,3.567977905273437,3.6530532836914062,-2.557289123535156,-5.270545959472656,0.0,6.0,6.0,02-02,1.0628717740376792
11-20,0.10991859436035156,3.6387100219726562,3.895526885986328,8.237419128417969,1.1061935424804688,4.638267517089844,-8.303421020507812,4.0816802978515625,3.6530532836914062,-0.80096435546875,-3.3272171020507812,0.0,8.0,3.0,02-03,1.4107638994852705
11-21,-0.2401714324951172,3.2773513793945312,3.895526885986328,7.108524322509767,-0.429931640625,3.8032302856445312,-11.429855346679688,4.0816802978515625,3.2165756225585938,-1.3220748901367188,-5.731842041015625,0.0,6.0,5.0,02-04,0.5190844535827637
11-22,-0.5373420715332031,3.2773513793945312,4.1371002197265625,7.580333709716798,-3.0946426391601562,5.142036437988281,-9.52642059326172,3.6800537109375,2.2297821044921875,-1.4668350219726562,-3.99462890625,0.0,6.0,5.0,02-05,0.6188990275065104
11-23,-0.5373420715332031,3.8782005310058594,4.413188934326172,6.865955352783202,-3.1125640869140625,5.39166259765625,-9.52642059326172,2.7927169799804688,-0.4649581909179688,-0.99395751953125,-5.16259765625,0.0,5.0,6.0,02-06,0.2953236897786458
11-24,-0.260528564453125,3.281558990478516,5.077556610107422,6.773365020751952,-3.1215133666992188,5.39166259765625,-9.544815063476562,2.6246109008789062,-3.90924072265625,-0.3184432983398437,-2.875732421875,0.0,5.0,6.0,02-07,0.2598733901977539
11-25,-1.196828842163086,3.453842163085937,4.9308738708496085,6.755725860595702,-3.1215133666992188,5.4688262939453125,-9.894241333007812,1.6718978881835938,-1.7933349609375,-1.1966094970703125,-2.875732421875,0.0,5.0,6.0,02-08,0.1835754712422689
11-26,-0.4030094146728516,3.554672241210937,3.76177978515625,6.755725860595702,-3.5424880981445312,6.090614318847656,-12.26665496826172,2.4845199584960938,-1.6320266723632812,-1.1966094970703125,-4.760185241699219,0.0,5.0,6.0,02-09,-0.09613847732543944
11-27,-0.6716880798339844,3.75216293334961,3.908462524414064,7.0291481018066415,-2.516914367675781,5.464271545410156,-15.227569580078125,2.568572998046875,-1.6320266723632812,0.28949737548828125,-4.7405548095703125,0.0,6.0,5.0,02-10,-0.14805316925048828
11-28,-0.10990715026855467,3.651325225830078,3.908462524414064,7.086444854736327,-0.6807327270507812,3.6307373046875,-13.563201904296875,2.568572998046875,-3.045806884765625,-2.6923904418945312,-6.1146240234375,0.0,5.0,6.0,02-11,-0.4467600186665853
11-29,0.13026809692382812,3.651325225830078,3.6539382934570312,7.1614227294921875,-0.0582275390625,3.7986831665039062,-13.241348266601562,1.9614486694335933,-6.3667449951171875,-3.4836959838867188,-7.802772521972656,0.0,6.0,5.0,02-12,-0.8829752604166666
11-30,0.13026809692382812,3.584091186523437,1.8463783264160158,6.649883270263673,0.6717605590820312,3.7896347045898438,-13.241348266601562,3.9228744506835938,-4.2508087158203125,-4.448722839355469,-6.4286956787109375,0.0,7.0,4.0,02-13,-0.6478904088338217
12-01,-0.06513214111328125,3.218524932861328,1.8463897705078125,6.839500427246094,0.9404754638671876,3.7896347045898438,-14.179298400878904,4.9503173828125,-1.850257873535156,-2.8467788696289062,-6.026298522949219,0.0,6.0,5.0,02-14,-0.2819102605183919
12-02,-0.3256721496582031,3.441242218017578,2.6789703369140625,8.012496948242188,0.9404754638671876,4.1254730224609375,-12.873527526855467,5.8189849853515625,-2.8465194702148438,-2.5765838623046875,-6.026298522949219,0.0,6.0,5.0,02-15,0.030753453572591145
12-03,0.26053619384765625,3.231143951416016,2.3079795837402344,8.012496948242188,1.836151123046875,2.2510910034179688,-13.820655822753904,5.211845397949219,-1.1765518188476562,-2.5765838623046875,-5.4962921142578125,0.0,7.0,4.0,02-16,0.003430048624674479
12-04,-0.008146286010742188,3.529468536376953,2.303638458251953,8.290317535400389,1.258453369140625,4.229827880859375,-13.039070129394533,5.521278381347656,-1.1765518188476562,1.119415283203125,-6.615196228027344,0.0,7.0,4.0,02-17,0.4511195818583171
12-05,0.4437217712402344,3.909984588623047,2.303638458251953,8.665153503417969,2.440765380859375,6.317535400390625,-10.45514678955078,5.521278381347656,-0.4080047607421875,2.026527404785156,-10.472396850585938,0.0,8.0,3.0,02-18,0.8577547073364258
12-06,0.8256664276123047,3.909984588623047,2.187152862548828,6.962982177734375,0.474700927734375,5.904518127441406,-8.848983764648438,5.306465148925781,0.12335205078125,1.4185638427734375,-12.160530090332033,0.0,9.0,2.0,02-19,0.5086560249328613
12-07,0.8256664276123047,3.6998977661132812,2.5193328857421875,7.946331024169923,-0.05376434326171875,6.3869781494140625,-8.848983764648438,3.4757614135742188,0.504058837890625,5.674278259277344,-13.397201538085938,0.0,8.0,3.0,02-20,0.7276962598164877
12-08,1.4322147369384766,3.956207275390625,4.033210754394531,5.234363555908203,0.4315261840820313,6.3869781494140625,-6.789215087890625,2.5801239013671875,0.6557693481445312,5.085624694824219,-13.210731506347654,0.0,9.0,2.0,02-21,0.8163393338521322
12-09,1.3111724853515625,4.185077667236328,3.7806549072265625,3.6354942321777344,0.4315261840820313,5.093498229980469,-5.971916198730469,3.2454757690429688,0.15958404541015625,6.0602874755859375,-13.210731506347654,0.0,9.0,2.0,02-22,0.7266769409179688
12-10,1.6259651184082031,4.119659423828125,4.328140258789063,3.6354942321777344,0.14490509033203125,6.95330810546875,-4.488128662109375,4.443374633789063,0.369140625,6.0602874755859375,-12.710166931152346,0.0,9.0,2.0,02-23,1.2068316141764324
12-11,1.67333984375,3.002300262451172,4.254329681396484,3.1063232421875,3.1434783935546875,6.677925109863281,-1.5049591064453125,4.265205383300781,0.369140625,6.465599060058594,-12.208137512207033,0.0,9.0,2.0,02-24,1.6037120819091797
12-12,0.9383506774902344,2.786659240722656,4.254329681396484,2.6890525817871094,2.9435958862304688,7.871330261230469,-2.293121337890625,4.265205383300781,0.1698760986328125,6.903533935546875,-14.074821472167967,0.0,9.0,2.0,02-25,1.371165911356608
12-13,1.2052993774414062,2.786659240722656,4.7547454833984375,3.3900909423828125,2.7893600463867188,8.774894714355469,-1.545440673828125,5.759651184082031,0.0569000244140625,10.643684387207033,-16.9266357421875,0.0,9.0,2.0,02-26,1.80743408203125
12-14,1.2052993774414062,2.421112060546875,5.4288330078125,0.4140586853027344,4.028755187988281,8.274223327636719,-1.545440673828125,6.3846435546875,3.886627197265625,12.23004913330078,-22.721458435058594,0.0,9.0,2.0,02-27,1.6672252019246416
12-15,1.5635299682617188,1.8438873291015625,5.233245849609375,1.3491058349609375,5.08917236328125,8.274223327636719,-2.2994537353515625,7.115821838378906,2.7482833862304688,14.310882568359375,-23.25373077392578,0.0,9.0,2.0,02-28,1.831247329711914
12-16,0.9450855255126952,2.73855209350586,5.4610328674316415,2.226043701171875,5.08917236328125,8.932266235351562,-2.6074142456054688,6.477516174316406,-0.3531341552734375,14.989364624023438,-23.25373077392578,0.0,8.0,3.0,03-01,1.7203962008158369
12-17,1.537092208862305,2.9091415405273438,6.207324981689452,2.226043701171875,4.547248840332031,6.4681396484375,0.27487945556640625,6.178558349609375,-3.086898803710937,14.989364624023438,-23.106529235839844,0.0,9.0,2.0,03-02,1.5953637758890789
12-18,2.0978145599365234,2.491474151611328,5.477985382080078,1.2250328063964844,4.073333740234375,4.1030120849609375,0.5633316040039062,6.985008239746094,-3.086898803710937,15.404312133789062,-27.10462951660156,0.0,9.0,2.0,03-03,1.0191480318705242
12-19,2.004985809326172,2.605640411376953,5.477985382080078,1.7806549072265625,5.897666931152344,4.755027770996094,2.514373779296875,6.985008239746094,-3.2576675415039062,15.47101593017578,-27.01268768310547,0.0,9.0,2.0,03-04,1.4351669947306316
12-20,2.1446208953857417,2.605640411376953,4.766181945800781,0.44478607177734375,4.965011596679688,2.545249938964844,2.283607482910156,7.526741027832031,-4.382209777832031,15.619125366210938,-26.214073181152344,0.0,9.0,2.0,03-05,1.0253901481628418
12-21,2.1446208953857417,2.555213928222656,4.782974243164063,1.288555145263672,6.8730010986328125,2.9093551635742188,2.283607482910156,6.458564758300781,-5.220359802246094,14.985916137695312,-27.650901794433594,0.0,9.0,2.0,03-06,0.950878938039144
12-22,1.884084701538086,3.2194442749023438,4.627231597900392,0.6944389343261719,6.580924987792969,2.9093551635742188,0.8767166137695312,6.9711151123046875,-2.839019775390625,15.089492797851562,-24.13199615478516,0.0,9.0,2.0,03-07,1.323482354482015
12-23,1.6967277526855469,2.657543182373047,3.7490921020507812,0.3533973693847656,6.580924987792969,2.2422103881835938,0.41121673583984375,6.4542083740234375,-0.7240676879882812,14.895645141601562,-24.13199615478516,0.0,9.0,2.0,03-08,1.1820751825968423
12-24,1.7428741455078125,2.121143341064453,3.0296707153320312,0.3533973693847656,5.649391174316406,2.2695541381835938,2.294830322265625,4.976898193359375,-0.771697998046875,14.895645141601562,-24.652183532714844,0.0,9.0,2.0,03-09,0.9924602508544922
12-26,1.5054607391357422,2.3452186584472656,3.0904541015625,0.5827522277832031,5.66363525390625,0.6180343627929688,1.840789794921875,10.65008544921875,-0.771697998046875,10.665870666503906,-30.89234161376953,0.0,9.0,2.0,03-11,0.4415218035380046
12-27,1.8217010498046875,2.3452186584472656,3.0904541015625,2.1253662109375,5.9013519287109375,-1.879547119140625,2.5515670776367188,10.65008544921875,-0.608978271484375,8.387550354003906,-34.825439453125,0.0,8.0,3.0,03-12,-0.03672250111897787
12-28,1.8217010498046875,1.9964790344238281,4.63275146484375,2.505439758300781,4.33868408203125,-3.012847900390625,2.5515670776367188,8.095146179199219,0.8889846801757812,10.189537048339844,-29.938072204589844,0.0,9.0,2.0,03-13,0.3391141891479492
12-29,1.9967460632324217,1.1687355041503906,4.0412635803222665,1.939208984375,4.203880310058594,-3.012847900390625,1.92626953125,6.709678649902344,0.0875701904296875,9.079139709472656,-34.87636566162109,0.0,9.0,2.0,03-14,-0.5613934199015299
12-30,1.8690738677978518,1.7639427185058594,4.395877838134767,2.993305206298828,4.203880310058594,-2.6497726440429688,3.2526397705078125,7.77667236328125,-1.403533935546875,9.25359344482422,-34.87636566162109,0.0,8.0,3.0,03-15,-0.2850572268168132
12-31,2.5194721221923837,1.8152503967285158,4.2223548889160165,2.993305206298828,3.670944213867188,-0.361083984375,6.064674377441406,6.4281463623046875,-2.3846435546875,9.25359344482422,-35.435829162597656,0.0,8.0,3.0,03-16,-0.1011513074239095
